Time (s),X (m),Y (m)
0.001,4.1020280575708355e-05,-0.0010155025257856578
0.20000000000000015,0.002023015628282132,0.0032842593486403795
0.4000000000000003,0.00528786992628441,0.00440886518016817
0.6000000000000004,0.011758332503318638,-0.0021624705991880955
0.8000000000000006,0.0236759966745858,-0.003124094126472054
1.0000000000000007,0.03788750399574021,-0.006698828850451926
1.2009999999999785,0.05443596091299138,-0.008402408260607794
1.4009999999999565,0.0724758567669509,-0.000646398504443542
1.6009999999999345,0.09504493580407443,0.007114666759728971
1.8009999999999124,0.11853304597653486,0.013459740326871186
2.0009999999998906,0.13585350255280593,0.024935384913913172
2.2009999999998686,0.15453687483767162,0.0280021037677265
2.4009999999998466,0.1704753161647612,0.034964537074516425
2.6009999999998246,0.18739412485693543,0.029564044740250057
2.8009999999998025,0.2112799672629995,0.04237553838077196
3.0009999999997805,0.2383764861030528,0.057822490473730295
3.2009999999997585,0.26183524459304225,0.06159979690138795
3.4009999999997365,0.2847083181615257,0.05903982279823959
3.6009999999997144,0.31325434702289634,0.058536548955087676
3.8009999999996924,0.34443695826758136,0.06007178776637524
4.000999999999671,0.371476286069502,0.07227893014079864
4.200999999999738,0.401059082927596,0.0658607529704168
4.400999999999804,0.4332197543060024,0.0669894875146585
4.600999999999871,0.4612312099216534,0.06065325005706889
4.800999999999938,0.48952114595258694,0.07073283301965415
5.000000000000004,0.5164988141269138,0.07170919261045111
5.200000000000071,0.5381082816464987,0.06604672707649407
5.400000000000138,0.5665421144994963,0.061270163214740665
5.600000000000205,0.5942495223659678,0.04986906494323831
5.800000000000272,0.6233357401455725,0.04541281766974827
6.000000000000338,0.646650065395294,0.04279824283995581
6.200000000000405,0.6770355148191933,0.04866386832973331
6.400000000000472,0.7044692892913573,0.04447439561547456
6.600000000000539,0.732862090579089,0.04487771030782821
6.800000000000606,0.7642222541377343,0.05038085429687522
7.000000000000672,0.7966230836160528,0.05652890513726953
7.200000000000739,0.8275341389175281,0.042238056066305006
7.400000000000806,0.855181185988455,0.027690291396972423
7.600000000000873,0.8862035986027533,0.02837910136686581
7.8000000000009395,0.9189628517014744,0.03206192424235944
8.000000000001005,0.9495829499341735,0.037891386458336423
8.200000000000895,0.9752207013029837,0.0378246369501215
8.400000000000784,1.0030317664022805,0.03152982713905469
8.600000000000673,1.028183156662065,0.028908885469724473
8.800000000000562,1.0553001713416534,0.02758804289373062
9.000000000000451,1.0831192498781614,0.034310972325824786
9.20000000000034,1.111671492913678,0.03912256663966504
9.40000000000023,1.148109673871484,0.040897806977456784
9.600000000000119,1.183450315010031,0.037849880530614194
9.800000000000008,1.2139129490714204,0.03342214714656208
10.000999999999896,1.238935850391881,0.019923694875335685
10.200999999999786,1.26893677151441,0.013327052388375569
10.400999999999675,1.2931833681770954,0.0070941071334138335
10.600999999999564,1.3204464985580426,0.012339072158449229
10.800999999999453,1.350457794102886,0.006082857486539354
11.000999999999342,1.3690959668661147,-0.0029556771681321756
11.200999999999231,1.3995495058376326,-0.0026510253664773116
11.40099999999912,1.4275735182132165,-0.015128542415273895
11.60099999999901,1.456978062027834,-0.021489857203556166
11.800999999998899,1.4870362047273207,-0.019249358774898577
12.000999999998788,1.5138056150593766,-0.017416902707991695
12.200999999998677,1.5425208870378266,-0.010172975201621807
12.400999999998566,1.5731880435389336,-0.006622810381404933
12.600999999998455,1.6027452434667937,-0.010726109824122088
12.800999999998345,1.6298310038533967,0.004634508044953307
13.000999999998234,1.655669936118164,0.001681525068630697
13.200999999998123,1.6797533953542716,-0.006402860697343615
13.400999999998012,1.7119651681368453,0.0009993759438362778
13.600999999997901,1.7479520508410082,0.009752454465007183
13.80099999999779,1.777444187640421,0.011144891237692236
14.00099999999768,1.803955244696298,0.02001536078461524
14.200999999997569,1.8289984993091266,0.021716512002963158
14.400999999997458,1.857000038186218,0.029028303636067183
14.600999999997347,1.8865611523151304,0.03186899308834178
14.800999999997236,1.9197453342850144,0.037791550091422314
15.000999999997125,1.9591707503285338,0.051392420077799074
15.200999999997014,1.9967774186615699,0.05795250199632661
15.400999999996904,2.0353563923431217,0.06247760083131389
15.600999999996793,2.0645260338664793,0.07701933677233101
15.800999999996682,2.097280696140444,0.08391550500861034
16.000999999996573,2.1301844002071246,0.08439555232276925
16.200999999996817,2.163938325834079,0.07832682712875072
16.40099999999706,2.198878687333465,0.07812779623085049
16.600999999997306,2.228634110624691,0.07733960856112329
16.80099999999755,2.2546828943218693,0.06818155574315671
17.000999999997795,2.2850391611696548,0.06647739925822674
17.20099999999804,2.3153048270648022,0.06408018845057277
17.400999999998284,2.344114088896944,0.06051332661115643
17.60099999999853,2.3765676395020106,0.058078822925199954
17.800999999998773,2.4094533128505846,0.06339805875437943
18.000999999999017,2.440255081164515,0.06669043742627874
18.20099999999926,2.4721904212406853,0.08617214790935025
18.400999999999506,2.5104710322473025,0.09341934124631486
18.60099999999975,2.5465790624734885,0.08996126551067528
18.799999999999994,2.577213373091349,0.08174483630813618
19.000000000000238,2.6109308595233256,0.0802352043954485
19.200000000000482,2.6451050627184043,0.0775949361986425
19.400000000000727,2.676541967764154,0.08179281891982375
19.60000000000097,2.7018990749539653,0.08900284113154396
19.800000000001216,2.727320539638043,0.08522061760926888
20.00000000000146,2.75274088250184,0.08208820087293471
