Time (s),X (m),Y (m)
0.001,0.0010100015126501532,-0.0006628221997479689
0.20000000000000015,0.00039552505750991006,0.000669218199826425
0.4000000000000003,0.004497201668339131,0.0002535595439087179
0.6000000000000004,0.011970337791159339,0.008636988744141379
0.8000000000000006,0.02036959974966069,0.013555313277916078
1.0000000000000007,0.029702171723453557,0.01418146518313681
1.2009999999999785,0.04470112586539876,0.022515928327504306
1.4009999999999565,0.06673386479110642,0.01663425054629508
1.6009999999999345,0.08998234638401639,0.010130233099199224
1.8009999999999124,0.11003367397197052,0.007314764353461282
2.0009999999998906,0.1317165569543058,0.012030778136393926
2.2009999999998686,0.1487043364100353,0.013805863282840962
2.4009999999998466,0.17101671389052553,0.001994971072381534
2.6009999999998246,0.19115892150728858,-0.002988370681927924
2.8009999999998025,0.20759861482069622,0.0018307460358510063
3.0009999999997805,0.22057986536461846,-0.00016581006802951514
3.2009999999997585,0.24104252281727598,0.00039803547970894735
3.4009999999997365,0.25408731737237467,0.012097819016891623
3.6009999999997144,0.2728732826285481,0.018490032757047442
3.8009999999996924,0.2959727849331728,0.01743064870932979
4.000999999999671,0.3121179248665382,0.01564145294901944
4.200999999999738,0.33192338813693517,0.00361942854320567
4.400999999999804,0.35201861524887673,-0.008406296741527394
4.600999999999871,0.3698468127442086,-0.015477904202034563
4.800999999999938,0.3878295862509266,-0.02242667134228377
5.000000000000004,0.4041289563168776,-0.032661897991676826
5.200000000000071,0.422188332810814,-0.047627729935018695
5.400000000000138,0.4414127451887104,-0.059903800634960425
5.600000000000205,0.4580292974705062,-0.07186722521719191
5.800000000000272,0.4729867353347629,-0.0886272763126881
6.000000000000338,0.47809829619936284,-0.10217757863775043
6.200000000000405,0.4901478606575455,-0.1156135701207646
6.400000000000472,0.49745774042531976,-0.13531848254621062
6.600000000000539,0.5091566350241339,-0.1567261741510521
6.800000000000606,0.5170229763100737,-0.17730709763279784
7.000000000000672,0.5167730285743776,-0.2085007720138216
7.200000000000739,0.5170003074634659,-0.23288937001961574
7.400000000000806,0.5250855814661696,-0.2550064211933895
7.600000000000873,0.5288120417454515,-0.2703085038208884
7.8000000000009395,0.5324074622730764,-0.282406280968689
8.000000000001005,0.5438424274764457,-0.2919365132860594
8.200000000000895,0.5501606464805197,-0.3109994612452578
8.400000000000784,0.5509742264681554,-0.33391779394805626
8.600000000000673,0.5485749251032687,-0.36643484420889627
8.800000000000562,0.5496486796774174,-0.39117770018376274
9.000000000000451,0.5566492153135406,-0.40727755777211927
9.20000000000034,0.5587253524362001,-0.4309010774455763
9.40000000000023,0.5618061274115258,-0.4536735906546638
9.600000000000119,0.5633907175684715,-0.47637272594394275
9.800000000000008,0.5670475558933156,-0.49435406193677506
10.000999999999896,0.566575346259747,-0.5235806715259852
10.200999999999786,0.5608268378941699,-0.5571501129320461
10.400999999999675,0.552017745468024,-0.588999930852317
10.600999999999564,0.5401034719394241,-0.6234037273749368
10.800999999999453,0.5239309393812607,-0.6526337336731237
11.000999999999342,0.5217108844887405,-0.6790972798179176
11.200999999999231,0.5214458042948579,-0.7013628258052482
11.40099999999912,0.5169522673925331,-0.7195522620432496
11.60099999999901,0.5062529327008268,-0.7377544572536385
11.800999999998899,0.4836825627416774,-0.7504622858214586
12.000999999998788,0.4582931195706091,-0.7595739195119974
12.200999999998677,0.43818234480671,-0.7687549556071592
12.400999999998566,0.41324108073571614,-0.7811544667136912
12.600999999998455,0.3876549249038087,-0.7873706130543613
12.800999999998345,0.3599844031454022,-0.7896277271075282
13.000999999998234,0.33279340174252475,-0.7926031964378938
13.200999999998123,0.30286354911539715,-0.7905146368798315
13.400999999998012,0.26821216386711655,-0.7824520050446895
13.600999999997901,0.2361440935358207,-0.7697685729657371
13.80099999999779,0.19925733161506046,-0.7552819903631262
14.00099999999768,0.16001005116201367,-0.7418947366704717
14.200999999997569,0.12207090394289966,-0.7314650742501458
14.400999999997458,0.0881698873327834,-0.7281127951168316
14.600999999997347,0.055531781109503034,-0.7201193638266443
14.800999999997236,0.026057128916540603,-0.7119004158995533
15.000999999997125,-0.006290638124484827,-0.6989076304508853
15.200999999997014,-0.03626842245666952,-0.6790952441531511
15.400999999996904,-0.06739799107747527,-0.6680399584667327
15.600999999996793,-0.09482446160407844,-0.6608794675454835
15.800999999996682,-0.11960096595542703,-0.6549673402686691
16.000999999996573,-0.14946811957754716,-0.644467540283963
16.200999999996817,-0.17889934579765604,-0.6339336865472546
16.40099999999706,-0.20338994078641687,-0.6107831494818003
16.600999999997306,-0.22118852953806528,-0.5860658367706885
16.80099999999755,-0.2368333609672124,-0.5688320957367997
17.000999999997795,-0.24793863806274735,-0.548521703528237
17.20099999999804,-0.2690898636794056,-0.5163405619468868
17.400999999998284,-0.28634554401403206,-0.5018117588110983
17.60099999999853,-0.2975722286503707,-0.4885177682321795
17.800999999998773,-0.296745839925882,-0.4620200485750628
18.000999999999017,-0.2964588674608379,-0.4376633382959914
18.20099999999926,-0.2860890758585386,-0.40510400954221226
18.400999999999506,-0.2797191474454444,-0.3752629598807282
18.60099999999975,-0.2765581814106938,-0.3490301208709835
18.799999999999994,-0.2717426021281922,-0.32312817856505804
19.000000000000238,-0.26299657044596153,-0.29413517123628147
19.200000000000482,-0.24953375391281082,-0.2544979453842717
19.400000000000727,-0.24526567226312831,-0.2191717563692716
19.60000000000097,-0.2366045231231047,-0.18552976835591228
19.800000000001216,-0.22569641746369729,-0.1559701389393077
20.00000000000146,-0.21664549981955933,-0.12511821291865918
