Time (s),X (m),Y (m)
0.001,0.0010647643868879006,-0.0005914538325516239
0.20000000000000015,0.00042528252059585773,0.0011213243864092019
0.4000000000000003,0.0047414052635759915,-0.0019357473114644255
0.6000000000000004,0.013275090716278621,-0.0018606062040190093
0.8000000000000006,0.02589042704735118,0.0002918880085144054
1.0000000000000007,0.03838223759255304,-0.0025216941313757255
1.2009999999999785,0.04621509525982822,-0.0027788825142961984
1.4009999999999565,0.06542719626640092,-0.003021376862082993
1.6009999999999345,0.08035522619288521,-0.0037666805135036082
1.8009999999999124,0.08589307916988936,-0.0035158210535175282
2.0009999999998906,0.09022426661376723,0.0016441153532263692
2.2009999999998686,0.0987066729000971,0.0046004888495842795
2.4009999999998466,0.10521086631347262,0.00868556084719684
2.6009999999998246,0.11779031107541302,0.0007332411425651298
2.8009999999998025,0.1382719264455804,0.002886555809053077
3.0009999999997805,0.16146571662514103,0.004642104814111281
3.2009999999997585,0.17772860117110884,-0.004901446963291823
3.4009999999997365,0.19108208346558403,-0.0027667269446626994
3.6009999999997144,0.20779798004814024,0.004181905794111908
3.8009999999996924,0.22549969757700108,0.003225974972506417
4.000999999999671,0.2396462343745236,0.0025361046597585134
4.200999999999738,0.251732737990616,0.002151102335267034
4.400999999999804,0.2778187383645259,-0.005742743566866588
4.600999999999871,0.30446231241401955,-0.009407381022044487
4.800999999999938,0.3232104178865496,-0.010738670553056199
5.000000000000004,0.342155531560363,1.4297687002054737e-05
5.200000000000071,0.36161486475660337,0.00230841857533399
5.400000000000138,0.38354734987818256,-0.001543558270477419
5.600000000000205,0.4017359541722527,-0.0015343676682370087
5.800000000000272,0.4261592771306451,-0.0072515548802477335
6.000000000000338,0.4559508297246866,-0.008019258512822921
6.200000000000405,0.486318781414969,-0.020085910782776228
6.400000000000472,0.514036613052591,-0.03763856145679026
6.600000000000539,0.5373878370303294,-0.04494658854830414
6.800000000000606,0.5608788426356928,-0.048038668600705804
7.000000000000672,0.578500585448194,-0.05979026106977441
7.200000000000739,0.5973930008213874,-0.07140350885667726
7.400000000000806,0.6176312612709762,-0.09868539179874515
7.600000000000873,0.63303127464179,-0.13719499502894872
7.8000000000009395,0.6439674049739129,-0.16908888554517373
8.000000000001005,0.6474063577320315,-0.19245276916444345
8.200000000000895,0.6495956792272102,-0.22312223772329925
8.400000000000784,0.6522492386007164,-0.24900366477269786
8.600000000000673,0.6507289195969067,-0.27655962468393497
8.800000000000562,0.6543530985555865,-0.306557082848356
9.000000000000451,0.658213298848578,-0.3346044654384095
9.20000000000034,0.6583083569547875,-0.36750607187222567
9.40000000000023,0.6553948540943016,-0.3984710878483638
9.600000000000119,0.65730267483487,-0.41582121570823644
9.800000000000008,0.6597714669080069,-0.4346687392656115
10.000999999999896,0.6557519241148791,-0.46361654614465503
10.200999999999786,0.6524452007330399,-0.49321993230331296
10.400999999999675,0.6471585946834982,-0.5234293505349031
10.600999999999564,0.6473676289293007,-0.5509699930915141
10.800999999999453,0.6481342498404005,-0.5845092616816664
11.000999999999342,0.6430591822012587,-0.6111937692166695
11.200999999999231,0.6404128164860411,-0.6401733487284648
11.40099999999912,0.6270088860454324,-0.6690050952006769
11.60099999999901,0.6087655672972173,-0.6992636504773517
11.800999999998899,0.5916713603009675,-0.727085081713025
12.000999999998788,0.5753232424736282,-0.7509146928931524
12.200999999998677,0.5621504876558392,-0.7752365155629114
12.400999999998566,0.5430722984689365,-0.798131189719377
12.600999999998455,0.5203821656325813,-0.8202694374209404
12.800999999998345,0.5030011069267397,-0.8389789761237799
13.000999999998234,0.48492959781602646,-0.8484696651745663
13.200999999998123,0.457428073143639,-0.8533901766029137
13.400999999998012,0.42938228988208255,-0.8489039191074436
13.600999999997901,0.3978561570723753,-0.8434693790806391
13.80099999999779,0.37436564585936255,-0.8449160842831688
14.00099999999768,0.33611663800056985,-0.8368492953498509
14.200999999997569,0.3117856250577941,-0.8358585680698751
14.400999999997458,0.2959597303525471,-0.8393678038710304
14.600999999997347,0.2657066759948437,-0.8359173781480392
14.800999999997236,0.234620732724763,-0.8364904470694787
15.000999999997125,0.2048415237158213,-0.8325223205960556
15.200999999997014,0.17391034560483046,-0.8282996310222491
15.400999999996904,0.14947664212274445,-0.8265505440694811
15.600999999996793,0.12511327537060937,-0.8230965310327913
15.800999999996682,0.09461288980059084,-0.8153646231938073
16.000999999996573,0.06175710405013469,-0.8011445601179408
16.200999999996817,0.031070427448862254,-0.7953079732318138
16.40099999999706,0.007595842213051532,-0.7881606152750488
16.600999999997306,-0.016453415579759056,-0.7732202830701741
16.80099999999755,-0.0420637593672828,-0.7536852031215298
17.000999999997795,-0.07439769610651215,-0.7346534629291365
17.20099999999804,-0.10578939463796018,-0.7190171701093907
17.400999999998284,-0.13363532767703487,-0.6931159231587146
17.60099999999853,-0.16313045446038368,-0.6715600860418766
17.800999999998773,-0.18307163564789006,-0.6448715950303927
18.000999999999017,-0.19549266117770572,-0.6112313353638791
18.20099999999926,-0.20841493543605843,-0.585901231021213
18.400999999999506,-0.21663285497446408,-0.5590947810497844
18.60099999999975,-0.21675716184257274,-0.5183550231254078
18.799999999999994,-0.2196829038767155,-0.48715821191388753
19.000000000000238,-0.21683928009101672,-0.4580009264632601
19.200000000000482,-0.20392306198215468,-0.4241389838476253
19.400000000000727,-0.1929665375220488,-0.390488560543304
19.60000000000097,-0.1808547997511639,-0.3605595081677601
19.800000000001216,-0.1720937083732199,-0.3344817610275278
20.00000000000146,-0.154915061342756,-0.2980636052666601
