Time (s),X (m),Y (m)
0.001,0.0009492268646305597,0.0007291460897812449
0.20000000000000015,-0.004306701588238248,-0.0046965416416737205
0.4000000000000003,-0.007202404898894426,-0.010133475740340498
0.6000000000000004,0.005543735056610382,-0.00367533687701814
0.8000000000000006,0.02212812312250315,-0.0027937289755632522
1.0000000000000007,0.041935885882425465,0.002471545873711809
1.2009999999999785,0.05654767359794032,0.001241458882507314
1.4009999999999565,0.07306458969193104,0.00400431702167666
1.6009999999999345,0.09960498007852087,0.01408731264574709
1.8009999999999124,0.12480224438957889,0.013394871880762183
2.0009999999998906,0.1429167035688743,0.01141713474033915
2.2009999999998686,0.16204926818107485,0.007486097192559341
2.4009999999998466,0.17856810978210225,0.003606939191173922
2.6009999999998246,0.20021392980986627,0.00309074311238719
2.8009999999998025,0.22892515925933596,0.01018464110241356
3.0009999999997805,0.2556091620619966,0.015046524049116801
3.2009999999997585,0.2809597060046804,0.011413914313031142
3.4009999999997365,0.3049375799000903,0.012374863363340106
3.6009999999997144,0.324715588933265,0.007914049011432658
3.8009999999996924,0.34466759263330443,0.009807381201804119
4.000999999999671,0.3733404313034555,0.02530175027266205
4.200999999999738,0.40684576330861516,0.04249968608060359
4.400999999999804,0.4402851784789395,0.05674732651916199
4.600999999999871,0.47288173657161536,0.07047547758732077
4.800999999999938,0.5082238994476509,0.0857366040528863
5.000000000000004,0.5354785287902462,0.11186571845032468
5.200000000000071,0.5584782903296561,0.14032141325902855
5.400000000000138,0.5802916994715911,0.1700926151128612
5.600000000000205,0.6067852254370515,0.2058442811161142
5.800000000000272,0.6422784158512789,0.23082121234077094
6.000000000000338,0.6742618199084442,0.2596449230344987
6.200000000000405,0.70121706208648,0.2899313642578529
6.400000000000472,0.7242897235259114,0.3223870092780569
6.600000000000539,0.7495032745793996,0.34651559142048727
6.800000000000606,0.7729337050730508,0.3664387327351137
7.000000000000672,0.7924216322646793,0.4000090147877087
7.200000000000739,0.8146179331463232,0.41852905296449266
7.400000000000806,0.8392746966521999,0.4384219543001969
7.600000000000873,0.8611188160183669,0.46140330797137863
7.8000000000009395,0.8862247673289666,0.4913414775093287
8.000000000001005,0.9070272460949084,0.5133660030344107
8.200000000000895,0.9350699040514827,0.53732465181739
8.400000000000784,0.9648291147738194,0.5637129462276868
8.600000000000673,0.9842224423491761,0.593937479843864
8.800000000000562,1.0060932265925084,0.6153377706074021
9.000000000000451,1.0252763844622594,0.6342583469501141
9.20000000000034,1.0451296351068842,0.6531534575192538
9.40000000000023,1.0622466819762248,0.6912859145770839
9.600000000000119,1.0834651410625873,0.7190505316672879
9.800000000000008,1.1055759502334748,0.731281053913969
10.000999999999896,1.1327224524730677,0.7445533028351122
10.200999999999786,1.1590165010741877,0.7729528831485963
10.400999999999675,1.1877722965815647,0.7995342219069222
10.600999999999564,1.2144992828808336,0.8293042127050212
10.800999999999453,1.23735951821498,0.8623085276887993
11.000999999999342,1.2575583228858396,0.8997380158075723
11.200999999999231,1.2725137418843007,0.9404781375727809
11.40099999999912,1.2865247451710284,0.9814913533483268
11.60099999999901,1.302651860881783,1.017886220337139
11.800999999998899,1.3234889387893285,1.0565382444933575
12.000999999998788,1.3453685488144695,1.0820247243768233
12.200999999998677,1.3660627423795477,1.1099317623262661
12.400999999998566,1.3937739717215631,1.1270188403463952
12.600999999998455,1.4158793912229188,1.147236848009875
12.800999999998345,1.4350854859457483,1.1778572720958274
13.000999999998234,1.4619793416530822,1.2047771589726004
13.200999999998123,1.4860261310953933,1.2178051648060646
13.400999999998012,1.510561030450179,1.2449932114601638
13.600999999997901,1.523916367332234,1.2755298967121498
13.80099999999779,1.5300832441373997,1.3115376991680694
14.00099999999768,1.5374013905715045,1.3510694471855047
14.200999999997569,1.5475397513233158,1.3933095430399722
14.400999999997458,1.5596253636015112,1.4256763398023813
14.600999999997347,1.5751812234386113,1.461197449710143
14.800999999997236,1.593515819092147,1.4967087267340837
15.000999999997125,1.6073072684185503,1.5296482078280658
15.200999999997014,1.6280724331966643,1.5450289023305104
15.400999999996904,1.6544263892764477,1.5685235657329748
15.600999999996793,1.6765002635393966,1.6002598964292967
15.800999999996682,1.701262671780892,1.6332868425697193
16.000999999996573,1.7155204030115396,1.669630431092407
16.200999999996817,1.7270590227112608,1.7124882202505147
16.40099999999706,1.7440088424508848,1.753323965772812
16.600999999997306,1.7572399976255013,1.7718650863427472
16.80099999999755,1.7664433868654623,1.804280363597794
17.000999999997795,1.7791833805697626,1.8312782700334707
17.20099999999804,1.7961501773463286,1.8633799241002755
17.400999999998284,1.8060033703833587,1.9067338128487539
17.60099999999853,1.807272060262742,1.953836969466763
17.800999999998773,1.8005881107172328,1.988669254239235
18.000999999999017,1.794933333470343,2.025674649168569
18.20099999999926,1.794649377518439,2.0581054219834347
18.400999999999506,1.8004699572589378,2.076521911940587
18.60099999999975,1.808914532233085,2.1041032638700434
18.799999999999994,1.8178657543056929,2.141438547624093
19.000000000000238,1.829874331630629,2.1770541415488793
19.200000000000482,1.8369950332300957,2.2045378891186713
19.400000000000727,1.8437398836877237,2.2404273268527475
19.60000000000097,1.8463256387822813,2.2815581000299816
19.800000000001216,1.8566224663775215,2.319077416167394
20.00000000000146,1.859160944959128,2.3627319502338207
