Time (s),X (m),Y (m)
0.001,0.0010647643868879006,-0.0005914538325516239
0.20000000000000015,-0.002018383322827406,0.0048110393128087915
0.4000000000000003,0.0022809485867403795,0.0045048786995741386
0.6000000000000004,0.0028600428920783445,0.01475350666080545
0.8000000000000006,0.009125367393878219,0.025866293239600466
1.0000000000000007,0.024328627905393845,0.02910099073806841
1.2009999999999785,0.03939821625749231,0.02661876571687775
1.4009999999999565,0.06034053212861817,0.02528091211336948
1.6009999999999345,0.08536466139211157,0.02311252512929611
1.8009999999999124,0.11514275801449414,0.02011832022053407
2.0009999999998906,0.12325867640860634,0.02806762751573215
2.2009999999998686,0.12931196977029494,0.032980561495299675
2.4009999999998466,0.13522888956133203,0.047313394167824825
2.6009999999998246,0.1429997908473119,0.05482147242012109
2.8009999999998025,0.17527684208443997,0.050170499434486385
3.0009999999997805,0.21978572487301778,0.04173761019664202
3.2009999999997585,0.263294836365971,0.024454069468753087
3.4009999999997365,0.2998052955524931,0.010007629753724726
3.6009999999997144,0.3316594823259934,0.0012531807812139022
3.8009999999996924,0.35615239362761786,-0.002668118464320808
4.000999999999671,0.38062453710419086,-0.007726692885353637
4.200999999999738,0.40636920615386524,-0.010512617162282788
4.400999999999804,0.4361373519898192,-0.015531361361581005
4.600999999999871,0.4707455148021876,-0.014853684453109863
4.800999999999938,0.5043488022388352,-0.020643555373681993
5.000000000000004,0.5397695712911172,-0.02308955963060349
5.200000000000071,0.570667278347529,-0.03353256994036174
5.400000000000138,0.6029092342531605,-0.05307088711341811
5.600000000000205,0.6338892334885632,-0.08634043288998558
5.800000000000272,0.6591694090856159,-0.11022227992262419
6.000000000000338,0.6728433953718594,-0.1434020493944435
6.200000000000405,0.6790455828669641,-0.17668548674525547
6.400000000000472,0.6787640968546568,-0.2095225331875465
6.600000000000539,0.6827432565694046,-0.2382664163139328
6.800000000000606,0.684189710880331,-0.2705068827407071
7.000000000000672,0.6764864115257309,-0.32058758435319906
7.200000000000739,0.6758526439185204,-0.362578538584568
7.400000000000806,0.6780839556751139,-0.39767463527950203
7.600000000000873,0.6735138254568863,-0.430603128708789
7.8000000000009395,0.6573486011867292,-0.4621717009072116
8.000000000001005,0.6407400136498483,-0.4928808266301764
8.200000000000895,0.6204745086736211,-0.5198293061592052
8.400000000000784,0.5972055165745873,-0.5444699348953539
8.600000000000673,0.5749343383115119,-0.565761526490655
8.800000000000562,0.5543176929743912,-0.5858447364431284
9.000000000000451,0.5182048309845769,-0.6029856438339429
9.20000000000034,0.4833123685957176,-0.615739129378068
9.40000000000023,0.4549946261956944,-0.6291074323413727
9.600000000000119,0.43272628779337086,-0.6343836445564737
9.800000000000008,0.40556498406341007,-0.6337299875044152
10.000999999999896,0.3630988262274937,-0.6291604104826091
10.200999999999786,0.32294468862797865,-0.6208199385732242
10.400999999999675,0.2848662478375136,-0.6211546280167164
10.600999999999564,0.2510041839317062,-0.6141241497560912
10.800999999999453,0.2207773244146104,-0.6089232541258376
11.000999999999342,0.19069556879915675,-0.6047018462326611
11.200999999999231,0.15452971712734975,-0.6025450722903137
11.40099999999912,0.12122714952003603,-0.588308060071434
11.60099999999901,0.0877269801620306,-0.5739972482068021
11.800999999998899,0.05592065446784974,-0.549950926542674
12.000999999998788,0.02977467740858493,-0.5278345222357892
12.200999999998677,0.005231087680516701,-0.506878062830082
12.400999999998566,-0.008234696574354843,-0.47238924671704047
12.600999999998455,-0.014751873748856493,-0.4370305249827947
12.800999999998345,-0.020329466527819473,-0.41025117686797086
13.000999999998234,-0.02372611205357281,-0.3861605891761765
13.200999999998123,-0.02282281858716566,-0.35169483861594436
13.400999999998012,-0.018848403411710762,-0.31004666052727553
13.600999999997901,-0.007462638898470622,-0.2673585462059902
13.80099999999779,0.006846892317660664,-0.22659771008786467
14.00099999999768,0.022811123597446022,-0.19289690073582763
14.200999999997569,0.0360498572378604,-0.16111660991355423
14.400999999997458,0.04785616728231134,-0.12775841426354168
14.600999999997347,0.0685188229442011,-0.09746745608670865
14.800999999997236,0.09346491616634862,-0.07097889886504548
15.000999999997125,0.11068994546804986,-0.04635955553048462
15.200999999997014,0.13422037484596747,-0.025006540361288496
15.400999999996904,0.16004100802567556,-0.010249587215382543
15.600999999996793,0.2009674329775323,-0.0001017604891715138
15.800999999996682,0.24537498705624128,0.009294451364099957
16.000999999996573,0.30148628228321345,0.008376710631712518
16.200999999996817,0.3515210677374954,0.0049630014450542095
16.40099999999706,0.3917833456263555,0.0027561039204887865
16.600999999997306,0.4172519436373145,-0.007808674787428608
16.80099999999755,0.4324917241501017,-0.03103837488988365
17.000999999997795,0.444760287673266,-0.06338795861383408
17.20099999999804,0.4500681811552912,-0.09834672407239535
17.400999999998284,0.44783744571069933,-0.1333276502972089
17.60099999999853,0.43563371838040454,-0.17381219539503626
17.800999999998773,0.425108975506901,-0.21126758233955542
18.000999999999017,0.4116391725041881,-0.2526531044581931
18.20099999999926,0.40281909425292745,-0.2866129469475206
18.400999999999506,0.39281853129260735,-0.3206094663689792
18.60099999999975,0.3872433215439569,-0.3567764399656937
18.799999999999994,0.37126201169023726,-0.4078788511214264
19.000000000000238,0.3569761447088362,-0.46043051186403855
19.200000000000482,0.3487031631792402,-0.5021454910426342
19.400000000000727,0.33923596881374357,-0.5443142792470625
19.60000000000097,0.33547390946471944,-0.5850234261765365
19.800000000001216,0.3366024132481531,-0.6172590061374432
20.00000000000146,0.3254762630103342,-0.6473634798242329
