Time (s),X (m),Y (m)
0.001,0.0005727611008870025,-0.0009689812320744441
0.20000000000000015,0.0010995621949363343,0.005362517220803954
0.4000000000000003,0.002546194640465868,0.01978226924371085
0.6000000000000004,0.009859349864793338,0.02480234716580862
0.8000000000000006,0.026889278047049287,0.019379620965983245
1.0000000000000007,0.04858190990628822,0.020816565765220237
1.2009999999999785,0.06812495425277279,0.013364853418906678
1.4009999999999565,0.09558329648499708,0.0001532756953922276
1.6009999999999345,0.12055911814640256,-0.01681805595491904
1.8009999999999124,0.14116917746292987,-0.040475273890719574
2.0009999999998906,0.16302159036899613,-0.06889653786784823
2.2009999999998686,0.18712664854561184,-0.09264165250086315
2.4009999999998466,0.20376847432124598,-0.10836680705617348
2.6009999999998246,0.21812211224103922,-0.11881512576786786
2.8009999999998025,0.23593079946004908,-0.13760386638896172
3.0009999999997805,0.26655522491671996,-0.13698340871594264
3.2009999999997585,0.2996801963848508,-0.1532441905382028
3.4009999999997365,0.3243150392832538,-0.16412694347173568
3.6009999999997144,0.344458218147701,-0.18421495185803516
3.8009999999996924,0.35931535815764437,-0.2026539754568214
4.000999999999671,0.375500842756329,-0.23290946147022915
4.200999999999738,0.4040040445965643,-0.2564069072742679
4.400999999999804,0.43263424521665034,-0.27274283382046854
4.600999999999871,0.45785246773187405,-0.2920523627181791
4.800999999999938,0.4875403135472994,-0.3250546464352691
5.000000000000004,0.5141338462031436,-0.3509490829648142
5.200000000000071,0.5468984837341893,-0.3800714894003963
5.400000000000138,0.5805507357245632,-0.41407117210659244
5.600000000000205,0.6074436894713314,-0.4496000031534946
5.800000000000272,0.631750771494327,-0.48151355575607074
6.000000000000338,0.6487969282563887,-0.5070960937107821
6.200000000000405,0.6724284131037992,-0.5346697680565259
6.400000000000472,0.7000823120068796,-0.5522649859477282
6.600000000000539,0.7293998217379157,-0.5672550044113515
6.800000000000606,0.7622307770533833,-0.5759673647083584
7.000000000000672,0.7875712212664673,-0.5939456495818127
7.200000000000739,0.805721810109926,-0.6143370291278186
7.400000000000806,0.8338174620548825,-0.6224168445612832
7.600000000000873,0.857052144541047,-0.6274015442716526
7.8000000000009395,0.8878900497745252,-0.6430363149674941
8.000000000001005,0.9177079235441752,-0.6536421648544137
8.200000000000895,0.9470930500313125,-0.6690738275840211
8.400000000000784,0.9699742386441332,-0.6902223048752604
8.600000000000673,0.9940548884666067,-0.6996157646549077
8.800000000000562,1.0198543791220398,-0.7112436029651508
9.000000000000451,1.0473920690902965,-0.7277787229439411
9.20000000000034,1.0824159913257634,-0.7433853665010131
9.40000000000023,1.1197470872715574,-0.7640224940595094
9.600000000000119,1.150596917323124,-0.7934497737519246
9.800000000000008,1.1792132603127214,-0.8192466531565612
10.000999999999896,1.2049229171591207,-0.8470938918387779
10.200999999999786,1.2176769935800078,-0.8761810756372193
10.400999999999675,1.2304760616591606,-0.9101859101501164
10.600999999999564,1.2371918307292067,-0.9464712203718837
10.800999999999453,1.230037796981542,-0.9854464611799189
11.000999999999342,1.2296906916286916,-1.027921003856439
11.200999999999231,1.2278832780240507,-1.0665545042096658
11.40099999999912,1.2345468311681849,-1.0997069708782574
11.60099999999901,1.2233675622047444,-1.1287688946349859
11.800999999998899,1.1972509583173672,-1.1510024002498012
12.000999999998788,1.1760122730347904,-1.174718753078396
12.200999999998677,1.1575675684436162,-1.2017408807049574
12.400999999998566,1.1480262150512142,-1.2286068141583293
12.600999999998455,1.1230880287114196,-1.256662239434991
12.800999999998345,1.1040350932135277,-1.2821844537110347
13.000999999998234,1.0855972391730573,-1.304750865820949
13.200999999998123,1.0719047970484268,-1.3292848760919949
13.400999999998012,1.057074011450878,-1.359871089924181
13.600999999997901,1.054349188307016,-1.3944947671510894
13.80099999999779,1.0417446749024628,-1.4272207212505739
14.00099999999768,1.0183907976732354,-1.4552855069471242
14.200999999997569,0.9926055010521654,-1.4818879151269382
14.400999999997458,0.9801784882825284,-1.5136420258978396
14.600999999997347,0.9519927804658532,-1.5476020003411979
14.800999999997236,0.9217935762226506,-1.5748349925260208
15.000999999997125,0.9154795936104005,-1.603580085493711
15.200999999997014,0.921324641322954,-1.6356637791895068
15.400999999996904,0.9207312305734514,-1.6738290520024968
15.600999999996793,0.9276060873199793,-1.7039234364492222
15.800999999996682,0.9274418009679457,-1.7308483486928279
16.000999999996573,0.9093220989881313,-1.7584129580903292
16.200999999996817,0.8639974576187781,-1.7783147776269503
16.40099999999706,0.8384180818185019,-1.8019223344270663
16.600999999997306,0.8190728810022391,-1.8362595089712865
16.80099999999755,0.7858928908778692,-1.861222025241599
17.000999999997795,0.7471825968714458,-1.8796352987387712
17.20099999999804,0.7088470762921144,-1.8990875215042324
17.400999999998284,0.6764504785123617,-1.923441407254634
17.60099999999853,0.6434692287835528,-1.9407574414801028
17.800999999998773,0.611362787936865,-1.9612288718054076
18.000999999999017,0.5764812306710189,-1.9750239319438387
18.20099999999926,0.5359718958020457,-1.9697273327971532
18.400999999999506,0.5005153778227887,-1.955873923390642
18.60099999999975,0.48023741763104494,-1.9280918213982379
18.799999999999994,0.45598329620563105,-1.8995189304079316
19.000000000000238,0.43231212516046336,-1.8719145635942924
19.200000000000482,0.41352214147813887,-1.844949735409341
19.400000000000727,0.40584387885565076,-1.8042592029651154
19.60000000000097,0.39562167976264484,-1.76570132553209
19.800000000001216,0.3869124583560895,-1.7208687103975808
20.00000000000146,0.3633367429628004,-1.691927436073269
