Time (s),X (m),Y (m)
0.001,0.0001302085367132322,-0.0010272443824616275
0.20000000000000015,0.004225767007028901,0.006098389982189511
0.4000000000000003,0.010023866483750282,0.01742572082376438
0.6000000000000004,0.021922787549068064,0.031474974820997835
0.8000000000000006,0.036911196495463025,0.03401197721059423
1.0000000000000007,0.06239490271146248,0.018705866179800423
1.2009999999999785,0.08738944466674842,0.011922759197617244
1.4009999999999565,0.12096604409040886,0.013933209927718434
1.6009999999999345,0.15762297646323079,0.018044873765976816
1.8009999999999124,0.1802213601191954,0.00687073358726745
2.0009999999998906,0.21207541258753979,-0.005326358357531424
2.2009999999998686,0.2406774383275494,-0.02062985270061436
2.4009999999998466,0.26630652483005923,-0.034036094942390745
2.6009999999998246,0.2874308591632527,-0.055735322182837825
2.8009999999998025,0.3123061673649398,-0.08066529741936597
3.0009999999997805,0.33871596681858257,-0.10840999803852228
3.2009999999997585,0.36616625635569805,-0.13457951475882188
3.4009999999997365,0.4057576711410211,-0.16204473088257057
3.6009999999997144,0.4273550601754232,-0.19150937693843617
3.8009999999996924,0.44277956228502763,-0.22139147567745843
4.000999999999671,0.45393835879311334,-0.25398767224799695
4.200999999999738,0.4656984658858011,-0.28958988280295156
4.400999999999804,0.48288621192086456,-0.3292186490414793
4.600999999999871,0.48308090114726626,-0.37029237428407985
4.800999999999938,0.4866982376739484,-0.4110016128760691
5.000000000000004,0.4774604907430398,-0.4486231116948751
5.200000000000071,0.4537287295215015,-0.47939817652780586
5.400000000000138,0.4395620506644323,-0.5071046535235918
5.600000000000205,0.4374135690016419,-0.544808326711516
5.800000000000272,0.4276260197163501,-0.5792279991221537
6.000000000000338,0.42521416711823357,-0.6162197781669247
6.200000000000405,0.420866440335728,-0.6521718746486076
6.400000000000472,0.4206618367971218,-0.6855187442041419
6.600000000000539,0.42235738045911925,-0.7200844937102592
6.800000000000606,0.40850929182977175,-0.7518733987880846
7.000000000000672,0.3912535218987472,-0.7830023110122534
7.200000000000739,0.3798838522118871,-0.8135050993047572
7.400000000000806,0.35250942333287333,-0.8393284434869569
7.600000000000873,0.3355063278046046,-0.865439447125036
7.8000000000009395,0.3208076033928553,-0.904394112708895
8.000000000001005,0.3028771605659427,-0.9378520978871895
8.200000000000895,0.2910587673481988,-0.9728611853562037
8.400000000000784,0.2630101413397827,-0.9971671239553727
8.600000000000673,0.22787595444069267,-1.0145000395170556
8.800000000000562,0.1946709978909993,-1.0374339799511139
9.000000000000451,0.16620132164538362,-1.0695550742168989
9.20000000000034,0.13283984967294693,-1.0900923857970812
9.40000000000023,0.0950839900289223,-1.0875023569705595
9.600000000000119,0.05647872907169657,-1.0784952596515756
9.800000000000008,0.017060771400326028,-1.079926517898563
10.000999999999896,-0.024169102716666672,-1.06564288720594
10.200999999999786,-0.06403275664352508,-1.0570474513712116
10.400999999999675,-0.10776198413781318,-1.053705146848357
10.600999999999564,-0.15070547990251956,-1.0328317123739743
10.800999999999453,-0.1939982772378911,-1.0153519151680872
11.000999999999342,-0.22975110903425283,-0.9996369367647465
11.200999999999231,-0.261231105692874,-0.9718715299345208
11.40099999999912,-0.2969281159732789,-0.9449711959606686
11.60099999999901,-0.33068063803595604,-0.9266502045363154
11.800999999998899,-0.3726747099979232,-0.9154180284997341
12.000999999998788,-0.4117791291350216,-0.9017629934158161
12.200999999998677,-0.44564462332173016,-0.8847198966278698
12.400999999998566,-0.47997057614487976,-0.8656521353952724
12.600999999998455,-0.5217345993336951,-0.8412117983292292
12.800999999998345,-0.5642624560901129,-0.818474095820071
13.000999999998234,-0.5970150579402881,-0.7940967346550329
13.200999999998123,-0.626195561762844,-0.7650721847256232
13.400999999998012,-0.6690338063280751,-0.7424158625151763
13.600999999997901,-0.711869024673205,-0.730334661097663
13.80099999999779,-0.739929000269703,-0.7079290418982893
14.00099999999768,-0.7556712395034058,-0.6845756191275294
14.200999999997569,-0.7761297395394688,-0.651408521727789
14.400999999997458,-0.7701730090887159,-0.6128698580605358
14.600999999997347,-0.7635452599233943,-0.5703356344225454
14.800999999997236,-0.761520591738435,-0.5254025155860178
15.000999999997125,-0.7543666379980485,-0.47919428155950455
15.200999999997014,-0.7410409460841559,-0.43839934861731916
15.400999999996904,-0.7265375556736718,-0.39758290940669117
15.600999999996793,-0.7016188211658785,-0.36144493099702
15.800999999996682,-0.6751086343631284,-0.3186420469682564
16.000999999996573,-0.6526816684676264,-0.28309732774407037
16.200999999996817,-0.6222297149396455,-0.2577759882254534
16.40099999999706,-0.5895502176994101,-0.24202982818852634
16.600999999997306,-0.5533805570804414,-0.22318050066955664
16.80099999999755,-0.5116602732456407,-0.21838399475268883
17.000999999997795,-0.4695334581547953,-0.21173972326576493
17.20099999999804,-0.4229390016165583,-0.2191453703019678
17.400999999998284,-0.3719332437340731,-0.21120867125401302
17.60099999999853,-0.3176329492110679,-0.20007921356374572
17.800999999998773,-0.268252560625423,-0.20341450185944043
18.000999999999017,-0.22084015792527864,-0.2107381574810719
18.20099999999926,-0.16776610186368432,-0.20531071418948355
18.400999999999506,-0.12096909841419198,-0.20279402487160117
18.60099999999975,-0.08013425858703935,-0.2107701320406299
18.799999999999994,-0.037098028423288174,-0.2285190222432197
19.000000000000238,0.005476380941604956,-0.256390909402481
19.200000000000482,0.04901280618577861,-0.2815663754683589
19.400000000000727,0.09078490925743081,-0.3010493917927081
19.60000000000097,0.1408585710612037,-0.3137787070480201
19.800000000001216,0.185110293279814,-0.323594942083104
20.00000000000146,0.22769153188537714,-0.33639817948875245
