Time (s),X (m),Y (m)
0.001,-0.0002955033697106609,-0.00089301793395481
0.20000000000000015,0.006718063864416225,0.004951450137174055
0.4000000000000003,0.014146435072253648,0.0054811384373746235
0.6000000000000004,0.026460956121947415,0.001900066545525208
0.8000000000000006,0.044354222641971565,0.0122238809563923
1.0000000000000007,0.059879674775609674,0.010976954234231713
1.2009999999999785,0.08340129374063948,0.010289768289629993
1.4009999999999565,0.11054676602740655,0.003244478912935696
1.6009999999999345,0.1338293254228941,0.019425311700913037
1.8009999999999124,0.1598655604827495,0.02365519669782956
2.0009999999998906,0.1902912549467613,0.051712121715336436
2.2009999999998686,0.22808181761806764,0.07412614504254894
2.4009999999998466,0.2667803112368663,0.0827439753163768
2.6009999999998246,0.30406645797218923,0.09322827127997584
2.8009999999998025,0.32906939880175945,0.08372145791938433
3.0009999999997805,0.36310746057812227,0.07674432572287151
3.2009999999997585,0.39903756419032405,0.07694907925989183
3.4009999999997365,0.4374086818195813,0.0821714754599324
3.6009999999997144,0.46623125003406296,0.08550087848572516
3.8009999999996924,0.49896052881842967,0.09892178029212409
4.000999999999671,0.5315210753165165,0.10655101208683626
4.200999999999738,0.5677988521731896,0.13083394489889638
4.400999999999804,0.6015174729054262,0.15678868213127342
4.600999999999871,0.6342681039919216,0.17128910399891936
4.800999999999938,0.6657107397630907,0.1939563573052479
5.000000000000004,0.6987601287068799,0.21491017143497315
5.200000000000071,0.7290940472352518,0.24814922857360244
5.400000000000138,0.7621062153754858,0.2768061706613886
5.600000000000205,0.7967118191936311,0.30896814991594773
5.800000000000272,0.8338067386983671,0.3386792789233199
6.000000000000338,0.8725443508747418,0.3694727324367858
6.200000000000405,0.9099996247523185,0.37870073626310286
6.400000000000472,0.9384261363622085,0.3910647182156536
6.600000000000539,0.9729147339534299,0.4044657122885997
6.800000000000606,1.0078099612463138,0.4062154945522456
7.000000000000672,1.0436565375744946,0.4141555644557733
7.200000000000739,1.0793120021534108,0.4412672392263809
7.400000000000806,1.1148697693346317,0.4691509987957655
7.600000000000873,1.1518552261301547,0.4976534340186915
7.8000000000009395,1.1894301545092536,0.534551348047584
8.000000000001005,1.2273262096646609,0.5666270852138532
8.200000000000895,1.2626097141725035,0.608405376083273
8.400000000000784,1.301142388035722,0.6280706051521208
8.600000000000673,1.3355683964107978,0.6486725644310913
8.800000000000562,1.3701206427521295,0.6761649689371513
9.000000000000451,1.396949763714093,0.6998531502482914
9.20000000000034,1.42148008951367,0.7322645511784467
9.40000000000023,1.4451581831288824,0.7649790819763219
9.600000000000119,1.473579521434089,0.8114952030196908
9.800000000000008,1.5131463279068242,0.8456786186235434
10.000999999999896,1.544229561198524,0.8697986039113447
10.200999999999786,1.5759882407387105,0.8965584899172271
10.400999999999675,1.6038949289232531,0.9297158162785255
10.600999999999564,1.635555702133345,0.9603317693673108
10.800999999999453,1.6674246636338768,0.978292422138916
11.000999999999342,1.702383031016095,0.9879741733087639
11.200999999999231,1.7299397322340915,1.0156011273220817
11.40099999999912,1.7502846237301006,1.0499364646163232
11.60099999999901,1.7645167736343776,1.093573618914995
11.800999999998899,1.7835244781446808,1.1284643835587722
12.000999999998788,1.8016690681262846,1.1579059864232057
12.200999999998677,1.8210976720599503,1.1917638676467697
12.400999999998566,1.8412718586825545,1.2410224601991273
12.600999999998455,1.8670965277089417,1.2739210531588505
12.800999999998345,1.8933810918370901,1.3137226269343654
13.000999999998234,1.9216074921465314,1.3532980915452686
13.200999999998123,1.9419632621338179,1.4044125821634068
13.400999999998012,1.9630506787207969,1.4470806863713164
13.600999999997901,1.9934477740676662,1.4749341932493032
13.80099999999779,2.0247581796525163,1.508210282311164
14.00099999999768,2.064780555697245,1.5464328824828517
14.200999999997569,2.1131841584535924,1.577672910727351
14.400999999997458,2.1579447112189354,1.6070596422394885
14.600999999997347,2.1995222324730683,1.6296990963929172
14.800999999997236,2.2337737645389173,1.6620811380868907
15.000999999997125,2.2673364675802046,1.6967242725102796
15.200999999997014,2.297517847183652,1.7409123792271357
15.400999999996904,2.324278096711065,1.7819297993490797
15.600999999996793,2.336220822591646,1.8376205922475635
15.800999999996682,2.335749410612907,1.8918481909602438
16.000999999996573,2.332824854674614,1.9342088314022674
16.200999999996817,2.327999689607917,1.9834207004101312
16.40099999999706,2.32664161667987,2.0239047534615313
16.600999999997306,2.331982674542812,2.0573314668267515
16.80099999999755,2.346718811849808,2.079441052710176
17.000999999997795,2.3718787144394198,2.118516102608573
17.20099999999804,2.3997807787108307,2.153631170679227
17.400999999998284,2.4339067949926583,2.186181217770063
17.60099999999853,2.4701592687156984,2.2106357476800595
17.800999999998773,2.4951461636586956,2.253755159923843
18.000999999999017,2.514367135223381,2.2965017908593772
18.20099999999926,2.531706068019314,2.3522977806447045
18.400999999999506,2.550066550263473,2.395546570087001
18.60099999999975,2.5707889636787664,2.4300290972267002
18.799999999999994,2.589435580454673,2.4594775144219927
19.000000000000238,2.6003330853244884,2.5082921696549842
19.200000000000482,2.6088454047630534,2.5572282598341727
19.400000000000727,2.6121522246615436,2.6018914192379707
19.60000000000097,2.616321313377526,2.6472733857295823
19.800000000001216,2.6224307161899034,2.690759857746721
20.00000000000146,2.630656453251036,2.731023571401893
