Time (s),X (m),Y (m)
0.001,0.0011130987088041246,0.0005155841445599734
0.20000000000000015,-0.00451083872354918,-0.002648584984160792
0.4000000000000003,-0.006462791994440954,-0.006014261732519126
0.6000000000000004,-0.004588075060295201,-0.002376723339524504
0.8000000000000006,0.0025699895295192027,-0.0003161522581798983
1.0000000000000007,0.014959232965152,-0.005310116221498775
1.2009999999999785,0.029155732371874944,-0.008038378293511839
1.4009999999999565,0.05006146036953212,-0.0029961431444455165
1.6009999999999345,0.06329327534619497,0.005544477340928326
1.8009999999999124,0.07475617177303485,0.008230756295825429
2.0009999999998906,0.08287874180094303,0.018369896187227935
2.2009999999998686,0.10521454872832668,0.03730990338460015
2.4009999999998466,0.12987890022858864,0.04408584392536443
2.6009999999998246,0.15627239287724046,0.05541663092339736
2.8009999999998025,0.17659559573974856,0.06826461552478366
3.0009999999997805,0.2058262858068882,0.08039827144751373
3.2009999999997585,0.22514081985451728,0.0831069573982741
3.4009999999997365,0.23913499740407482,0.07839314766622967
3.6009999999997144,0.2571128697543301,0.07957631614939444
3.8009999999996924,0.26500612825369807,0.07478013579504802
4.000999999999671,0.2849141424173101,0.07000185426480172
4.200999999999738,0.31239425302499924,0.06871384939104509
4.400999999999804,0.33019694668201943,0.06529896401029436
4.600999999999871,0.3539050610695355,0.05968551445225348
4.800999999999938,0.38571585236635403,0.05970723357281253
5.000000000000004,0.4117457007827083,0.05058781015936187
5.200000000000071,0.44154943463202184,0.03929085090057799
5.400000000000138,0.4719707535595192,0.022898244258016582
5.600000000000205,0.49397960787661627,0.0059873504152188695
5.800000000000272,0.5264118519163673,-0.011604453713352145
6.000000000000338,0.5580130977196187,-0.02954160371739811
6.200000000000405,0.5806241583745005,-0.05316701329997815
6.400000000000472,0.6117595729262054,-0.06944181912633586
6.600000000000539,0.6376551999344955,-0.08158117926016152
6.800000000000606,0.6555096967994051,-0.09463092299541127
7.000000000000672,0.6735266800702091,-0.1109644309723616
7.200000000000739,0.6943886723281104,-0.13094847406738638
7.400000000000806,0.7121111536109136,-0.14884712843912495
7.600000000000873,0.7367966629551211,-0.16145627551171426
7.8000000000009395,0.7722207978443452,-0.16943636414953675
8.000000000001005,0.8021215331347056,-0.17950422236732652
8.200000000000895,0.8294630169464191,-0.2009653838960488
8.400000000000784,0.8634175413547319,-0.2156759973351123
8.600000000000673,0.8949381175405673,-0.22276784370115876
8.800000000000562,0.9201576610392632,-0.23325521076123165
9.000000000000451,0.954214574111534,-0.24442896606817766
9.20000000000034,0.9766047094876805,-0.26110067877101745
9.40000000000023,0.9980314065264827,-0.2788297765405542
9.600000000000119,1.0139661342606345,-0.2937016951809104
9.800000000000008,1.036333916194118,-0.30794840863225115
10.000999999999896,1.0641668716664197,-0.32443611795607225
10.200999999999786,1.0977872767288144,-0.33638688046311127
10.400999999999675,1.125782448420938,-0.3513901566595946
10.600999999999564,1.1524016861764896,-0.3681156220186782
10.800999999999453,1.1774215853216718,-0.3832125580860391
11.000999999999342,1.2041610117396948,-0.40148222643139175
11.200999999999231,1.219896339850938,-0.4127492686107986
11.40099999999912,1.237742041079018,-0.4296445636067161
11.60099999999901,1.2672462114278715,-0.44389755102173517
11.800999999998899,1.3025718621993474,-0.45984898753504133
12.000999999998788,1.3281837296913446,-0.47743364792741083
12.200999999998677,1.3558324099244754,-0.49188967094172575
12.400999999998566,1.39058856612199,-0.5072608684540238
12.600999999998455,1.417476576204677,-0.5200439695936542
12.800999999998345,1.4397613345487366,-0.529641633822066
13.000999999998234,1.4592146361413603,-0.5446451506421772
13.200999999998123,1.4839431057411379,-0.5645582169586312
13.400999999998012,1.5114818538949295,-0.586772203705428
13.600999999997901,1.535184976009424,-0.6126809930138737
13.80099999999779,1.561604384341145,-0.6402802298177761
14.00099999999768,1.5995626342589473,-0.6701006029304459
14.200999999997569,1.639139697310797,-0.6958078038073751
14.400999999997458,1.6587563820360633,-0.7193829764271189
14.600999999997347,1.681153172145502,-0.7409009935776444
14.800999999997236,1.7172025803677078,-0.7605479637998346
15.000999999997125,1.7548996237281158,-0.7770625162135374
15.200999999997014,1.7843608235870496,-0.7912818875591261
15.400999999996904,1.8210158355340678,-0.8043267115573045
15.600999999996793,1.8555518807064768,-0.8120387736014066
15.800999999996682,1.8935363868353012,-0.8195248233290537
16.000999999996573,1.9331679877289598,-0.8280127436928703
16.200999999996817,1.9682075766078462,-0.8398106043003478
16.40099999999706,2.019717386740321,-0.845739267181259
16.600999999997306,2.060258057500546,-0.8509798396762712
16.80099999999755,2.097478923705576,-0.8640333578544172
17.000999999997795,2.130524951089518,-0.8879292919592041
17.20099999999804,2.1592942802452546,-0.9223207685364403
17.400999999998284,2.1875823781993495,-0.9645776937057291
17.60099999999853,2.221475204139521,-1.0055916680879584
17.800999999998773,2.251099101114779,-1.0479963663775653
18.000999999999017,2.2856089109947644,-1.0884351848966234
18.20099999999926,2.3295034805776274,-1.1262467434730117
18.400999999999506,2.369620197402093,-1.1619001468779488
18.60099999999975,2.4073897462885783,-1.196958136969876
18.799999999999994,2.436497359627372,-1.2342852678552758
19.000000000000238,2.462650917187779,-1.2753243692134915
19.200000000000482,2.4904089391330704,-1.3199362979661757
19.400000000000727,2.5171753086087634,-1.3577421826418081
19.60000000000097,2.5515494717043814,-1.3844601049368987
19.800000000001216,2.588819418526654,-1.4019499021738058
20.00000000000146,2.6264692115535397,-1.4141696782267468
