Time (s),X (m),Y (m)
0.001,0.0008829029745972832,0.0007899207378008392
0.20000000000000015,-0.0014439814576673478,-0.0034368619901959338
0.4000000000000003,-0.0034693694433196955,-0.008285858123900414
0.6000000000000004,0.0029168969957316772,-0.0055764843471580484
0.8000000000000006,0.012811708599376841,-0.006270739941888719
1.0000000000000007,0.024043553994143683,-0.003848227271272376
1.2009999999999785,0.03600312030245279,-0.002598809490090392
1.4009999999999565,0.046628177458316517,0.0035398214850602804
1.6009999999999345,0.060815627732989055,0.00023721508890492133
1.8009999999999124,0.07666315851424829,0.0037686148214525535
2.0009999999998906,0.09864911265695848,0.009319649399279144
2.2009999999998686,0.11436261017005293,0.016884038679479393
2.4009999999998466,0.1277945457525158,0.029429646291973192
2.6009999999998246,0.14519163582164749,0.03869684492352916
2.8009999999998025,0.1560583734538904,0.04656638720788915
3.0009999999997805,0.17323423044697991,0.04536988047935433
3.2009999999997585,0.19138888487726963,0.04503791081166707
3.4009999999997365,0.20689826908008305,0.054594071723409215
3.6009999999997144,0.2223249605111687,0.06381780055268467
3.8009999999996924,0.2409918426610859,0.06938093918042691
4.000999999999671,0.262100911507959,0.08119738654808582
4.200999999999738,0.28341311369869177,0.08783990027053852
4.400999999999804,0.3059884890267177,0.09190929623922961
4.600999999999871,0.32847719687236765,0.10442046669265259
4.800999999999938,0.34593558212519393,0.11574005924902046
5.000000000000004,0.366121209351239,0.11525480518289065
5.200000000000071,0.38988208968339866,0.12336331177669649
5.400000000000138,0.41152860563303184,0.13140970866354526
5.600000000000205,0.43104052258666425,0.1470146766595507
5.800000000000272,0.4466848092310445,0.17358891224066844
6.000000000000338,0.4680259047771114,0.19257117105334837
6.200000000000405,0.4870280431518694,0.19949192577257233
6.400000000000472,0.49992578664480697,0.2220250357073508
6.600000000000539,0.5164588351436292,0.24240121110515359
6.800000000000606,0.5323569211411198,0.25410191302622154
7.000000000000672,0.552409299154633,0.2635334974684419
7.200000000000739,0.5718244920907837,0.27680779175336084
7.400000000000806,0.591992131781938,0.2909537367698034
7.600000000000873,0.6098113140425359,0.29621025614765395
7.8000000000009395,0.6225739648070364,0.3011943751554557
8.000000000001005,0.6360749508373233,0.3061065286740775
8.200000000000895,0.6540094789196846,0.31889906374963917
8.400000000000784,0.6705406620760417,0.342553172387456
8.600000000000673,0.688094188894926,0.36010348045420615
8.800000000000562,0.7053758878978381,0.38011055973954216
9.000000000000451,0.7217024837682091,0.3934829787731765
9.20000000000034,0.7375705732767069,0.4055686526445337
9.40000000000023,0.757551852177086,0.4191659792115646
9.600000000000119,0.7766491532731514,0.4380330090573825
9.800000000000008,0.7913055160292232,0.4530636996512872
10.000999999999896,0.8075964265290638,0.46952352511986206
10.200999999999786,0.826986029109052,0.4951602789316671
10.400999999999675,0.8449845270298192,0.5165262731272167
10.600999999999564,0.858829330348283,0.5269053730150004
10.800999999999453,0.8699800473282961,0.5390192012511267
11.000999999999342,0.8850323892590636,0.5596116669088198
11.200999999999231,0.904883287790363,0.5694741591356393
11.40099999999912,0.9201962636513596,0.5827727711859692
11.60099999999901,0.9401334470570591,0.5983828683194973
11.800999999998899,0.9652336532483112,0.6110443761660739
12.000999999998788,0.9826771157628227,0.6296388722139318
12.200999999998677,1.0014979663927766,0.647378862532307
12.400999999998566,1.0233545356039084,0.672353029198966
12.600999999998455,1.0458156943304002,0.6884284584933817
12.800999999998345,1.0623378616765105,0.7093355436859755
13.000999999998234,1.0711318601691628,0.7274505059289604
13.200999999998123,1.0896727838367026,0.7422981551199946
13.400999999998012,1.106868990735752,0.7587035340895931
13.600999999997901,1.1259435332324992,0.7865479112561473
13.80099999999779,1.147733321112196,0.8054456995211821
14.00099999999768,1.1645628386610982,0.8324001144942594
14.200999999997569,1.177155589204907,0.8626089550765231
14.400999999997458,1.1892217177924966,0.8814437386000541
14.600999999997347,1.1963093813178693,0.8987053526392133
14.800999999997236,1.2084596485569008,0.9140857784305065
15.000999999997125,1.2290476814773497,0.9297295526178597
15.200999999997014,1.247742968872537,0.9472427115672793
15.400999999996904,1.2602174925014036,0.9757392149431585
15.600999999996793,1.2741016451647484,1.0009955009880502
15.800999999996682,1.2877839452931577,1.0204504669758268
16.000999999996573,1.3055499546037261,1.0465957779031796
16.200999999996817,1.3217125876040867,1.0700673062041408
16.40099999999706,1.3345996642079954,1.0872012889525058
16.600999999997306,1.3424359186513526,1.1090307225037626
16.80099999999755,1.3481126380612314,1.130241225285706
17.000999999997795,1.3560811269222097,1.1495945812578314
17.20099999999804,1.3670343552901703,1.1681098863305168
17.400999999998284,1.3840376705293145,1.1904617035561773
17.60099999999853,1.3938432564935583,1.2198487734799894
17.800999999998773,1.398439244868964,1.2405612584777734
18.000999999999017,1.4064295909279962,1.2648140352677808
18.20099999999926,1.4083914107437758,1.294009645036342
18.400999999999506,1.4081156360003282,1.3133589999229953
18.60099999999975,1.4148778294843687,1.3314696270788762
18.799999999999994,1.4176155807223758,1.356514576730447
19.000000000000238,1.422932049868683,1.3760459938964238
19.200000000000482,1.4293559491338528,1.3988517632114295
19.400000000000727,1.431579120856877,1.426373580808561
19.60000000000097,1.4350670986001506,1.447679972022928
19.800000000001216,1.4357953240079089,1.4708851504851437
20.00000000000146,1.442043146050256,1.493605816167194
