Time (s),X (m),Y (m)
0.001,0.0006558713247593165,0.0009345558501746678
0.20000000000000015,6.787800091283169e-05,-0.003689002837050585
0.4000000000000003,0.0027143727981587358,-0.006055905066741645
0.6000000000000004,0.01005880335647696,-0.003314479871376985
0.8000000000000006,0.018359954990372535,-0.009160780085730362
1.0000000000000007,0.03365641963844534,-0.004665131777073266
1.2009999999999785,0.051698409864945886,-0.0002455793002422308
1.4009999999999565,0.06991510883632004,-0.010453603421634997
1.6009999999999345,0.08842268552412934,-0.016039425571150612
1.8009999999999124,0.10882409564582586,-0.010541798933117123
2.0009999999998906,0.12586473987130842,-0.005014369285170955
2.2009999999998686,0.14524853440858757,-0.005044811094218059
2.4009999999998466,0.1698566849790965,-8.410098642528568e-05
2.6009999999998246,0.19612409742026599,-0.007184383140420412
2.8009999999998025,0.22639310436058735,0.005822533970870703
3.0009999999997805,0.24979990854476194,0.010549579509837325
3.2009999999997585,0.2694525626788769,0.013374714850585327
3.4009999999997365,0.2942891323204669,0.021799076937815597
3.6009999999997144,0.3206440447829966,0.030919676721772385
3.8009999999996924,0.34445631691800155,0.031063794935954604
4.000999999999671,0.36696251893108,0.03207831624695455
4.200999999999738,0.38956112449338676,0.037195410191636816
4.400999999999804,0.4108264295310639,0.03650670570817474
4.600999999999871,0.43469329535346213,0.044545191729858345
4.800999999999938,0.45541808425837127,0.04766176216661454
5.000000000000004,0.4800457751477863,0.05554041970484377
5.200000000000071,0.5072229744306538,0.057583734308588076
5.400000000000138,0.5298832200801875,0.07270484491595577
5.600000000000205,0.5562716849714692,0.09061190230776531
5.800000000000272,0.5804854077803833,0.10892439369299102
6.000000000000338,0.6096461085360574,0.11531339569499664
6.200000000000405,0.633497695795513,0.11541623912927847
6.400000000000472,0.6617916164110467,0.1231399637267721
6.600000000000539,0.6856884258576859,0.1390216404398027
6.800000000000606,0.708648762484438,0.1458725689795194
7.000000000000672,0.7338706702451729,0.15452717403239455
7.200000000000739,0.7637764796497214,0.1663915805756736
7.400000000000806,0.7920284817633745,0.17459927100314354
7.600000000000873,0.8191724923925663,0.18549326187351284
7.8000000000009395,0.848610724320416,0.1839400894737778
8.000000000001005,0.8705664243374179,0.2013678729958652
8.200000000000895,0.8932147072844776,0.2071976859219629
8.400000000000784,0.9167920885348578,0.2152146780775865
8.600000000000673,0.9416891832172962,0.227501966393232
8.800000000000562,0.9665164514221898,0.24807486782864613
9.000000000000451,0.9948906401849834,0.262165166797939
9.20000000000034,1.0190737664668774,0.2684360348701283
9.40000000000023,1.0433018364538398,0.2906404260043163
9.600000000000119,1.0611389491964422,0.3061221149103404
9.800000000000008,1.080197573678507,0.31857177885014565
10.000999999999896,1.1023349400998872,0.3285359717353094
10.200999999999786,1.1255455085286874,0.3502494799663573
10.400999999999675,1.154243002333508,0.36069658162755364
10.600999999999564,1.1736684711056045,0.3798094706952678
10.800999999999453,1.192606556200142,0.40028320259104816
11.000999999999342,1.2212237728156332,0.40523676232091227
11.200999999999231,1.2491919672562009,0.4036904015885413
11.40099999999912,1.2733163162090264,0.4118040032435182
11.60099999999901,1.2935770887726652,0.4272653418237079
11.800999999998899,1.3155890948359332,0.4454425740789898
12.000999999998788,1.3395602617652052,0.46144051986661755
12.200999999998677,1.3573446880396165,0.480949549376734
12.400999999998566,1.375882141831957,0.5096337877818479
12.600999999998455,1.392453747009408,0.5342136267466133
12.800999999998345,1.4099813181588272,0.5592065420884358
13.000999999998234,1.4299558978799987,0.5857977573489036
13.200999999998123,1.449735687222576,0.6154591284998271
13.400999999998012,1.4702515275118242,0.6417070909582651
13.600999999997901,1.4826044556836546,0.6724721618076491
13.80099999999779,1.5007740536771714,0.703068772966993
14.00099999999768,1.5161604698413822,0.7231588896032503
14.200999999997569,1.5331181982620894,0.7422721637368794
14.400999999997458,1.5516833633462257,0.7636466099219672
14.600999999997347,1.5732679404879926,0.7815579758547342
14.800999999997236,1.5932242612582255,0.7953329222044337
15.000999999997125,1.6125342956830524,0.8107464749883158
15.200999999997014,1.63124358127439,0.8251891370807282
15.400999999996904,1.646788953060516,0.8411369032752525
15.600999999996793,1.663458424475427,0.8604771751322442
15.800999999996682,1.6815150146951534,0.8826163148861637
16.000999999996573,1.7007985800870915,0.8987070466047095
16.200999999996817,1.7205633593942737,0.9202509307349278
16.40099999999706,1.7404328640531197,0.9511030017843585
16.600999999997306,1.7560814627458734,0.9616702691805394
16.80099999999755,1.778810227636847,0.9747810422642702
17.000999999997795,1.7998695723359301,0.9985121123470273
17.20099999999804,1.820971713457242,1.0235227169733505
17.400999999998284,1.8440855496950812,1.0378060520879377
17.60099999999853,1.8644519158510704,1.056758229222342
17.800999999998773,1.8873780315610618,1.093737004467601
18.000999999999017,1.9120787701319475,1.1138789674834737
18.20099999999926,1.938214978259213,1.1363241798297523
18.400999999999506,1.964038979821882,1.1487082297724691
18.60099999999975,1.9838077129257226,1.1683772173814413
18.799999999999994,2.0053846616959037,1.1756725468899665
19.000000000000238,2.027069645207665,1.1980311431056678
19.200000000000482,2.0513943854077445,1.21701979483272
19.400000000000727,2.075696215096262,1.2361175986914963
19.60000000000097,2.093561943381052,1.262981486543605
19.800000000001216,2.1054808461177137,1.3005752819097536
20.00000000000146,2.1184731601091684,1.3231383753481756
