Time (s),X (m),Y (m)
0.001,0.0009492268646305597,0.0007291460897812449
0.20000000000000015,-0.001460116278517025,-0.002839847601580786
0.4000000000000003,0.0001246486393119933,-0.0025760060503659584
0.6000000000000004,0.006112000799433214,0.0020776318867160772
0.8000000000000006,0.01677344566206129,0.005455350985143581
1.0000000000000007,0.03599028585182664,0.002983797018347678
1.2009999999999785,0.0446847907725255,-0.003618052813511397
1.4009999999999565,0.052295952859234725,-0.010025289311275585
1.6009999999999345,0.06340632917553966,-0.010499385525299379
1.8009999999999124,0.07582490890165193,-0.01484394821530073
2.0009999999998906,0.09168170123431364,-0.011893028855447992
2.2009999999998686,0.10804541259888183,0.0018856277505918898
2.4009999999998466,0.12407823729724564,0.012443217314237488
2.6009999999998246,0.13926559493179722,0.0228729298561204
2.8009999999998025,0.15509028572050093,0.031256542780198564
3.0009999999997805,0.17252354775182774,0.034718659381402686
3.2009999999997585,0.19545648151644773,0.04601711590717282
3.4009999999997365,0.21715304609474798,0.050469709906341476
3.6009999999997144,0.2427881903387261,0.054805373347421145
3.8009999999996924,0.26345912070804944,0.05646157585293578
4.000999999999671,0.27970381392636073,0.06622994762995214
4.200999999999738,0.29090325537821277,0.07447028712652064
4.400999999999804,0.31138692853259087,0.08581234426155462
4.600999999999871,0.33216091089702504,0.10783772593496305
4.800999999999938,0.35530327328193156,0.11368543420286972
5.000000000000004,0.3763820107428687,0.11727388661339838
5.200000000000071,0.3911140876029087,0.12934176036259143
5.400000000000138,0.4019706904969909,0.1386700966472577
5.600000000000205,0.41524369716533027,0.1498982851218804
5.800000000000272,0.430901516419198,0.16063017457409393
6.000000000000338,0.45107536089344435,0.17708351492030996
6.200000000000405,0.46926904746578235,0.19738548238062323
6.400000000000472,0.49127834276184373,0.20875520930105468
6.600000000000539,0.5108924083576108,0.22537618078388422
6.800000000000606,0.5331682329713426,0.2443478256959408
7.000000000000672,0.5506834942899327,0.2556938450161176
7.200000000000739,0.5690016535828035,0.2639556687279957
7.400000000000806,0.5839039542693005,0.2748160357967137
7.600000000000873,0.5968121935489088,0.29579826849163215
7.8000000000009395,0.6009223736195725,0.31057677493449865
8.000000000001005,0.6093286119712112,0.32323068011921363
8.200000000000895,0.624450050345435,0.34090366129905386
8.400000000000784,0.6467493897941912,0.35388803416142217
8.600000000000673,0.6671589374343728,0.3765331548224598
8.800000000000562,0.6877506196286984,0.3975105473551972
9.000000000000451,0.7124049655734588,0.41345696177772556
9.20000000000034,0.7299296820968572,0.42840730524397963
9.40000000000023,0.7402640893672953,0.44937576815193275
9.600000000000119,0.7495761572182956,0.47234696530215914
9.800000000000008,0.7602895386509245,0.4872723605162987
10.000999999999896,0.7715442990516053,0.49744175983040667
10.200999999999786,0.7852967013930753,0.5184049610848335
10.400999999999675,0.7985560843898294,0.5324337510575257
10.600999999999564,0.810917525948407,0.5482569744872617
10.800999999999453,0.8206468017885522,0.5652209512501813
11.000999999999342,0.8292198554844636,0.5813109977320232
11.200999999999231,0.836335900426869,0.603010019674356
11.40099999999912,0.8436711309258962,0.6303352187889025
11.60099999999901,0.8520205352216161,0.6596561024777686
11.800999999998899,0.8618676213764543,0.6842240703559338
12.000999999998788,0.8700251512341476,0.7081456616513605
12.200999999998677,0.8829813707357222,0.7317186143391877
12.400999999998566,0.8899869014970908,0.7499326247050522
12.600999999998455,0.899238860677167,0.7676243467067863
12.800999999998345,0.9044369638234165,0.7943335343861816
13.000999999998234,0.9102176749472405,0.8229194089708477
13.200999999998123,0.9130891049716849,0.8401526544865313
13.400999999998012,0.9165920371552122,0.8605672488191985
13.600999999997901,0.9254341956272268,0.8766092689337638
13.80099999999779,0.9339624377637497,0.8840567940952561
14.00099999999768,0.9426817420315745,0.9097971089733486
14.200999999997569,0.9526263168021532,0.9298049482827181
14.400999999997458,0.9611856004534612,0.9566777082986901
14.600999999997347,0.9735033343219336,0.9791641587941272
14.800999999997236,0.983594733869479,0.9998416837700109
15.000999999997125,0.987385512675534,1.0217217396381992
15.200999999997014,0.9908825345217559,1.0453668449379327
15.400999999996904,0.9981519276766522,1.0705767121199647
15.600999999996793,1.0064220579083925,1.091274144112248
15.800999999996682,1.0190936660830634,1.114504929616426
16.000999999996573,1.030945535219313,1.13914125348964
16.200999999996817,1.0451303021258154,1.1598212443005582
16.40099999999706,1.0555465641105326,1.185395105548437
16.600999999997306,1.0701216704104428,1.205849001863187
16.80099999999755,1.0790606490741255,1.2223107650774103
17.000999999997795,1.0835585610792349,1.2459842734709758
17.20099999999804,1.0880656283999903,1.2674512986003903
17.400999999998284,1.096330347813756,1.2917631092447677
17.60099999999853,1.102624754846814,1.3059785973846463
17.800999999998773,1.1069239458722657,1.3219667097872334
18.000999999999017,1.113028648472217,1.3499351325069155
18.20099999999926,1.1229667837140411,1.3803117482765301
18.400999999999506,1.135187279753383,1.404166101879805
18.60099999999975,1.1522105224272496,1.422063256882486
18.799999999999994,1.1610020289693503,1.4429558012982526
19.000000000000238,1.1750901398279245,1.457023224041753
19.200000000000482,1.1885758179747163,1.4765368566856583
19.400000000000727,1.1962607980188087,1.5081036604010118
19.60000000000097,1.2056216885375428,1.5311492211414695
19.800000000001216,1.208695581319545,1.5564604539772138
20.00000000000146,1.2164936939378541,1.5782445799725613
