Time (s),X (m),Y (m)
0.001,0.0007356649194092869,0.0008930179339548111
0.20000000000000015,-0.0005369349892870299,-0.0030817786324905203
0.4000000000000003,-0.001095855858272249,-0.011323658691985726
0.6000000000000004,0.005241952083497346,-0.014600778519629666
0.8000000000000006,0.014910798392215175,-0.010152392930838961
1.0000000000000007,0.02984076386102278,-0.011525539410511204
1.2009999999999785,0.04840509626884102,-0.007524061289121819
1.4009999999999565,0.06758597327948404,0.002735139128122781
1.6009999999999345,0.08520665564742759,0.008777924317983266
1.8009999999999124,0.10525954865830352,0.00814499707819558
2.0009999999998906,0.12640030419117534,0.005570007147322732
2.2009999999998686,0.14009891293166193,0.01647993721240781
2.4009999999998466,0.15757114421688184,0.026427606158324308
2.6009999999998246,0.17081584150239534,0.03969564942850932
2.8009999999998025,0.18743524764527097,0.0379203069951193
3.0009999999997805,0.2088007572541071,0.025936719039380336
3.2009999999997585,0.23127966621428686,0.02160003434082083
3.4009999999997365,0.25138567653698524,0.03200722737299654
3.6009999999997144,0.27209433054032744,0.0473550416682577
3.8009999999996924,0.29369574583107294,0.050311826694217056
4.000999999999671,0.3163732546333757,0.061172707333098465
4.200999999999738,0.33963183593244123,0.06428756003847848
4.400999999999804,0.3586162732480898,0.06620152247514069
4.600999999999871,0.3728299168222123,0.06141352882337814
4.800999999999938,0.38723064939243346,0.08271693671012859
5.000000000000004,0.4085066256085953,0.09904883068426863
5.200000000000071,0.4344388823016968,0.10525248260542126
5.400000000000138,0.4589136875056862,0.1134267662380868
5.600000000000205,0.4904204371485953,0.11606095187082259
5.800000000000272,0.5152945851149422,0.126763064855276
6.000000000000338,0.5380660435756772,0.13087415337655636
6.200000000000405,0.5595597806463941,0.15428159397962515
6.400000000000472,0.582028600061546,0.1727970657547003
6.600000000000539,0.5997924778520676,0.19264103493950807
6.800000000000606,0.6191026476831735,0.20900096095785928
7.000000000000672,0.6382005912097731,0.21504925924955484
7.200000000000739,0.6625010517859692,0.22003359270800749
7.400000000000806,0.6840658603142308,0.23571986129259728
7.600000000000873,0.7006958817629219,0.2555695027122506
7.8000000000009395,0.721907414599147,0.26425409296933094
8.000000000001005,0.7464898445674834,0.28050864567013534
8.200000000000895,0.7720481067401727,0.30931599074601257
8.400000000000784,0.7904552081463966,0.33614596777206457
8.600000000000673,0.8118722536317103,0.3482108438986694
8.800000000000562,0.8292292526537918,0.37011042251209836
9.000000000000451,0.846879460206211,0.3949275915392803
9.20000000000034,0.8698224989504609,0.41171053408563935
9.40000000000023,0.8911246956960432,0.41854187885969985
9.600000000000119,0.9105607168691688,0.42879025686988215
9.800000000000008,0.9325145865855433,0.43437217232522496
10.000999999999896,0.954851546801781,0.45458717091680534
10.200999999999786,0.9714829647172347,0.4802449334779696
10.400999999999675,0.9922207482614877,0.5103941562814492
10.600999999999564,1.01388957525366,0.5342963512769071
10.800999999999453,1.032877697545513,0.5477214231337609
11.000999999999342,1.0493257195056633,0.5653796909927166
11.200999999999231,1.0632078073605222,0.594433448575109
11.40099999999912,1.0794785775288267,0.6155773968250152
11.60099999999901,1.098137622055595,0.6381771753799637
11.800999999998899,1.1175348686157593,0.6601993702642024
12.000999999998788,1.134397714302305,0.6917136421708197
12.200999999998677,1.1518995781739865,0.7079104986047611
12.400999999998566,1.171806195946599,0.7245949421539399
12.600999999998455,1.1931388244223926,0.7518969261896499
12.800999999998345,1.210346446008866,0.7788300418043496
13.000999999998234,1.2282806874351782,0.7952504292576054
13.200999999998123,1.2535579721033276,0.817941099781832
13.400999999998012,1.2731016060348015,0.8455943513010411
13.600999999997901,1.2904821999290983,0.8687071374174901
13.80099999999779,1.3054412635932888,0.8905816068081337
14.00099999999768,1.3236683827878215,0.9025736686642893
14.200999999997569,1.3456165291371742,0.909939813394026
14.400999999997458,1.36725925927776,0.9215047454911359
14.600999999997347,1.3796737802952372,0.9479515846658393
14.800999999997236,1.3869178858873321,0.97075180219093
15.000999999997125,1.4046057121770774,0.9952341290870266
15.200999999997014,1.4234913125631743,1.0050047569390352
15.400999999996904,1.438524063451734,1.0215018137551748
15.600999999996793,1.4576022958654868,1.0432854642921208
15.800999999996682,1.4781076214826587,1.0547875142726106
16.000999999996573,1.4968638082335444,1.0704097801642587
16.200999999996817,1.5079827279146185,1.088935974809328
16.40099999999706,1.5213286000260946,1.102502735129197
16.600999999997306,1.5402108944913082,1.1126166962782924
16.80099999999755,1.5594702898389519,1.1375512632763471
17.000999999997795,1.5814732671088851,1.1568278144798156
17.20099999999804,1.5935953942275627,1.1863048799037543
17.400999999998284,1.6057409209040374,1.2169763238354594
17.60099999999853,1.6135674345683273,1.2435973335565014
17.800999999998773,1.6157008865196794,1.2735145876745084
18.000999999999017,1.623314190982887,1.3010102466312932
18.20099999999926,1.6296645374362309,1.3283049317752398
18.400999999999506,1.6289672267300521,1.357517207838993
18.60099999999975,1.6270998701411143,1.3876044196983432
18.799999999999994,1.6284750346934584,1.416303733541387
19.000000000000238,1.6213685414696903,1.4484908434212445
19.200000000000482,1.6263892011757626,1.4867882401772878
19.400000000000727,1.6185274474071858,1.5269916428513082
19.60000000000097,1.6159568041820667,1.563025984231805
19.800000000001216,1.6049187503412015,1.5960243687082467
20.00000000000146,1.6014186589992245,1.627546977986795
