Time (s),X (m),Y (m)
0.001,4.1020280575708355e-05,-0.0010155025257856578
0.20000000000000015,0.005067055465922695,0.006114028127087824
0.4000000000000003,0.015568617301569858,0.015057737628133717
0.6000000000000004,0.028810611088518668,0.020212646605970816
0.8000000000000006,0.051869315893287776,0.022880654909201277
1.0000000000000007,0.0791435832057243,0.029147137107140456
1.2009999999999785,0.09989586072304853,0.013416034402764227
1.4009999999999565,0.12913023014263283,0.002623239533324394
1.6009999999999345,0.15902335725607233,-0.010001748746827913
1.8009999999999124,0.1856687527486722,-0.03517685412670935
2.0009999999998906,0.2136178598783075,-0.062223238734284925
2.2009999999998686,0.23813854083587693,-0.08290124666824715
2.4009999999998466,0.27206683650608254,-0.08611642107442788
2.6009999999998246,0.3018026612585167,-0.08667297958301402
2.8009999999998025,0.3426689735841482,-0.09246957385472587
3.0009999999997805,0.3839676999565539,-0.10449362503768604
3.2009999999997585,0.42882920614745146,-0.10667121960295961
3.4009999999997365,0.45717094480168896,-0.11720881651488138
3.6009999999997144,0.4760949470605894,-0.13672449390722757
3.8009999999996924,0.503762877659586,-0.15688454463384677
4.000999999999671,0.5329893389084119,-0.17774123628587618
4.200999999999738,0.5554351946406166,-0.19368807530155813
4.400999999999804,0.5808779584712714,-0.21323209841331103
4.600999999999871,0.6136828958492335,-0.23362065175684393
4.800999999999938,0.6413121168524625,-0.2560981891010554
5.000000000000004,0.6717641523746486,-0.2933453760548226
5.200000000000071,0.7116450231586999,-0.3260171328994207
5.400000000000138,0.7365310562753462,-0.36133528883212995
5.600000000000205,0.7551414009510702,-0.3980103426765035
5.800000000000272,0.792309938161398,-0.4302406459394949
6.000000000000338,0.8445875870243839,-0.46267192198408336
6.200000000000405,0.8825802442911326,-0.49957321285516515
6.400000000000472,0.8927240647404419,-0.5404862114533914
6.600000000000539,0.9041792410591399,-0.585073231679867
6.800000000000606,0.9185322267468938,-0.639353770744741
7.000000000000672,0.9241323670657224,-0.6901396910900868
7.200000000000739,0.9242521012966718,-0.7369718393094761
7.400000000000806,0.9176462967869542,-0.7760554308610158
7.600000000000873,0.9038613535334354,-0.8333853127887356
7.8000000000009395,0.8831421448546201,-0.8864407587479264
8.000000000001005,0.8446373542673452,-0.9351274634757979
8.200000000000895,0.7881577840845619,-0.974160605997268
8.400000000000784,0.7339283743879229,-0.9910651888591208
8.600000000000673,0.6844791534776571,-0.995357458172865
8.800000000000562,0.6387625219079205,-0.989823841643966
9.000000000000451,0.6091148830945187,-0.9815047226071859
9.20000000000034,0.6034242344020366,-0.962366747793292
9.40000000000023,0.6064609360572467,-0.9387440709874955
9.600000000000119,0.6190583019182572,-0.9103614923657202
9.800000000000008,0.6282530348220982,-0.8540363247024977
10.000999999999896,0.6391222976346952,-0.7995740236976405
10.200999999999786,0.6561662982582117,-0.7566510613868112
10.400999999999675,0.6766658285088144,-0.7143637255377764
10.600999999999564,0.695520735496612,-0.6772728611170724
10.800999999999453,0.7205975899543038,-0.6572636737299333
11.000999999999342,0.7523459625830714,-0.6491254041038251
11.200999999999231,0.7942525739012332,-0.6434542695813148
11.40099999999912,0.8373223571151024,-0.6448595243615881
11.60099999999901,0.8862054033951563,-0.6539017897578246
11.800999999998899,0.931499468855916,-0.6751865642559871
12.000999999998788,0.9846989389099806,-0.6837078204737278
12.200999999998677,1.035086397206132,-0.6936357492288585
12.400999999998566,1.0747518841178052,-0.7212032800297692
12.600999999998455,1.113195634219557,-0.7533290589641788
12.800999999998345,1.1682774122245332,-0.7744829488088134
13.000999999998234,1.2214634528817763,-0.79735780991272
13.200999999998123,1.2721665236369115,-0.8227279560373559
13.400999999998012,1.3351716174735584,-0.8443515315938677
13.600999999997901,1.3794407675679727,-0.8746782124256748
13.80099999999779,1.424017934338527,-0.9106145768220939
14.00099999999768,1.4650325800107644,-0.9400495653315158
14.200999999997569,1.5060523652550133,-0.9702115139133831
14.400999999997458,1.5480005465211066,-1.002162477828845
14.600999999997347,1.5695878697566257,-1.03377891799929
14.800999999997236,1.5984117128438726,-1.0738013289337702
15.000999999997125,1.6323717733359862,-1.1216815457187022
15.200999999997014,1.6559938244778676,-1.1680507345203563
15.400999999996904,1.6693620798144084,-1.2201202459914626
15.600999999996793,1.6766295578467352,-1.2726975263630809
15.800999999996682,1.6936582890802454,-1.3244238242281958
16.000999999996573,1.7054302317216485,-1.373655561447392
16.200999999996817,1.7153181009826122,-1.4176193849655074
16.40099999999706,1.7202522028847715,-1.464569253148801
16.600999999997306,1.7166429540231605,-1.5124924451157253
16.80099999999755,1.7113422140764583,-1.5587759804895223
17.000999999997795,1.7179691483857933,-1.6087403711453803
17.20099999999804,1.7257564664790033,-1.6536830479216829
17.400999999998284,1.7299649114620876,-1.7042147261383753
17.60099999999853,1.7424322293613503,-1.7605828248985427
17.800999999998773,1.763349044047035,-1.821991307182561
18.000999999999017,1.7756876325667248,-1.8821247921444155
18.20099999999926,1.7933881179058113,-1.9432245986758399
18.400999999999506,1.8089349325782729,-2.00426517716934
18.60099999999975,1.8159359763211935,-2.0594018651736756
18.799999999999994,1.8236032298488192,-2.1113133706448046
19.000000000000238,1.8377404034588225,-2.162966662666321
19.200000000000482,1.8574297912278184,-2.2160870510885946
19.400000000000727,1.8875230871453104,-2.2729345202885933
19.60000000000097,1.9095744634005076,-2.327634832687796
19.800000000001216,1.9383445497212015,-2.381408850199951
20.00000000000146,1.9602636545215302,-2.4436361745722386
