Time (s),X (m),Y (m)
0.001,0.0014388337585722719,0.00017911379721200063
0.20000000000000015,0.000686803236293361,-0.00010182501461779303
0.4000000000000003,0.0014962596964221066,2.2893214959075668e-05
0.6000000000000004,0.002450561155245978,0.00031427029264831906
0.8000000000000006,0.003743184297397177,0.0010557213679611517
1.0000000000000007,0.005222387032667876,0.00210308646473392
1.2009999999999785,0.007172676627422319,0.003188745136631803
1.4009999999999565,0.008951552336180309,0.004165005336037775
1.6009999999999345,0.01067017906930315,0.005020089081033155
1.8009999999999124,0.012591219076514608,0.005894111507300347
2.0009999999998906,0.014709203843452676,0.006931655917187636
2.2009999999998686,0.016814289881409514,0.00804175498061034
2.4009999999998466,0.019089995262161073,0.009275453002942944
2.6009999999998246,0.021466802869669992,0.01058258430362777
2.8009999999998025,0.023798959497587757,0.011925703521821101
3.0009999999997805,0.025981786516304155,0.013310335953137409
3.2009999999997585,0.028277276899148825,0.01478360747583521
3.4009999999997365,0.03050358632543419,0.016304951998463563
3.6009999999997144,0.032818178862943415,0.017894355631599308
3.8009999999996924,0.03497099321335393,0.019504363984940914
4.000999999999671,0.037331674511234356,0.021223177639659238
4.200999999999738,0.03968207636864055,0.0229636943250862
4.400999999999804,0.04213750733326864,0.02480896136282394
4.600999999999871,0.04445617051260523,0.026663199906621065
4.800999999999938,0.04668899645369927,0.02855232629381058
5.000000000000004,0.049006208859644226,0.030496999398131216
5.200000000000071,0.051362250286321826,0.0325197027185057
5.400000000000138,0.05396300379658158,0.03460810868565136
5.600000000000205,0.05642575072425937,0.03676885353533972
5.800000000000272,0.05882346719459178,0.03896010048168854
6.000000000000338,0.061391988359908015,0.041274180099185126
6.200000000000405,0.0638214420115679,0.04355773718107667
6.400000000000472,0.06646210106962362,0.04602612684508707
6.600000000000539,0.06896873965652446,0.04840585090895739
6.800000000000606,0.07153800505940275,0.05100985038922469
7.000000000000672,0.07412349426049276,0.053540043200761084
7.200000000000739,0.07678709429989303,0.056299899261155875
7.400000000000806,0.07960668040571965,0.059124656570720545
7.600000000000873,0.08245506256449595,0.062073406029909226
7.8000000000009395,0.08524558096211836,0.06496850751636597
8.000000000001005,0.0880546785928776,0.06792174091077183
8.200000000000895,0.0906408271322615,0.07094023919020018
8.400000000000784,0.09357644913252901,0.07418148758898689
8.600000000000673,0.09639244111455367,0.07744114472573665
8.800000000000562,0.09938281853000715,0.08083472338180572
9.000000000000451,0.10226914284225157,0.08422692891758556
9.20000000000034,0.10530914661948254,0.08776438683926183
9.40000000000023,0.10815745193809656,0.09119153393392308
9.600000000000119,0.11119490474815054,0.09486592152680978
9.800000000000008,0.11416341949027033,0.09847086264200612
10.000999999999896,0.11698889184342413,0.10190866308108504
10.200999999999786,0.12003784956421139,0.10567132244208091
10.400999999999675,0.12304103511545998,0.10951139801353796
10.600999999999564,0.1260041639197091,0.1132921241195591
10.800999999999453,0.12892073781482588,0.1170695544389287
11.000999999999342,0.13169003689259004,0.12079234573036077
11.200999999999231,0.13476764005380723,0.12482300985837709
11.40099999999912,0.13766596090128783,0.12875073176664967
11.60099999999901,0.1405803600522772,0.13281105645076285
11.800999999998899,0.14346296703713618,0.13691155159160445
12.000999999998788,0.14629994060292442,0.14088372902448718
12.200999999998677,0.1491251167940558,0.14492456465759623
12.400999999998566,0.1519520513165474,0.14905360008516114
12.600999999998455,0.1546025701709927,0.15302701525531287
12.800999999998345,0.15738763678407533,0.15730839249607612
13.000999999998234,0.16012732539306693,0.1615668089058626
13.200999999998123,0.1628340740291736,0.16568688361008024
13.400999999998012,0.16545195359129858,0.16982166828253922
13.600999999997901,0.16799750680106076,0.17403368321817642
13.80099999999779,0.17040689730010272,0.1782118346919064
14.00099999999768,0.17276184319984703,0.18237908164603275
14.200999999997569,0.1751866742209819,0.1867577884673918
14.400999999997458,0.1776517445533574,0.19134192602622632
14.600999999997347,0.18011182845935406,0.196007488814903
14.800999999997236,0.18235131710744362,0.20050510237348212
15.000999999997125,0.184335178406774,0.2048194781003227
15.200999999997014,0.18613581995092435,0.20879545425777887
15.400999999996904,0.18812088709049776,0.21329900361576676
15.600999999996793,0.18973214295891783,0.2174418371849045
15.800999999996682,0.19105155718427172,0.22117873052473716
16.000999999996573,0.19242289265717813,0.22539157212029087
16.200999999996817,0.19381712854934435,0.2297236842196401
16.40099999999706,0.19514420284500636,0.23416156246726075
16.600999999997306,0.1961470381444319,0.2380133724380531
16.80099999999755,0.19723149588384284,0.24284292233659832
17.000999999997795,0.19830794789205886,0.24738102296861475
17.20099999999804,0.19919483466204868,0.25194812643048436
17.400999999998284,0.19992314597931157,0.25683110595553715
17.60099999999853,0.20060567697539708,0.261420298760928
17.800999999998773,0.20108022491829658,0.26584820039126833
18.000999999999017,0.20124201744431802,0.2699148917770949
18.20099999999926,0.2013257778816372,0.2742228097026309
18.400999999999506,0.2013627730553509,0.27879261100882496
18.60099999999975,0.20114864048288536,0.2830970456503481
18.799999999999994,0.20088696610972062,0.28764422747090385
19.000000000000238,0.20030498575276204,0.2920665250697399
19.200000000000482,0.19985141389776223,0.29616261307314157
19.400000000000727,0.19897808125770453,0.30033775293556136
19.60000000000097,0.1981084169160956,0.30466731286680315
19.800000000001216,0.19707215077642423,0.30894162800783104
20.00000000000146,0.19589667001886168,0.31320066204932606
