Time (s),X (m),Y (m)
0.001,0.00015606349793537,-0.0009963285817120471
0.20000000000000015,0.0008064064774841633,-5.5018222085651024e-05
0.4000000000000003,0.0017217311139154966,2.6211564365665533e-05
0.6000000000000004,0.004343473277395345,0.00038468054693685706
0.8000000000000006,0.006069771776260641,0.0001697867637990512
1.0000000000000007,0.009071047251920374,-0.0007430871537632467
1.2009999999999785,0.010344440281720815,-0.0003840657414167444
1.4009999999999565,0.013499436250980735,0.005101972728511786
1.6009999999999345,0.016894906437809276,0.011053397337285999
1.8009999999999124,0.0214310842652482,0.015198669620477409
2.0009999999998906,0.027082522748315883,0.021193562447091505
2.2009999999998686,0.031859604275796594,0.02545347245612018
2.4009999999998466,0.036504129101299375,0.02782649405792314
2.6009999999998246,0.04115313396791458,0.02876296143149476
2.8009999999998025,0.04564966868585325,0.03351096994073067
3.0009999999997805,0.05198581180908642,0.041626135356805635
3.2009999999997585,0.05909933750363667,0.048500938998552935
3.4009999999997365,0.06550892389872617,0.04853940470499049
3.6009999999997144,0.06921672322799889,0.050985821797048435
3.8009999999996924,0.07264488060830182,0.0525111368800706
4.000999999999671,0.07717761765209337,0.05613185594147906
4.200999999999738,0.08235716522425551,0.05997799763322565
4.400999999999804,0.0872868404613189,0.06280217897268385
4.600999999999871,0.09277972195571418,0.06712774512893337
4.800999999999938,0.09796533778125825,0.06887855563063834
5.000000000000004,0.10154429424244196,0.07091722650302636
5.200000000000071,0.10598096792663396,0.07334049149465978
5.400000000000138,0.11297196002598639,0.07676079312907659
5.600000000000205,0.11749813388457353,0.07551873348363886
5.800000000000272,0.12314959080107284,0.0787265803412094
6.000000000000338,0.13015217016499547,0.08529788359115047
6.200000000000405,0.1354451542529303,0.08590612859761869
6.400000000000472,0.14210780983471893,0.08855623942674355
6.600000000000539,0.14967380865287178,0.09113190479711211
6.800000000000606,0.1563618822428866,0.094568406888171
7.000000000000672,0.16171091568936544,0.09718686897792315
7.200000000000739,0.16837793070385051,0.095689451723355
7.400000000000806,0.17568321762318648,0.09457195280476814
7.600000000000873,0.18322302292963885,0.09363118880319507
7.8000000000009395,0.18895537067361257,0.09539562458731861
8.000000000001005,0.19438650283898096,0.10036883247779078
8.200000000000895,0.20181875271796332,0.10719674236261166
8.400000000000784,0.209299427592841,0.11528115607280177
8.600000000000673,0.2159276519820488,0.1198652706257867
8.800000000000562,0.22308941037640043,0.12345846714387872
9.000000000000451,0.23061509184320508,0.1269303162817186
9.20000000000034,0.23571431833960818,0.127526900137498
9.40000000000023,0.24137246672446516,0.13061767324947424
9.600000000000119,0.2489995282540843,0.13605055938495186
9.800000000000008,0.25675146432687007,0.13740152736951594
10.000999999999896,0.26471720285393996,0.13596723334983868
10.200999999999786,0.2735735798179132,0.133075773469777
10.400999999999675,0.2821092775953959,0.13570658361694818
10.600999999999564,0.29044430852891195,0.13670140030077393
10.800999999999453,0.29947718747691204,0.1423834475390093
11.000999999999342,0.3062897181500354,0.14439274456493875
11.200999999999231,0.3148094676691319,0.14296810548875258
11.40099999999912,0.32329479937754496,0.1458562200885637
11.60099999999901,0.33258640134467415,0.14964131833918473
11.800999999998899,0.34039240531900716,0.15539110320892335
12.000999999998788,0.34771572560331016,0.16320227226137932
12.200999999998677,0.35285937264096223,0.16743915696979303
12.400999999998566,0.3590697725823316,0.16984588975504739
12.600999999998455,0.36537438181009,0.1708418116511884
12.800999999998345,0.3691269905260863,0.1756221552527937
13.000999999998234,0.37586497638810035,0.17395788000970136
13.200999999998123,0.38226874662409027,0.1764867334878582
13.400999999998012,0.3873072216972719,0.1833651867357575
13.600999999997901,0.3905014871917588,0.18972163222153401
13.80099999999779,0.3918951406925336,0.1982562841004836
14.00099999999768,0.39607393246040523,0.20346561668543514
14.200999999997569,0.39972537968363187,0.20815780562648828
14.400999999997458,0.4039065974071021,0.21308289944725817
14.600999999997347,0.4043358288676367,0.22196076327546163
14.800999999997236,0.40584860209377666,0.22905767362691493
15.000999999997125,0.40694636192692274,0.23454293287021166
15.200999999997014,0.40928525213381833,0.23911782160732062
15.400999999996904,0.4059734977477943,0.24841985855168314
15.600999999996793,0.4025033510333259,0.2577487997593205
15.800999999996682,0.4006154932493454,0.2669065931146961
16.000999999996573,0.3979750212441783,0.2728636415577667
16.200999999996817,0.3957357866042567,0.27971574321721254
16.40099999999706,0.39423078544708007,0.2893316158619003
16.600999999997306,0.39113694076517225,0.29662192839254337
16.80099999999755,0.3876564857895845,0.30415064798852165
17.000999999997795,0.3855166216128665,0.31207725520089963
17.20099999999804,0.3809382490090267,0.31908771487952853
17.400999999998284,0.37784839233639683,0.32702349782993045
17.60099999999853,0.3753895156554097,0.3377427573585514
17.800999999998773,0.37246981215412156,0.347533983967653
18.000999999999017,0.3717226044282076,0.35719061806013863
18.20099999999926,0.37252685996593216,0.3649878627011467
18.400999999999506,0.37209254833418703,0.3728655283030485
18.60099999999975,0.36511051302035125,0.3805629654979285
18.799999999999994,0.35662830593058253,0.38949282479665337
19.000000000000238,0.35430233690471136,0.3965613718517787
19.200000000000482,0.34928503897318663,0.40554273313927464
19.400000000000727,0.3471667287217098,0.4150753995759966
19.60000000000097,0.3433409274515929,0.423257627014318
19.800000000001216,0.34318909747644666,0.43130172505275566
20.00000000000146,0.34212371638728223,0.4395020427223838
