Time (s),X (m),Y (m)
0.001,0.001152392079647418,0.0007293631428462583
0.20000000000000015,0.0010244094927336206,0.00016220142450330789
0.4000000000000003,0.0017361693211291884,0.00048105952901807706
0.6000000000000004,0.0030870576791003778,0.0006783518505627679
0.8000000000000006,0.0035751997975350894,0.0005005143883199471
1.0000000000000007,0.0070578657808828835,0.002029293227658513
1.2009999999999785,0.01037608152142692,0.0017480715182660853
1.4009999999999565,0.01482485980043712,0.003913254806258093
1.6009999999999345,0.017868746215657833,0.0054330997857088325
1.8009999999999124,0.022579631369218284,0.007178153149816095
2.0009999999998906,0.02704263407465445,0.010801923258203039
2.2009999999998686,0.030475874670461825,0.013220701538176048
2.4009999999998466,0.03339254863492018,0.01408110557128528
2.6009999999998246,0.03748062442252426,0.017094916034716395
2.8009999999998025,0.04179924577230789,0.021530718185543633
3.0009999999997805,0.04682805673874621,0.025759630879283433
3.2009999999997585,0.05133253593367719,0.029049784999959607
3.4009999999997365,0.056070432273183965,0.03378687356563846
3.6009999999997144,0.06030423770797464,0.03733812823209724
3.8009999999996924,0.06452451402874462,0.041575762877325326
4.000999999999671,0.06854511583943657,0.04524647151353703
4.200999999999738,0.07221116974489171,0.050753747852810914
4.400999999999804,0.07691067833806484,0.05506719828245626
4.600999999999871,0.08111756167718731,0.05962960173863701
4.800999999999938,0.08331525770904138,0.06492245863814353
5.000000000000004,0.08535459962268521,0.06933302808422771
5.200000000000071,0.0865808455164988,0.0735871534513712
5.400000000000138,0.08847781919473655,0.07901097699104304
5.600000000000205,0.08871872923249781,0.08550056488315218
5.800000000000272,0.0909259343845058,0.0910642675852422
6.000000000000338,0.09162709882891941,0.09889386657396636
6.200000000000405,0.0910961289028663,0.10486220136023051
6.400000000000472,0.09175573905608572,0.11024048483462436
6.600000000000539,0.0924238130365938,0.11614440957443725
6.800000000000606,0.09307971887095458,0.12199014297718805
7.000000000000672,0.09288004076915965,0.1282736107192604
7.200000000000739,0.09317807818476243,0.13464811595202766
7.400000000000806,0.09134842377348724,0.14162322613328043
7.600000000000873,0.09067196542730133,0.1487191739841649
7.8000000000009395,0.08995374081252044,0.15585695777255185
8.000000000001005,0.08987859763932575,0.16190324800132622
8.200000000000895,0.08726481099526052,0.16968108391409445
8.400000000000784,0.08392396761973098,0.1774212315052674
8.600000000000673,0.08156442558377831,0.1851913510777732
8.800000000000562,0.07963455168816379,0.19189692463318703
9.000000000000451,0.0778096392245309,0.19854483801499256
9.20000000000034,0.07508352450264617,0.20451004313951862
9.40000000000023,0.07255096057600204,0.2111045308075115
9.600000000000119,0.06932630687618296,0.21766907388740492
9.800000000000008,0.0655304741786908,0.22407036652589238
10.000999999999896,0.06157402480179019,0.23054129223909517
10.200999999999786,0.05834179591936716,0.23673913179248154
10.400999999999675,0.0539225722928757,0.24360834703723572
10.600999999999564,0.04701501808205782,0.2504941270530541
10.800999999999453,0.041448238113722426,0.2573721013006187
11.000999999999342,0.03690450354420929,0.2637857242479893
11.200999999999231,0.031890517764965896,0.26945575179012116
11.40099999999912,0.02615169134905238,0.2749135473454135
11.60099999999901,0.021193588963708147,0.28027662258177255
11.800999999998899,0.013222040875820996,0.2854944518929104
12.000999999998788,0.00627860249688735,0.2903211805580505
12.200999999998677,-0.0001826504361624307,0.2946053771987003
12.400999999998566,-0.007730283424215335,0.2975524133752291
12.600999999998455,-0.01427144495190688,0.2995923772348105
12.800999999998345,-0.01971520275114984,0.301298428942902
13.000999999998234,-0.028209806143890445,0.30204160738444075
13.200999999998123,-0.036244613417032466,0.30298663454757213
13.400999999998012,-0.04342737492622442,0.30490825221734047
13.600999999997901,-0.05154552436220854,0.3057121970083283
13.80099999999779,-0.05940527785625119,0.30733139339897203
14.00099999999768,-0.06756913576585771,0.3076980777800711
14.200999999997569,-0.07571903658011671,0.3074258621103382
14.400999999997458,-0.08371768250228323,0.3056594302605439
14.600999999997347,-0.09200461424276651,0.30376094747315313
14.800999999997236,-0.09984575040925707,0.30179516765959785
15.000999999997125,-0.10762434896158797,0.2993089199864225
15.200999999997014,-0.1145272173536414,0.2985493260174216
15.400999999996904,-0.12137071657876221,0.29545053235701246
15.600999999996793,-0.12837061615797885,0.29332282827018613
15.800999999996682,-0.13625452402526703,0.289995553209021
16.000999999996573,-0.1455052038092666,0.28597747845212995
16.200999999996817,-0.15292131048726712,0.2819774984678166
16.40099999999706,-0.1605595333828556,0.27745592792876045
16.600999999997306,-0.16880110415798902,0.2729981316270116
16.80099999999755,-0.17724911259621856,0.2663094729821374
17.000999999997795,-0.185150703162147,0.2600598989944923
17.20099999999804,-0.19357441175120416,0.2539327839572989
17.400999999998284,-0.2012775506771991,0.2478931461869346
17.60099999999853,-0.20867302442358646,0.2429976555427699
17.800999999998773,-0.2140510093873614,0.23611764407424043
18.000999999999017,-0.21989464010425033,0.23020179757563147
18.20099999999926,-0.2249841428593238,0.2237264251409543
18.400999999999506,-0.22977213306526112,0.21768847760483426
18.60099999999975,-0.23337743707675676,0.21279078119292713
18.799999999999994,-0.2357694379543729,0.20549188188267178
19.000000000000238,-0.23842172293693917,0.19737061916383383
19.200000000000482,-0.24199562995986182,0.1920243761543883
19.400000000000727,-0.24353937944973644,0.18402521005660452
19.60000000000097,-0.24518632449786384,0.17677388684007816
19.800000000001216,-0.24584375276862896,0.16826905955074736
20.00000000000146,-0.24728923542665768,0.1613565417274902
