Time (s),X (m),Y (m)
0.001,0.00015606349793537,0.0009963285817120476
0.20000000000000015,0.0009012568702072739,-0.0004201296897896486
0.4000000000000003,0.0028713697694864276,-0.0024187640699930082
0.6000000000000004,0.007187812917823252,-0.0033557882838061363
0.8000000000000006,0.011485366616229236,-0.006528277041899916
1.0000000000000007,0.016631109509000548,-0.012394471237595772
1.2009999999999785,0.02081613987156729,-0.007624056195853912
1.4009999999999565,0.02239494187430714,-0.0010757992852916283
1.6009999999999345,0.027467629799616793,-0.000538364439838484
1.8009999999999124,0.033490148444563377,-0.0018121693159420887
2.0009999999998906,0.038374782785429246,-0.00531328643895607
2.2009999999998686,0.04252619919988835,-0.009412208146199636
2.4009999999998466,0.051478487077015446,-0.010791781287485092
2.6009999999998246,0.06115118670474642,-0.009832765460204864
2.8009999999998025,0.07382954630850432,-0.00751361927622208
3.0009999999997805,0.08428085707160446,-0.013136873003362788
3.2009999999997585,0.09434286682205494,-0.021194186122335985
3.4009999999997365,0.10482778553861331,-0.02610777069864292
3.6009999999997144,0.11541198679752245,-0.023321127663311996
3.8009999999996924,0.12742619561176463,-0.013852218879321232
4.000999999999671,0.1427062351821628,-0.009909260547181435
4.200999999999738,0.16081945878660112,-0.004815579976151623
4.400999999999804,0.17684123091420126,0.0011831591222006602
4.600999999999871,0.1873530538068592,0.01797722944803012
4.800999999999938,0.19886750029617795,0.03095430228271618
5.000000000000004,0.21288830373881315,0.03592162946156513
5.200000000000071,0.22706716871921437,0.04246094138065839
5.400000000000138,0.23917367305595244,0.04296751548848972
5.600000000000205,0.25309903736808204,0.04422824919528716
5.800000000000272,0.2654379221092582,0.048975606801736085
6.000000000000338,0.27719619112995064,0.051447997757234715
6.200000000000405,0.2875682558528338,0.045093317020335366
6.400000000000472,0.2993823858802966,0.04946141445547056
6.600000000000539,0.3139649514806378,0.055979119461028494
6.800000000000606,0.32947076063683134,0.05761840568677725
7.000000000000672,0.3432328225632025,0.05793590310445222
7.200000000000739,0.35548162256383664,0.05184125679719435
7.400000000000806,0.3695142716584342,0.0418555812613298
7.600000000000873,0.38396103019499866,0.044785183654983136
7.8000000000009395,0.3985577775563762,0.044515315465498466
8.000000000001005,0.41465881777382224,0.037459120291275544
8.200000000000895,0.4291393815337372,0.032930096422043434
8.400000000000784,0.44069406662675537,0.03610345952318213
8.600000000000673,0.4531124954272708,0.03165140532191482
8.800000000000562,0.4688446574569551,0.023987823534324017
9.000000000000451,0.4844993821812413,0.012461373148412306
9.20000000000034,0.49999815048259055,0.008491929520293698
9.40000000000023,0.5126169602620172,0.006778464603080767
9.600000000000119,0.5235755501797915,0.0009805945447346207
9.800000000000008,0.5332985586295653,-0.00609191649749641
10.000999999999896,0.5475553500797589,-0.008840807571893029
10.200999999999786,0.558539974066081,-0.007997299355779459
10.400999999999675,0.5702218205230097,-0.014165085814853682
10.600999999999564,0.5814766920092207,-0.01642384348776476
10.800999999999453,0.5953966535348143,-0.02160648089890127
11.000999999999342,0.6068404877321375,-0.03531551486212471
11.200999999999231,0.6164677162096015,-0.050130548118078405
11.40099999999912,0.6293228793592296,-0.05577656820952476
11.60099999999901,0.6425860357310991,-0.060348336362176666
11.800999999998899,0.6557379061966968,-0.0680576087483237
12.000999999998788,0.6708758833209784,-0.07203575010171442
12.200999999998677,0.6811702791626127,-0.07283315789498032
12.400999999998566,0.6928195886194674,-0.08332616482700031
12.600999999998455,0.7063523286839795,-0.07828049018022969
12.800999999998345,0.722199127446068,-0.07423479460263047
13.000999999998234,0.7366729811660364,-0.07559060650859815
13.200999999998123,0.7470305080285383,-0.08398820674563051
13.400999999998012,0.7589452011891769,-0.08779505843981243
13.600999999997901,0.7683222048395888,-0.09726371668463205
13.80099999999779,0.7797739459292689,-0.10336083545322702
14.00099999999768,0.793012272568603,-0.10728920784587688
14.200999999997569,0.8115082162408267,-0.1007758633423055
14.400999999997458,0.8252588712759298,-0.10193321426910527
14.600999999997347,0.8399486722045436,-0.09951588309312816
14.800999999997236,0.8596198474706991,-0.09395836514294632
15.000999999997125,0.8786944212944341,-0.09505014078199864
15.200999999997014,0.8977796285653865,-0.09343658215915766
15.400999999996904,0.9088752719717355,-0.09349055984599748
15.600999999996793,0.9192598583253568,-0.10245471152400056
15.800999999996682,0.9313750332953097,-0.09948770974649294
16.000999999996573,0.9457453624684381,-0.09939832990366619
16.200999999996817,0.9583385191098374,-0.10918893373886351
16.40099999999706,0.9700148364163468,-0.12407805226300024
16.600999999997306,0.9861083581054757,-0.1271636239776258
16.80099999999755,1.0019167232067279,-0.1264803431953456
17.000999999997795,1.01280386584818,-0.12644309034300588
17.20099999999804,1.0230552037343983,-0.1314809440178565
17.400999999998284,1.0348365738559078,-0.13290028390582104
17.60099999999853,1.0463101795576013,-0.14150768631715124
17.800999999998773,1.0544317783270605,-0.1503953481021577
18.000999999999017,1.0594606798072774,-0.15882840562122325
18.20099999999926,1.068119352782332,-0.16728442945246516
18.400999999999506,1.0762632193840964,-0.17274627361534517
18.60099999999975,1.084212223743693,-0.178257316630891
18.799999999999994,1.0940949875763541,-0.1857606758361283
19.000000000000238,1.1037800306013523,-0.19181470731861075
19.200000000000482,1.116000610010717,-0.19806715800991523
19.400000000000727,1.1287622863207105,-0.19617793215872745
19.60000000000097,1.141435657298641,-0.205637202600126
19.800000000001216,1.1563791702054338,-0.2046077322787551
20.00000000000146,1.1751820137858746,-0.20163280218531032
