Time (s),X (m),Y (m)
0.001,0.001392298616347667,-0.0003527853123316693
0.20000000000000015,1.3458660825209743e-06,0.00047412496021412363
0.4000000000000003,0.0018366868437141323,-0.0011375157270577872
0.6000000000000004,0.010576731001964578,-0.004207675267121227
0.8000000000000006,0.021173387048552227,-0.009235951658400242
1.0000000000000007,0.035941200345896034,-0.015549715339393207
1.2009999999999785,0.046022042284232303,-0.018865156532018347
1.4009999999999565,0.061920203723173986,-0.025690868538762263
1.6009999999999345,0.07989935575168615,-0.03501767783556628
1.8009999999999124,0.09392959421667933,-0.044434875258997815
2.0009999999998906,0.10943258318366171,-0.05706444390168036
2.2009999999998686,0.12025192369881586,-0.06623374794753269
2.4009999999998466,0.13260210873128617,-0.0777961997064001
2.6009999999998246,0.1499013491972337,-0.09557904505575172
2.8009999999998025,0.17357882919441864,-0.1162377886934223
3.0009999999997805,0.18837499683498557,-0.13895545749122404
3.2009999999997585,0.1893873262474666,-0.1628698294561351
3.4009999999997365,0.18085613708427853,-0.19083517408276085
3.6009999999997144,0.1715572165764524,-0.22339892259597477
3.8009999999996924,0.1541923775029717,-0.27206255875493596
4.000999999999671,0.13344698796757712,-0.31817276422615687
4.200999999999738,0.11520124408493188,-0.3541871773961508
4.400999999999804,0.10691074938579534,-0.3849162089640124
4.600999999999871,0.09497978891699747,-0.41717390761271034
4.800999999999938,0.08557582674338078,-0.44567327081511054
5.000000000000004,0.07294540191771864,-0.4771274042490791
5.200000000000071,0.04985420418851095,-0.5221093850127732
5.400000000000138,0.019574555810841377,-0.5677599967685802
5.600000000000205,-0.009020269949288107,-0.6151033906124532
5.800000000000272,-0.041466951779633394,-0.6608125435307597
6.000000000000338,-0.0778981837696451,-0.6951382217985627
6.200000000000405,-0.11876897363242338,-0.6997474787286878
6.400000000000472,-0.16004463121144835,-0.6862546987156293
6.600000000000539,-0.19726719258573747,-0.6628495429748417
6.800000000000606,-0.21767281116376433,-0.6267810005023733
7.000000000000672,-0.22798709576309978,-0.5835692895725657
7.200000000000739,-0.22595458821228429,-0.5380815896384633
7.400000000000806,-0.22095419609209313,-0.502994487517137
7.600000000000873,-0.21348833036015183,-0.46169129713528
7.8000000000009395,-0.20261515412512807,-0.42140744206997893
8.000000000001005,-0.18395138945771577,-0.37188652874031697
8.200000000000895,-0.15942981354099975,-0.32182561742331317
8.400000000000784,-0.14736982630306267,-0.28621821539385267
8.600000000000673,-0.13140983582809,-0.24530185472386246
8.800000000000562,-0.11652668163334413,-0.21256624821209485
9.000000000000451,-0.10249108630586297,-0.17166314978213415
9.20000000000034,-0.0841034611272301,-0.12730618593793272
9.40000000000023,-0.06038876944585974,-0.07464680526029174
9.600000000000119,-0.03698672131874141,-0.022590745424869562
9.800000000000008,-0.011751544488584332,0.028474065494772875
10.000999999999896,0.016202753398298738,0.08131797020322641
10.200999999999786,0.05155445921676739,0.1360981825149667
10.400999999999675,0.08555216867492317,0.18914223529615692
10.600999999999564,0.12690226811728045,0.22417521712894264
10.800999999999453,0.17403381046751334,0.2368353594287871
11.000999999999342,0.22913350443192035,0.22554024341077417
11.200999999999231,0.2863408166013204,0.20508778927345042
11.40099999999912,0.3474559035836284,0.17537281372104221
11.60099999999901,0.4117769251468565,0.14439200082508247
11.800999999998899,0.47579032707701585,0.11501085331497246
12.000999999998788,0.5369838874177284,0.08299541886124386
12.200999999998677,0.5974180887310618,0.04904131414626236
12.400999999998566,0.6613019358743069,0.01479843599911828
12.600999999998455,0.7254213772713385,-0.024990321255091295
12.800999999998345,0.7766445631475714,-0.056346440800620116
13.000999999998234,0.8100208017730851,-0.088801659445753
13.200999999998123,0.8223905559805509,-0.1364329557846045
13.400999999998012,0.8158660214827332,-0.19064163311937346
13.600999999997901,0.7963417174249278,-0.24828196927986587
13.80099999999779,0.7691534512180529,-0.30879006603392495
14.00099999999768,0.7412552909698951,-0.36291960478034824
14.200999999997569,0.7067288216865582,-0.4125408214190619
14.400999999997458,0.6711006914202983,-0.43799518718712965
14.600999999997347,0.6291082014604296,-0.4396640296968427
14.800999999997236,0.5821113453369662,-0.4268469693576316
15.000999999997125,0.534488590864696,-0.4065606635385578
15.200999999997014,0.48278546326852617,-0.3847888617404467
15.400999999996904,0.42879302194899954,-0.36393094091044437
15.600999999996793,0.3709411334672708,-0.3399618904514207
15.800999999996682,0.3119539877456002,-0.31156719461694715
16.000999999996573,0.2543833566334003,-0.26017478003368244
16.200999999996817,0.22384371744574166,-0.20046195029297267
16.40099999999706,0.22295464653120717,-0.14453821351575571
16.600999999997306,0.2371555673788497,-0.08837157548397591
16.80099999999755,0.25857176240037166,-0.02756680467727401
17.000999999997795,0.2855741769783481,0.02656909932524489
17.20099999999804,0.3335843787463694,0.06677894027236157
17.400999999998284,0.3883253502075951,0.07554941757389198
17.60099999999853,0.43198082458134085,0.06322088725641577
17.800999999998773,0.48126712270830185,0.039909128647562866
18.000999999999017,0.5287636497163241,0.013142209049996245
18.20099999999926,0.5765561191710972,-0.020768139899791108
18.400999999999506,0.623108228638825,-0.0491494628595743
18.60099999999975,0.6523451821579589,-0.07641001167846741
18.799999999999994,0.6655072664955074,-0.11320397516671582
19.000000000000238,0.6627380630660917,-0.1641905443586686
19.200000000000482,0.6464253952352406,-0.21716071891069247
19.400000000000727,0.625201743271665,-0.266342169138717
19.60000000000097,0.6069887888807408,-0.30762065283768525
19.800000000001216,0.5910237321316709,-0.3522078818896107
20.00000000000146,0.5712025461501566,-0.4002803596209163
