Time (s),X (m),Y (m)
0.001,0.00024391513958915793,0.0010158048217711127
0.20000000000000015,0.000800493480469376,3.8866787119633595e-05
0.4000000000000003,0.0013310073905659669,-0.00013962300803892737
0.6000000000000004,0.0019552385109184328,-0.0001982274961671557
0.8000000000000006,0.0027163426646225363,-0.00034997496977481234
1.0000000000000007,0.0035961780165448083,-0.0006414767109113644
1.2009999999999785,0.004545680205994421,-0.0009137782591725819
1.4009999999999565,0.005520378886015205,-0.001112545915786537
1.6009999999999345,0.006531479789718125,-0.0013630834348920757
1.8009999999999124,0.0075810546373197,-0.0016171835240643205
2.0009999999998906,0.008681107116595387,-0.001878193529093007
2.2009999999998686,0.0098261752307455,-0.0021634405832498143
2.4009999999998466,0.011024663831909389,-0.0024697824529584396
2.6009999999998246,0.012295997070123618,-0.0027907439458670752
2.8009999999998025,0.013602508506540413,-0.0031301207419622257
3.0009999999997805,0.014955904759328216,-0.003486289461492332
3.2009999999997585,0.016368556216606833,-0.003861725393485582
3.4009999999997365,0.01782060998216775,-0.004259630068160058
3.6009999999997144,0.019295735722865612,-0.0046767272410417815
3.8009999999996924,0.02076421632268708,-0.005109354707033393
4.000999999999671,0.022212819997225425,-0.005563833364233251
4.200999999999738,0.02363750627824531,-0.006039230440788877
4.400999999999804,0.025032323708020953,-0.006532794316866877
4.600999999999871,0.026390870104371196,-0.007040563715935947
4.800999999999938,0.027713480724606294,-0.00746599397830735
5.000000000000004,0.029157630661535778,-0.008075967290815406
5.200000000000071,0.030320070188870205,-0.008618841109260965
5.400000000000138,0.03136607869520328,-0.00937817075487923
5.600000000000205,0.032554996006675566,-0.01036970036201637
5.800000000000272,0.033693350160962435,-0.01147194618053543
6.000000000000338,0.035120433426289,-0.011899803594736306
6.200000000000405,0.036743776026517135,-0.012993480510176503
6.400000000000472,0.03799829296237819,-0.014036197410778817
6.600000000000539,0.03916123490261996,-0.014987545640627872
6.800000000000606,0.04022637964641496,-0.016036796638061925
7.000000000000672,0.04124207822752216,-0.01697340041924377
7.200000000000739,0.042436158044116414,-0.018073502931339913
7.400000000000806,0.04373341264390766,-0.019157344414528408
7.600000000000873,0.04495129572326708,-0.020184543525315908
7.8000000000009395,0.04621077838547877,-0.02117420360814664
8.000000000001005,0.04740586353508033,-0.02211994327174374
8.200000000000895,0.048543154770586044,-0.023017218886102392
8.400000000000784,0.04966957975908118,-0.0238745401012471
8.600000000000673,0.050790880929188195,-0.024696173888786064
8.800000000000562,0.05191602953396936,-0.025483973373385548
9.000000000000451,0.053063280679059764,-0.026235842258369637
9.20000000000034,0.05423800650170354,-0.026948476644104127
9.40000000000023,0.05543114632065874,-0.027604693318639295
9.600000000000119,0.056625722895462326,-0.028183934894276175
9.800000000000008,0.05782491438906077,-0.028685587924407265
10.000999999999896,0.05908270733329208,-0.02914698595239675
10.200999999999786,0.06028068112852737,-0.02952171366786392
10.400999999999675,0.06138186133120207,-0.029756430660835238
10.600999999999564,0.06239308381592162,-0.02991960382065684
10.800999999999453,0.06333910301567451,-0.029856411581774517
11.000999999999342,0.06423238412068077,-0.029555902267963688
11.200999999999231,0.0649556268054184,-0.02899046571866607
11.40099999999912,0.06584838410433339,-0.028262486331999452
11.60099999999901,0.06700475303822734,-0.027508690113296447
11.800999999998899,0.06826190992685774,-0.026619743513888895
12.000999999998788,0.0695953005984555,-0.025619560775665646
12.200999999998677,0.07097648928382738,-0.024502823338107913
12.400999999998566,0.07238192180776935,-0.02326831384488875
12.600999999998455,0.07379954300301451,-0.02192121846140077
12.800999999998345,0.07523221340363913,-0.02046617132317959
13.000999999998234,0.07668529701976426,-0.01891214905269111
13.200999999998123,0.07815922599624114,-0.0172702645177657
13.400999999998012,0.07965616963226278,-0.015542582231092488
13.600999999997901,0.08117655598551124,-0.013728310549023006
13.80099999999779,0.08271910157922323,-0.011826309923396198
14.00099999999768,0.08428363373159498,-0.009836480795572436
14.200999999997569,0.08587164896766546,-0.007761367548166364
14.400999999997458,0.08748410857941817,-0.0055980831229821915
14.600999999997347,0.08879474871849964,-0.003387777012637309
14.800999999997236,0.09004595002426002,-0.0010968011749006644
15.000999999997125,0.09148622530779982,0.0012295032821035008
15.200999999997014,0.09303135592338055,0.003567098792993015
15.400999999996904,0.0942016107318449,0.005722705347476852
15.600999999996793,0.09555614712137867,0.007889772937259839
15.800999999996682,0.09713712586295646,0.010092789731581855
16.000999999996573,0.09873568325329023,0.012246317996717392
16.200999999996817,0.10034277754190767,0.014343733310406377
16.40099999999706,0.1019289183462019,0.016354174304671565
16.600999999997306,0.10347326145156902,0.01826833724901673
16.80099999999755,0.10479335195836204,0.0202158093765111
17.000999999997795,0.10616117120797482,0.022050508682542196
17.20099999999804,0.10756870079288168,0.023776313761556422
17.400999999998284,0.10861255336304715,0.02567955833230178
17.60099999999853,0.10995812691937802,0.027331923656589284
17.800999999998773,0.11127881284857641,0.029046801588560718
18.000999999999017,0.11261234647165581,0.030835226149591468
18.20099999999926,0.1139087404086449,0.032579138480416936
18.400999999999506,0.11516520313625978,0.034262346092095865
18.60099999999975,0.11638057329140547,0.035892483751921875
18.799999999999994,0.11754892304241545,0.03749247466836458
19.000000000000238,0.11868467631898183,0.039084160020552074
19.200000000000482,0.11978293927701954,0.040655683996037695
19.400000000000727,0.12084484654247153,0.04220468497863582
19.60000000000097,0.12187090866831811,0.04371848972832654
19.800000000001216,0.12285947534386225,0.04517989053020664
20.00000000000146,0.12380808990701254,0.046598956392438926
