Time (s),X (m),Y (m)
0.001,0.0014545041853094038,0.0
0.20000000000000015,0.0007148151154116623,-5.685152303528772e-05
0.4000000000000003,0.0014393233372756635,0.0005413589229626657
0.6000000000000004,-0.0012300278060780958,0.0009016995034095766
0.8000000000000006,0.007974873580539233,0.0014334668664786466
1.0000000000000007,0.014899278703722124,0.002025817287192267
1.2009999999999785,0.019215703725188386,-0.0018874750594276098
1.4009999999999565,0.025707104738133847,-0.002457837380231928
1.6009999999999345,0.039940371817791004,-0.004002443708836046
1.8009999999999124,0.05346641905411556,-0.008219791488516872
2.0009999999998906,0.06539008671192358,-0.012883128268896963
2.2009999999998686,0.07522566520607736,-0.01742295946698036
2.4009999999998466,0.09295972226997341,-0.021261847809922723
2.6009999999998246,0.10621236437943597,-0.02529762949111267
2.8009999999998025,0.11379003586826925,-0.031295878580617914
3.0009999999997805,0.11992458644700298,-0.03105724191436764
3.2009999999997585,0.13167127411967966,-0.03203102015711249
3.4009999999997365,0.14333347400590285,-0.03516122284358591
3.6009999999997144,0.1500960061963092,-0.038253693980711136
3.8009999999996924,0.16248206701547444,-0.040541886171182206
4.000999999999671,0.1804439423532084,-0.0453590247961785
4.200999999999738,0.19440975167207467,-0.04921614092000896
4.400999999999804,0.2135513291273153,-0.056467615132968635
4.600999999999871,0.23259616937048722,-0.06762427302706767
4.800999999999938,0.25489491603202086,-0.07817296196229208
5.000000000000004,0.2766258646432782,-0.08583214949238996
5.200000000000071,0.29870207604208204,-0.09449867148073364
5.400000000000138,0.32274378989181823,-0.1047280243761294
5.600000000000205,0.3395250985127763,-0.11730879077419488
5.800000000000272,0.35455553052606326,-0.12734354691170335
6.000000000000338,0.36544615713437134,-0.13431938810366068
6.200000000000405,0.38142951664104635,-0.1365035603733691
6.400000000000472,0.4006193716486986,-0.14364640554195734
6.600000000000539,0.41317684983443326,-0.14877791729383896
6.800000000000606,0.4267775987086767,-0.1580013899303587
7.000000000000672,0.44457457778920606,-0.16830939420566124
7.200000000000739,0.45441936052478843,-0.17643855819392118
7.400000000000806,0.47307085987191944,-0.1849383539515664
7.600000000000873,0.4908949223233712,-0.19090879055025342
7.8000000000009395,0.5121126299862345,-0.19685013974421128
8.000000000001005,0.5309865322430753,-0.20662988160947554
8.200000000000895,0.5467384578238764,-0.21197346556961047
8.400000000000784,0.5630508009835409,-0.2210395239640652
8.600000000000673,0.5806335390978185,-0.22752245790924272
8.800000000000562,0.5987951782202411,-0.23694028442048493
9.000000000000451,0.6109476147153194,-0.2399170996531933
9.20000000000034,0.6246373195295692,-0.24479023379705633
9.40000000000023,0.6411822107203866,-0.2513881333932315
9.600000000000119,0.6589158320180979,-0.25972721886628286
9.800000000000008,0.6756421960085335,-0.267328093942745
10.000999999999896,0.6878242189005742,-0.272048064706188
10.200999999999786,0.7106609889517039,-0.28031639040672446
10.400999999999675,0.7263713588287778,-0.2900038418429266
10.600999999999564,0.7468259036503205,-0.29844744417497243
10.800999999999453,0.7647938085954618,-0.3056997246913573
11.000999999999342,0.7913063540626775,-0.31770477145820625
11.200999999999231,0.8213158858409697,-0.33165959149629465
11.40099999999912,0.8440452557537771,-0.34715128238881077
11.60099999999901,0.8667758700903181,-0.3638188403885023
11.800999999998899,0.8862076131389667,-0.3777117249405742
12.000999999998788,0.9069287156415085,-0.3938003242523788
12.200999999998677,0.92807333021825,-0.4086486847494326
12.400999999998566,0.9533002401882833,-0.42263804956525386
12.600999999998455,0.9764315792251235,-0.4370715484388625
12.800999999998345,0.9946681863550833,-0.45226105904489877
13.000999999998234,1.0156947444296598,-0.46830485324314286
13.200999999998123,1.034874416400357,-0.481302984203978
13.400999999998012,1.0527010928795324,-0.49260984740535296
13.600999999997901,1.0753101696518352,-0.501700577912176
13.80099999999779,1.0945521322115892,-0.5143829189652974
14.00099999999768,1.1159569684980828,-0.5310924080364164
14.200999999997569,1.1396309439202215,-0.5499549371883837
14.400999999997458,1.1673959380866772,-0.5630931865118386
14.600999999997347,1.1939204736620395,-0.5795694406797037
14.800999999997236,1.219009990609812,-0.5954318707723336
15.000999999997125,1.2451996998411938,-0.6080222999889011
15.200999999997014,1.2667265179841307,-0.6158071346310442
15.400999999996904,1.2886357246493647,-0.6314850663891405
15.600999999996793,1.317277766988384,-0.6473022558342826
15.800999999996682,1.3378083895005004,-0.6533623612638484
16.000999999996573,1.3591894822591792,-0.6636849877229279
16.200999999996817,1.3797986068107277,-0.6784139272477692
16.40099999999706,1.400113479517206,-0.6881907102215856
16.600999999997306,1.4221845297544087,-0.7009827939766965
16.80099999999755,1.4460051491377326,-0.7174044311102693
17.000999999997795,1.4688091099753093,-0.724725455615306
17.20099999999804,1.4841831352888855,-0.7283299805342672
17.400999999998284,1.5046403962270507,-0.7360787086737742
17.60099999999853,1.5234400264717423,-0.7474191399915666
17.800999999998773,1.5413475303855122,-0.7556052925033723
18.000999999999017,1.5708957498135083,-0.7712355388633562
18.20099999999926,1.592552203813003,-0.7821419053927642
18.400999999999506,1.6152499277755352,-0.7937978175446436
18.60099999999975,1.6360597098528362,-0.8003429884402365
18.799999999999994,1.6563909063257234,-0.8109846520782285
19.000000000000238,1.680774685263447,-0.8220395385467031
19.200000000000482,1.7057416666813892,-0.8375609191186251
19.400000000000727,1.7294960468715224,-0.852702115131381
19.60000000000097,1.749851603109003,-0.8632500660737137
19.800000000001216,1.773227981627306,-0.8744094525487223
20.00000000000146,1.791303080635107,-0.8842554289771508
