Time (s),X (m),Y (m)
0.001,-0.0004702548317818469,-0.0005157376242541218
0.20000000000000015,0.000691783384928478,-0.00013895970330463523
0.4000000000000003,0.0017921764830996052,0.0004801670686943978
0.6000000000000004,0.0035650456413242938,0.001869303135572745
0.8000000000000006,0.007811857325085522,0.003822932142755655
1.0000000000000007,0.011033864484403837,0.005481581146952882
1.2009999999999785,0.015435917243705988,0.007990813828107249
1.4009999999999565,0.01944666619247367,0.010492815433588992
1.6009999999999345,0.02371809300077127,0.013164219279570363
1.8009999999999124,0.027794496819841943,0.015005344530410778
2.0009999999998906,0.03280671953942577,0.0183021197377398
2.2009999999998686,0.03726052612040802,0.022180162937151117
2.4009999999998466,0.041697123360149545,0.025211531039728556
2.6009999999998246,0.04522197008517552,0.028785313532463126
2.8009999999998025,0.04841254054893491,0.03212288007645606
3.0009999999997805,0.05243672241527809,0.03465245394937753
3.2009999999997585,0.056058601427840214,0.03780254825620808
3.4009999999997365,0.05936124144108867,0.04074958665235679
3.6009999999997144,0.06398363618832349,0.04597768926062279
3.8009999999996924,0.0679178698718382,0.05122264114456038
4.000999999999671,0.07094677860692705,0.054436672229747386
4.200999999999738,0.07400052107261529,0.05886774248583974
4.400999999999804,0.0773341672142782,0.06315324546485827
4.600999999999871,0.08052090098752748,0.06733650579754075
4.800999999999938,0.08452627502287587,0.07363077724078224
5.000000000000004,0.08748905611620011,0.0801067036086755
5.200000000000071,0.09095236890358813,0.08557615661963287
5.400000000000138,0.09381513852590123,0.09188937505231075
5.600000000000205,0.0954748697782228,0.09585973579378779
5.800000000000272,0.09717157786013725,0.10026934054995976
6.000000000000338,0.0996505728318123,0.10573561990451702
6.200000000000405,0.10024582622706604,0.11032765131327144
6.400000000000472,0.10217739713079656,0.11643556498176795
6.600000000000539,0.10364874640585973,0.12307579871167768
6.800000000000606,0.10402390090354045,0.12824177208929097
7.000000000000672,0.10437047519522531,0.13346497935636653
7.200000000000739,0.10622910938072468,0.14196676410904344
7.400000000000806,0.10564783293424523,0.15023699315797054
7.600000000000873,0.10506364831490324,0.15599742614640286
7.8000000000009395,0.10554733311923706,0.15750675672212136
8.000000000001005,0.10474442760458609,0.16354666852032124
8.200000000000895,0.1045396972935617,0.16864892600523448
8.400000000000784,0.10529630403007291,0.17270486427020432
8.600000000000673,0.10450564548312978,0.17760392918582169
8.800000000000562,0.10320563500648022,0.18509966764578997
9.000000000000451,0.10243072034903404,0.19174300062337638
9.20000000000034,0.101381688044506,0.19783429096251298
9.40000000000023,0.09978737744698571,0.2051880671598158
9.600000000000119,0.09745587090810817,0.2130989143359486
9.800000000000008,0.09574140498697029,0.21914728481124
10.000999999999896,0.09435495233940445,0.2296569102975118
10.200999999999786,0.09105635527244846,0.23827842659600054
10.400999999999675,0.08931527080956908,0.24342080458476
10.600999999999564,0.08647422610671385,0.25234043603702055
10.800999999999453,0.08411080298816927,0.2591925171914957
11.000999999999342,0.08309076961977757,0.2651203989730903
11.200999999999231,0.07865485807306576,0.2737444373594295
11.40099999999912,0.07528764225902596,0.27914828879971987
11.60099999999901,0.07192574546062595,0.28446075106174945
11.800999999998899,0.07043141397514661,0.2905223208034065
12.000999999998788,0.06713514018367796,0.2979849346854921
12.200999999998677,0.061930720208900586,0.3067048214452178
12.400999999998566,0.056034644531132535,0.31489631080073527
12.600999999998455,0.051448625420503095,0.3224253768565587
12.800999999998345,0.04597144713864759,0.3302590930537374
13.000999999998234,0.040245473634260294,0.3375698455415028
13.200999999998123,0.035039589876221265,0.3437053611286862
13.400999999998012,0.029245180186586443,0.35054597827336015
13.600999999997901,0.023594205417029564,0.3561951588838327
13.80099999999779,0.016722408115222808,0.36367079356772086
14.00099999999768,0.014121532270184983,0.3696748543398431
14.200999999997569,0.00689892853914245,0.3775829114193249
14.400999999997458,-0.00013921703211639845,0.38478223570182596
14.600999999997347,-0.006948607771474403,0.3908985787658356
14.800999999997236,-0.012870352983969872,0.3971875793129096
15.000999999997125,-0.019513665300855864,0.4025106055072032
15.200999999997014,-0.024744097823588378,0.40890108315864343
15.400999999996904,-0.03219609675480527,0.4144042589899335
15.600999999996793,-0.03923383304801408,0.42024929613221085
15.800999999996682,-0.04642949977378488,0.424957740382726
16.000999999996573,-0.054798622650096884,0.43027555180527716
16.200999999996817,-0.06124439245245108,0.4355837836123039
16.40099999999706,-0.06933408420496313,0.4409838212785131
16.600999999997306,-0.07616272012902697,0.4450596054597559
16.80099999999755,-0.08348419716949333,0.44898388474525014
17.000999999997795,-0.09043212002842384,0.4524571386358184
17.20099999999804,-0.09798196153399656,0.4550831151860286
17.400999999998284,-0.10457623800910805,0.4590427658965102
17.60099999999853,-0.11021190598691064,0.46058180268550547
17.800999999998773,-0.11764754844622222,0.4635911030068832
18.000999999999017,-0.12455448302421963,0.4667416634477484
18.20099999999926,-0.1310662478807962,0.46788250821095295
18.400999999999506,-0.14019759761675707,0.4668737209126389
18.60099999999975,-0.1460817363956344,0.46824869807565356
18.799999999999994,-0.1536712585979801,0.46873381473701836
19.000000000000238,-0.16076772751347165,0.46945752154463455
19.200000000000482,-0.16938943242362028,0.469238781859931
19.400000000000727,-0.17736756520248267,0.4689699050772406
19.60000000000097,-0.18394869724004276,0.4694179871299071
19.800000000001216,-0.19558686887864163,0.4688392479018603
20.00000000000146,-0.20550884206424866,0.4680306685424411
