Time (s),X (m),Y (m)
0.001,0.00033312994539159724,-0.0010275501737767782
0.20000000000000015,0.0008088721784057972,-0.00018583397922981154
0.4000000000000003,0.0012091621159214347,-0.00017990654121754766
0.6000000000000004,0.0016826594483514113,0.00012000619069448635
0.8000000000000006,0.002248868281479757,0.00016508010918602278
1.0000000000000007,0.0029394978062784963,4.3247565926723894e-05
1.2009999999999785,0.003662783154614184,0.00017736427351859485
1.4009999999999565,0.004332484240251076,0.00025235543072774157
1.6009999999999345,0.004989279645757354,0.00026323585559880774
1.8009999999999124,0.005675293242949615,0.0003091623925741167
2.0009999999998906,0.006413086988369783,0.00038589225303705917
2.2009999999998686,0.007198492542576838,0.00046743035322012683
2.4009999999998466,0.00801568970289395,0.0005498344873669104
2.6009999999998246,0.008846865797732733,0.000631189776474648
2.8009999999998025,0.009674823228092384,0.0007104817224751994
3.0009999999997805,0.010500399908438929,0.0007897748500798648
3.2009999999997585,0.011324763413063408,0.0008696198767803314
3.4009999999997365,0.012146685273230016,0.000951200115640596
3.6009999999997144,0.012964953894169432,0.0010325224596733587
3.8009999999996924,0.013776980017683509,0.001113296166832406
4.000999999999671,0.014581287863908495,0.0011930610978209163
4.200999999999738,0.015376849260664655,0.0012715123754248826
4.400999999999804,0.01616317964613036,0.0013480502724445896
4.600999999999871,0.016939391825737487,0.0014228325866947188
4.800999999999938,0.017702471934133147,0.0014948532578223052
5.000000000000004,0.01843726675538607,0.0015652786468772523
5.200000000000071,0.019150812390998598,0.0016289067558685859
5.400000000000138,0.01983909709712078,0.0016878753550540167
5.600000000000205,0.0205023633341962,0.00174252782823232
5.800000000000272,0.021140891594684533,0.0017927596296894693
6.000000000000338,0.021755918545302694,0.0018381726761833599
6.200000000000405,0.022350327510171252,0.0018777680772554075
6.400000000000472,0.02292132786359587,0.0019125707308369254
6.600000000000539,0.023463249562600874,0.0019449017816469205
6.800000000000606,0.023972911695155894,0.001974762774423646
7.000000000000672,0.02445608346918814,0.0020022572890045277
7.200000000000739,0.024923888696366896,0.0020273381880913438
7.400000000000806,0.02538517869618231,0.0020482637997561704
7.600000000000873,0.02584295298137625,0.002064179968801431
7.8000000000009395,0.02629818748302749,0.002074920743277171
8.000000000001005,0.02675109287725545,0.0020803912198717454
8.200000000000895,0.02720246684354964,0.0020804670557389372
8.400000000000784,0.02765242087054028,0.002075115082384579
8.600000000000673,0.028101012871633153,0.0020643433649033226
8.800000000000562,0.02854859535168983,0.0020480771294362128
9.000000000000451,0.028995281865910248,0.0020262893175348653
9.20000000000034,0.029441295335199562,0.0019989585473230423
9.40000000000023,0.029886918859594252,0.001965881346476497
9.600000000000119,0.030332088500053138,0.0019268402735078613
9.800000000000008,0.030777025812772682,0.001881806347558817
10.000999999999896,0.031226731491469335,0.0018272452099392543
10.200999999999786,0.0316748987819087,0.0017700973573027876
10.400999999999675,0.032125196830780474,0.0017064890790531083
10.600999999999564,0.03257858217317487,0.0016363790622551146
10.800999999999453,0.033034651401732805,0.001559676341503385
11.000999999999342,0.03349360856932528,0.0014763579134932062
11.200999999999231,0.03395470231143187,0.0013865735727248733
11.40099999999912,0.03441796089827133,0.0012901498950645641
11.60099999999901,0.03488367274029239,0.0011869956871144493
11.800999999998899,0.03535173565442197,0.0010769826952944771
12.000999999998788,0.03582145116227153,0.0009601799837818253
12.200999999998677,0.03629320965734716,0.000836634395254838
12.400999999998566,0.03676724284790673,0.00070633876207214
12.600999999998455,0.03724431012662996,0.0005691605641547552
12.800999999998345,0.03772279455192884,0.0004253494602545698
13.000999999998234,0.03820339213033288,0.0002748635213600639
13.200999999998123,0.03868842843335777,0.00011769879456245921
13.400999999998012,0.03917739389559271,-4.58145744088752e-05
13.600999999997901,0.03967118375122118,-0.00021582064490812224
13.80099999999779,0.04016978733949104,-0.0003920215677542157
14.00099999999768,0.0406742952544732,-0.0005741269185388331
14.200999999997569,0.04118785351587112,-0.0007619590673657883
14.400999999997458,0.04171053468386212,-0.0009548564158845943
14.600999999997347,0.042242132924949466,-0.0011518343517195537
14.800999999997236,0.042782458083718965,-0.0013519925048577181
15.000999999997125,0.04333096894194641,-0.0015531883030498262
15.200999999997014,0.04388718872853627,-0.001752496044815616
15.400999999996904,0.04444971023396492,-0.0019455023512898976
15.600999999996793,0.04501744103426641,-0.0021305972435644903
15.800999999996682,0.04558974709183294,-0.002306195557351179
16.000999999996573,0.04616503970587851,-0.002470529318712037
16.200999999996817,0.04674110741361328,-0.002623469327751226
16.40099999999706,0.04731579139988406,-0.0027647260531810445
16.600999999997306,0.04788724796502457,-0.002893418574980147
16.80099999999755,0.04845324414220661,-0.003009835291751025
17.000999999997795,0.049010256779601476,-0.0031144543052399496
17.20099999999804,0.049556523263393756,-0.0032076964875446907
17.400999999998284,0.050090117028209674,-0.0032910447728487706
17.60099999999853,0.050609427146181905,-0.0033662527341509984
17.800999999998773,0.05111220533883139,-0.0034329732970950337
18.000999999999017,0.051597385855436294,-0.003490646332448518
18.20099999999926,0.052063520031878995,-0.003538630796369538
18.400999999999506,0.052509055476483824,-0.003576537321449535
18.60099999999975,0.05293273585024189,-0.0036044932347763558
18.799999999999994,0.05333213948556383,-0.0036227942509767623
19.000000000000238,0.05370955661567576,-0.003629191625361496
19.200000000000482,0.05406296171322319,-0.00362420292888144
19.400000000000727,0.054391553176618944,-0.003607264832855609
19.60000000000097,0.05469481144764727,-0.0035781567521452427
19.800000000001216,0.054972239781168726,-0.0035365330931053564
20.00000000000146,0.05522356784729497,-0.003481746178596117
