Time (s),X (m),Y (m)
0.001,0.001392298616347667,-0.0003527853123316693
0.20000000000000015,0.0009542646036248826,-0.0001676502335675248
0.4000000000000003,0.0018605745056570256,-0.0005823948187568059
0.6000000000000004,0.005376845950786464,-0.0019972250216500165
0.8000000000000006,0.006191179049315284,-0.003181345002126191
1.0000000000000007,0.006427925448692485,-0.004065291244542563
1.2009999999999785,0.00907154746272499,-0.007472758237427251
1.4009999999999565,0.009026764008340179,-0.008073015184052424
1.6009999999999345,0.016770855521829976,-0.012954693675253594
1.8009999999999124,0.02274965068497626,-0.01518548667630187
2.0009999999998906,0.03379243121210018,-0.01872352782636503
2.2009999999998686,0.043906844778224076,-0.019419663328854055
2.4009999999998466,0.05664686549708229,-0.02513282666842514
2.6009999999998246,0.06700705885762534,-0.026087580310684054
2.8009999999998025,0.07518424999582615,-0.027978892726075563
3.0009999999997805,0.08289006013974468,-0.031880629863884714
3.2009999999997585,0.08822267921249347,-0.03329912180232497
3.4009999999997365,0.10206189276492293,-0.03913771245315151
3.6009999999997144,0.11490215544734546,-0.045905185641641304
3.8009999999996924,0.12292497226828818,-0.048599838837920725
4.000999999999671,0.12780453598238636,-0.04780910526890384
4.200999999999738,0.13775946631967848,-0.04912982023893658
4.400999999999804,0.14478468679288348,-0.05063500021913305
4.600999999999871,0.15649101053459247,-0.05463652821258809
4.800999999999938,0.16872992454770794,-0.05762073964577142
5.000000000000004,0.17878629855143122,-0.06016919731495287
5.200000000000071,0.18883088815286586,-0.062417958337712326
5.400000000000138,0.20307293249048608,-0.06725938163331292
5.600000000000205,0.2165041954537473,-0.07014736287376296
5.800000000000272,0.22575909555706425,-0.07244811014416629
6.000000000000338,0.24173986532259442,-0.08086231044172158
6.200000000000405,0.25681289389949075,-0.08947276009983435
6.400000000000472,0.27077959214101305,-0.09423805572900494
6.600000000000539,0.28320541658809245,-0.09736441998787594
6.800000000000606,0.2984378811038487,-0.10279516449100234
7.000000000000672,0.3115043263024017,-0.10669435111298366
7.200000000000739,0.3249911713295889,-0.11246266104177832
7.400000000000806,0.3360795944793006,-0.11576145024026023
7.600000000000873,0.34788517657870677,-0.12233080373480222
7.8000000000009395,0.35708482090286475,-0.12390236599502868
8.000000000001005,0.3665398195189383,-0.12598781187039895
8.200000000000895,0.379115978855631,-0.13187976094736134
8.400000000000784,0.3905779674969416,-0.13471156768854223
8.600000000000673,0.4022635045046379,-0.13823295486111925
8.800000000000562,0.41390513121247446,-0.1393986358527794
9.000000000000451,0.42538194042585487,-0.14170298801038111
9.20000000000034,0.4390138659328842,-0.1455441203012215
9.40000000000023,0.45439634550904723,-0.1480280657531537
9.600000000000119,0.46641322744138775,-0.1572156899289121
9.800000000000008,0.48105221494866185,-0.16417312144534452
10.000999999999896,0.4979984853844757,-0.16839662519981932
10.200999999999786,0.5115091595081377,-0.17286078006853475
10.400999999999675,0.5284458554899859,-0.18203247364527012
10.600999999999564,0.5438365425171322,-0.18839152723300867
10.800999999999453,0.5574395471810007,-0.19422844698967348
11.000999999999342,0.5729623489318468,-0.20389036013556877
11.200999999999231,0.5888408643820899,-0.21162913372898448
11.40099999999912,0.6047819356245865,-0.2197648456647255
11.60099999999901,0.6163657199834301,-0.22630501060832195
11.800999999998899,0.628388892571298,-0.2307905443974035
12.000999999998788,0.6388974052554122,-0.23857490821064345
12.200999999998677,0.6466296202563856,-0.24828308081566905
12.400999999998566,0.6564231654332182,-0.2621408799962559
12.600999999998455,0.6646584598036307,-0.26526472472625234
12.800999999998345,0.6715251594194486,-0.274980860483813
13.000999999998234,0.6761756220242602,-0.2900381876389758
13.200999999998123,0.6787244111940314,-0.3030973596469405
13.400999999998012,0.6781573979248444,-0.32171252220878915
13.600999999997901,0.677471713787307,-0.33245384146113593
13.80099999999779,0.6761631646059729,-0.3489044825732947
14.00099999999768,0.673272298939337,-0.36233439656049315
14.200999999997569,0.6699090757942464,-0.37708574192985134
14.400999999997458,0.6649210455245652,-0.38828404943922756
14.600999999997347,0.661029680410252,-0.4042962781567564
14.800999999997236,0.6573918773751147,-0.42012170173574775
15.000999999997125,0.6519973619694293,-0.43791439790906234
15.200999999997014,0.6482737398793142,-0.45173306987345974
15.400999999996904,0.6457899780338479,-0.46671338680807284
15.600999999996793,0.643460334867231,-0.48212623728148357
15.800999999996682,0.6384155421140881,-0.49647699862514977
16.000999999996573,0.6369582774958226,-0.5051584869562493
16.200999999996817,0.6365443211427962,-0.5187850800468058
16.40099999999706,0.6345208196180203,-0.5350760479559427
16.600999999997306,0.6314358606450712,-0.5529157845268096
16.80099999999755,0.6264834532511837,-0.5699233324736162
17.000999999997795,0.6259185957855775,-0.5793921269522295
17.20099999999804,0.6214329455504695,-0.5925431440602414
17.400999999998284,0.6140729511947903,-0.6089873866690859
17.60099999999853,0.6070626429518751,-0.6252274178530128
17.800999999998773,0.6046929395848986,-0.6379322988841091
18.000999999999017,0.6007379210265026,-0.6522822663766097
18.20099999999926,0.5974643881312034,-0.6701949612775961
18.400999999999506,0.5943271744600962,-0.6856461033924447
18.60099999999975,0.5905022016629407,-0.702560169958656
18.799999999999994,0.5853810374721536,-0.7212872396329028
19.000000000000238,0.5831445610196719,-0.7377253242757501
19.200000000000482,0.5781260241857282,-0.7527925635530602
19.400000000000727,0.5746035302735929,-0.7659526855967368
19.60000000000097,0.5655507945971829,-0.7846223042536716
19.800000000001216,0.5602179637557534,-0.7995572366391747
20.00000000000146,0.5521967212950896,-0.8206563334666285
