Time (s),X (m),Y (m)
0.001,0.0006899943756669482,-0.0009963285817120471
0.20000000000000015,0.0008915815363845123,0.0007093853254208705
0.4000000000000003,0.002815011154617844,0.001531897215984021
0.6000000000000004,0.005369592661591205,-0.004799802321431157
0.8000000000000006,0.008969376869161815,-0.010694001530580454
1.0000000000000007,0.017831840011454478,-0.02670151216252011
1.2009999999999785,0.028765180708913648,-0.03616157552659794
1.4009999999999565,0.037674337782551956,-0.05150201705918682
1.6009999999999345,0.0448186463695582,-0.06629999435067187
1.8009999999999124,0.05605356365053428,-0.07557472868366326
2.0009999999998906,0.0642731227621665,-0.09197509326942126
2.2009999999998686,0.08465682144728685,-0.08220798048931656
2.4009999999998466,0.10047102512449456,-0.07539792661595081
2.6009999999998246,0.1168506667617643,-0.07219205383024926
2.8009999999998025,0.13134861749121798,-0.08351242059127156
3.0009999999997805,0.1423930290055337,-0.09800117299726402
3.2009999999997585,0.15032957783546083,-0.10625603451195968
3.4009999999997365,0.15698792075895976,-0.10820450839131882
3.6009999999997144,0.17120591124282505,-0.09409425832248165
3.8009999999996924,0.18881866213014864,-0.08825669046721182
4.000999999999671,0.21484554207183826,-0.09115414597108672
4.200999999999738,0.2402452092491132,-0.0980212054815409
4.400999999999804,0.2654863472571591,-0.11181430775057122
4.600999999999871,0.2879585653933132,-0.10692628789846327
4.800999999999938,0.311662750515236,-0.10929097254268777
5.000000000000004,0.33402880116434086,-0.11969162481629288
5.200000000000071,0.35253990813247815,-0.138352268401447
5.400000000000138,0.37490199875956043,-0.13644086509609457
5.600000000000205,0.3956471832565681,-0.13775601299596738
5.800000000000272,0.41753864367862725,-0.14596786044057503
6.000000000000338,0.4410495184356815,-0.16913418783754602
6.200000000000405,0.4556322996220763,-0.1946056744345541
6.400000000000472,0.4664839065454278,-0.211063776619303
6.600000000000539,0.48444749567719875,-0.21975065218354897
6.800000000000606,0.5049957650210745,-0.2191260456249943
7.000000000000672,0.524097103192234,-0.22057257270215622
7.200000000000739,0.545531203136754,-0.2370533746032948
7.400000000000806,0.5679102627072089,-0.23394896055666378
7.600000000000873,0.5934012461123732,-0.23908085082385708
7.8000000000009395,0.6201535115149859,-0.24516261433680955
8.000000000001005,0.6518527044649354,-0.22869153935877412
8.200000000000895,0.6866115604163191,-0.2288756545315225
8.400000000000784,0.7224100664787698,-0.23647589848933032
8.600000000000673,0.7524900000778836,-0.2490669477261798
8.800000000000562,0.7819354258520976,-0.24775582824031564
9.000000000000451,0.8092427512574308,-0.25623106866303236
9.20000000000034,0.8375364939174308,-0.2686866435353005
9.40000000000023,0.8616280585645828,-0.28522739690206683
9.600000000000119,0.8802031458127516,-0.29380832945691326
9.800000000000008,0.8959540784402787,-0.31071954085997516
10.000999999999896,0.9152576443438335,-0.3322359383603354
10.200999999999786,0.9351244926394047,-0.35658915736438135
10.400999999999675,0.9492314920639239,-0.3867760253385264
10.600999999999564,0.9641875547102975,-0.41490700639038725
10.800999999999453,0.9739423990632061,-0.45229082646437735
11.000999999999342,0.9880403549619053,-0.4779756565092087
11.200999999999231,1.0055410342066005,-0.4995500281590882
11.40099999999912,1.0226678935519165,-0.525679257713592
11.60099999999901,1.0389691726162633,-0.5502011710374912
11.800999999998899,1.0520067725936637,-0.5786195079502673
12.000999999998788,1.0678386381545024,-0.6062270906086701
12.200999999998677,1.079110347664329,-0.6312763988185611
12.400999999998566,1.0955337341386862,-0.6513092834232772
12.600999999998455,1.104135482680721,-0.67762292957864
12.800999999998345,1.116632233364879,-0.7014591273608697
13.000999999998234,1.1433712375546101,-0.7158463105287726
13.200999999998123,1.1582255606327818,-0.7382750598957035
13.400999999998012,1.1772438330076076,-0.7581405297921265
13.600999999997901,1.1945651040043548,-0.7790108014470027
13.80099999999779,1.201352340502821,-0.8084851816207191
14.00099999999768,1.1903604283639104,-0.8364223902105408
14.200999999997569,1.169276440788025,-0.8572769902329596
14.400999999997458,1.1441859079253016,-0.8812520990188412
14.600999999997347,1.1175595766519366,-0.8978777681866359
14.800999999997236,1.089652657164668,-0.9118094453088614
15.000999999997125,1.0579068147220243,-0.9053007298997375
15.200999999997014,1.0208210955059684,-0.8971972456103303
15.400999999996904,0.9932558023711711,-0.8842287078858286
15.600999999996793,0.9802893732243646,-0.8707989144555989
15.800999999996682,0.964699153421382,-0.8556024615619922
16.000999999996573,0.9480102295207936,-0.8363612300611731
16.200999999996817,0.9308399795563805,-0.818660940487308
16.40099999999706,0.9090124072910533,-0.8140569934081021
16.600999999997306,0.8837028555550615,-0.8062547382715257
16.80099999999755,0.8567610160689988,-0.8003805307971125
17.000999999997795,0.8376214028038178,-0.7904554984932959
17.20099999999804,0.8220107602765416,-0.7684153622987064
17.400999999998284,0.798546235591588,-0.749236690547019
17.60099999999853,0.7761451522956219,-0.7287504051348004
17.800999999998773,0.7571373672719105,-0.7048122404442647
18.000999999999017,0.7394624143656844,-0.6808531014607837
18.20099999999926,0.7090589678123138,-0.6662575971301471
18.400999999999506,0.6727451755849504,-0.6542988729571295
18.60099999999975,0.642636591323293,-0.6415211198164142
18.799999999999994,0.6281411835581189,-0.6195907494558544
19.000000000000238,0.6062679022231073,-0.5923154135851172
19.200000000000482,0.5888632558216867,-0.5605979884169991
19.400000000000727,0.593140796076099,-0.5264413085745413
19.60000000000097,0.6130355575086439,-0.49458757552320126
19.800000000001216,0.6207716340035254,-0.46291601529811904
20.00000000000146,0.6387217080159038,-0.4337387828425018
