Time (s),X (m),Y (m)
0.001,0.0006899943756669482,0.0009963285817120476
0.20000000000000015,0.0009091083806144248,0.00014460970763721895
0.4000000000000003,0.0016979114902387147,0.0001766141887006375
0.6000000000000004,0.004049711384503655,0.002006640573027377
0.8000000000000006,0.005707627861650542,0.003989674093696933
1.0000000000000007,0.00847553834496354,0.00504050913060833
1.2009999999999785,0.012663316815659935,0.00931222194674716
1.4009999999999565,0.015048533731411485,0.0074008398941270035
1.6009999999999345,0.01880581696402693,0.01078415308960372
1.8009999999999124,0.022703928630431868,0.011855577230795314
2.0009999999998906,0.025316698665686088,0.012076411433170283
2.2009999999998686,0.028463847714683303,0.014446772343797454
2.4009999999998466,0.02992106088899054,0.01316649059974337
2.6009999999998246,0.032311924462761654,0.014201498270531177
2.8009999999998025,0.03460546963584797,0.014159612898155819
3.0009999999997805,0.0387789600870232,0.018386964507384723
3.2009999999997585,0.043440676697809134,0.0174447871616497
3.4009999999997365,0.04685642788007972,0.015263852027902695
3.6009999999997144,0.051382619513443556,0.015872618757674907
3.8009999999996924,0.053823049990603306,0.01557739468537727
4.000999999999671,0.05784524557165422,0.016531776289874154
4.200999999999738,0.06179020250137074,0.015422877077840964
4.400999999999804,0.0647146552076824,0.01577050949886869
4.600999999999871,0.06771404127396916,0.01652982015562273
4.800999999999938,0.07339559765444036,0.01791535160531109
5.000000000000004,0.07940583154917659,0.017237770387758058
5.200000000000071,0.08575887995478672,0.019276000759159563
5.400000000000138,0.09252185731777779,0.020198985699495093
5.600000000000205,0.09900762489786222,0.023261938613809638
5.800000000000272,0.10765872034284378,0.031612044765566005
6.000000000000338,0.11180486748464767,0.030290157756240242
6.200000000000405,0.1172558167625858,0.031279644623527475
6.400000000000472,0.12449750434752595,0.03261075640374765
6.600000000000539,0.129447349617325,0.03237111334703376
6.800000000000606,0.1351570321868214,0.03312767033065101
7.000000000000672,0.1416889590371924,0.03280351792396295
7.200000000000739,0.14685488921003786,0.03482217324591591
7.400000000000806,0.15180627443261918,0.03300240148243806
7.600000000000873,0.1567769904442425,0.03279971634011884
7.8000000000009395,0.16236154897114427,0.03243678056657895
8.000000000001005,0.16661809680987333,0.031540132009840266
8.200000000000895,0.17225076683566617,0.030633208003087272
8.400000000000784,0.17632853119661152,0.030391913662628247
8.600000000000673,0.18247977783024996,0.031649218410502514
8.800000000000562,0.18783102624384823,0.030578483973632845
9.000000000000451,0.1939769146707968,0.029206342440005872
9.20000000000034,0.1989561450696294,0.031076344432153062
9.40000000000023,0.20561723859022035,0.03228819837204693
9.600000000000119,0.2102139123222876,0.0305791357803811
9.800000000000008,0.21600024619013136,0.03135461732021241
10.000999999999896,0.22064708762457882,0.028671618100437665
10.200999999999786,0.22366913069368236,0.026178798378881186
10.400999999999675,0.22873552114654744,0.025750879626764422
10.600999999999564,0.23418739107418746,0.026654297026089808
10.800999999999453,0.23910957287850176,0.0240307226484624
11.000999999999342,0.2441088784980784,0.021769239945452983
11.200999999999231,0.2505225575468945,0.024923099711844247
11.40099999999912,0.2552194265953804,0.024661995537245296
11.60099999999901,0.2614854856527625,0.0247128773468567
11.800999999998899,0.26646618885697215,0.02250933023417515
12.000999999998788,0.272056294444499,0.02447883035663193
12.200999999998677,0.27958670024811977,0.0253056882315553
12.400999999998566,0.2847914374988611,0.02323761741797685
12.600999999998455,0.29125808131528486,0.02503700338152424
12.800999999998345,0.2961337342126154,0.024024499987623082
13.000999999998234,0.300937125634214,0.022355738382318906
13.200999999998123,0.3067137065672674,0.022327780275318766
13.400999999998012,0.3136018255110116,0.025227379110281164
13.600999999997901,0.31859073190877474,0.02407282524223706
13.80099999999779,0.32430683448445136,0.026115881261555878
14.00099999999768,0.33046135014638583,0.028937327234656827
14.200999999997569,0.3372970661683825,0.03272400999599487
14.400999999997458,0.34362006568975295,0.030930554858102914
14.600999999997347,0.3505464852038802,0.03070352463845665
14.800999999997236,0.35697619197090374,0.029315563806313803
15.000999999997125,0.3639556762925482,0.03089476737624137
15.200999999997014,0.3713580954671211,0.031101559280194695
15.400999999996904,0.3773436996233569,0.032195258318614486
15.600999999996793,0.38404959441184217,0.03688772934020184
15.800999999996682,0.3921593769864762,0.038608743914196934
16.000999999996573,0.4007180883305201,0.040982418982372724
16.200999999996817,0.40596133514911226,0.04032213566197853
16.40099999999706,0.41198299779877473,0.03900386767459192
16.600999999997306,0.4182403211312937,0.042725493779178836
16.80099999999755,0.42577967020627405,0.043545150619990425
17.000999999997795,0.4328078858765331,0.04545969548467421
17.20099999999804,0.43939773940481286,0.04600887332912567
17.400999999998284,0.4483098657072747,0.050845390304090715
17.60099999999853,0.45409271306716864,0.04965299581617207
17.800999999998773,0.4590179811540895,0.04883336426427008
18.000999999999017,0.46527824416708363,0.050106015854754556
18.20099999999926,0.47066293745015714,0.04977533932952406
18.400999999999506,0.47593807306008207,0.04998435640303614
18.60099999999975,0.4829193294780318,0.049634198643844094
18.799999999999994,0.4875793295682275,0.048505614115454114
19.000000000000238,0.49149766251448435,0.04747839166069647
19.200000000000482,0.4974917477737629,0.04941848270355612
19.400000000000727,0.5031024202865167,0.050509075328613866
19.60000000000097,0.5095854953714843,0.054211841617835356
19.800000000001216,0.516846679174456,0.055309685348385096
20.00000000000146,0.5229062117621444,0.0531438996540155
