Time (s),X (m),Y (m)
0.001,0.00042302893680115855,0.0010314752485082437
0.20000000000000015,0.0008640515608919928,0.00022768854062715495
0.4000000000000003,0.0014720628737402808,5.874311830888949e-05
0.6000000000000004,0.002571056996696555,0.0004888955687004606
0.8000000000000006,0.005009732325772822,-0.00045067269704612015
1.0000000000000007,0.007627970067386206,-0.00034422790228209345
1.2009999999999785,0.010269472812382082,-0.0011011417001951839
1.4009999999999565,0.012906506407559833,-0.00023140494232283247
1.6009999999999345,0.015827296521227725,-0.0012930592713510912
1.8009999999999124,0.018644101622709904,-0.0008881771606332584
2.0009999999998906,0.021640490478069707,-0.0009513654133788546
2.2009999999998686,0.02471991395635923,-0.000968465806376903
2.4009999999998466,0.02793726259041221,-1.9090627165410363e-05
2.6009999999998246,0.031705713444279096,0.0016173803282494277
2.8009999999998025,0.0360897139520383,0.005225470921057068
3.0009999999997805,0.039727135552593676,0.007159843373038913
3.2009999999997585,0.04282741066780018,0.005813925858075968
3.4009999999997365,0.045957897876144044,0.004708264424052051
3.6009999999997144,0.048594629977271764,0.004146678988411053
3.8009999999996924,0.05169079771544306,0.0018744250087392596
4.000999999999671,0.05467271732365674,0.0010293535777354305
4.200999999999738,0.05832548082824413,-0.0006003359921764829
4.400999999999804,0.06277740425399739,-0.0006213129025515842
4.600999999999871,0.06768477960875155,0.002858247489499199
4.800999999999938,0.07078730947191007,0.0009753025996536372
5.000000000000004,0.07404429189967726,0.00023044744079712376
5.200000000000071,0.07784317496109167,-0.0012081249212255096
5.400000000000138,0.08114407677904713,-0.000708574606014966
5.600000000000205,0.08456686683145642,-0.00040051841662938777
5.800000000000272,0.08794450303178161,-0.001029000082205466
6.000000000000338,0.0912110796236787,-0.002744630142033663
6.200000000000405,0.09395194928097528,-0.006032641833188933
6.400000000000472,0.09772746353625446,-0.007082869677810881
6.600000000000539,0.10195519118628327,-0.003908382773353974
6.800000000000606,0.10434276014042826,-0.007412884314406719
7.000000000000672,0.10842190846156227,-0.008182265070991518
7.200000000000739,0.11198502628043815,-0.009897989462993107
7.400000000000806,0.11602523427809132,-0.009971598112967401
7.600000000000873,0.1186693807112522,-0.012807108149767056
7.8000000000009395,0.12114220025904528,-0.01573548808831087
8.000000000001005,0.12469198714055726,-0.019994443488624676
8.200000000000895,0.12777849626654575,-0.021800805547436554
8.400000000000784,0.1330788879988951,-0.019641683490609255
8.600000000000673,0.1380176165790202,-0.020597161259958557
8.800000000000562,0.14115768745088259,-0.021954576035531755
9.000000000000451,0.14397575019635925,-0.025162283416984836
9.20000000000034,0.14675647354390092,-0.026256015317497532
9.40000000000023,0.1497144250039385,-0.029794804280886183
9.600000000000119,0.15295739786621732,-0.032269357186664197
9.800000000000008,0.15603431082521177,-0.035343314717754884
10.000999999999896,0.15955206730404747,-0.036959929934420876
10.200999999999786,0.1638536614473444,-0.03635613251084618
10.400999999999675,0.16888462269294569,-0.03459664585608853
10.600999999999564,0.17248973964021472,-0.0359752286582522
10.800999999999453,0.17595082240555,-0.03656786522224446
11.000999999999342,0.17936103511692564,-0.038229437939988516
11.200999999999231,0.18246562374083145,-0.039806480193607406
11.40099999999912,0.186439003327126,-0.041924109703950246
11.60099999999901,0.18963996425805912,-0.04243341678465407
11.800999999998899,0.192353853943649,-0.046072307930621954
12.000999999998788,0.19558717322192673,-0.04778169366745344
12.200999999998677,0.1984256740672741,-0.052279417996541386
12.400999999998566,0.20206510044922635,-0.05438298810299191
12.600999999998455,0.20557793423804,-0.056813694854102786
12.800999999998345,0.21005194269701394,-0.05620136700129278
13.000999999998234,0.21326495904469986,-0.057343525639289974
13.200999999998123,0.21570754298592407,-0.06155703334406456
13.400999999998012,0.2190119621640746,-0.06352736975538369
13.600999999997901,0.22235726733443353,-0.06742523529831006
13.80099999999779,0.2258348299200269,-0.06947032051845314
14.00099999999768,0.22943177594833908,-0.07183127553069255
14.200999999997569,0.23227667584621106,-0.07503017062344554
14.400999999997458,0.23577700574694918,-0.08096531351600164
14.600999999997347,0.23921334876778202,-0.08350437883532431
14.800999999997236,0.24254822449571592,-0.08718845972511391
15.000999999997125,0.24573140630213117,-0.08928490061203605
15.200999999997014,0.2490198334026887,-0.09126359765970662
15.400999999996904,0.2530157806232515,-0.09102478748504308
15.600999999996793,0.2578576264893015,-0.09135407697020399
15.800999999996682,0.2622314178257358,-0.09386922315793532
16.000999999996573,0.26619029934082605,-0.0953172344277304
16.200999999996817,0.2689560737378007,-0.0971700386399011
16.40099999999706,0.273246249820508,-0.09794120231195734
16.600999999997306,0.2770491887079997,-0.10113650627223997
16.80099999999755,0.28016363816501516,-0.10340708496134499
17.000999999997795,0.2837383608103168,-0.10546038608547843
17.20099999999804,0.2871535850154801,-0.10693130159625333
17.400999999998284,0.29074161694542794,-0.10962164119938012
17.60099999999853,0.293707210377059,-0.11436202468508957
17.800999999998773,0.29687554962858276,-0.11688140265637545
18.000999999999017,0.3003637790619115,-0.12071958536939834
18.20099999999926,0.3046101713680089,-0.12182834176854844
18.400999999999506,0.30944256431337785,-0.11901012431785526
18.60099999999975,0.31339485337707496,-0.12009608932732772
18.799999999999994,0.316651673385841,-0.12352591300256079
19.000000000000238,0.31998267746073233,-0.12640304195717564
19.200000000000482,0.32338642044577154,-0.13199691830540536
19.400000000000727,0.32726657168566387,-0.13205701127256964
19.60000000000097,0.3299105793599029,-0.13662957671569118
19.800000000001216,0.3335221587508014,-0.13919118592763444
20.00000000000146,0.3367461504178478,-0.14165113617962646
