Time (s),X (m),Y (m)
0.001,0.001152392079647418,0.0007293631428462583
0.20000000000000015,0.0009590013279718308,5.907281261745253e-05
0.4000000000000003,0.0014706214403321617,0.0002770816051188741
0.6000000000000004,0.0021425296292581935,0.0005260496448095577
0.8000000000000006,0.003208317426222449,0.0011903288695302976
1.0000000000000007,0.0041613473275407785,0.0016965887345991163
1.2009999999999785,0.005194566284221384,0.002299464024250122
1.4009999999999565,0.006247704808378012,0.002965084446142382
1.6009999999999345,0.007331105025658266,0.003686291459115985
1.8009999999999124,0.00846967506468504,0.004484378311358149
2.0009999999998906,0.00963644743437589,0.005312681104346194
2.2009999999998686,0.010833453398940724,0.006168594247689239
2.4009999999998466,0.012062743467454614,0.007065396800333572
2.6009999999998246,0.01332018694146032,0.008009156404086908
2.8009999999998025,0.014596934154302531,0.008991299248210459
3.0009999999997805,0.01588712735547336,0.01000412188509593
3.2009999999997585,0.017190732642529457,0.011045797798511068
3.4009999999997365,0.018504674612257223,0.012113960409809997
3.6009999999997144,0.019828016353943136,0.013208451377972698
3.8009999999996924,0.021159056528689588,0.01432836669473937
4.000999999999671,0.022496900434598868,0.015473506593713231
4.200999999999738,0.023841269755346298,0.01664326810471969
4.400999999999804,0.02519161497774084,0.017836516956490925
4.600999999999871,0.026547481738049092,0.019052209878657612
4.800999999999938,0.027908227703858444,0.020289662810281474
5.000000000000004,0.029273812307001084,0.021559834985745874
5.200000000000071,0.03064209144075157,0.02283924470093717
5.400000000000138,0.03201310653420015,0.024138912042123956
5.600000000000205,0.03338650699636934,0.02545855600703072
5.800000000000272,0.034761994954048324,0.02679777862423015
6.000000000000338,0.03613876319576027,0.02815558741009511
6.200000000000405,0.03751599484217575,0.02953124208925009
6.400000000000472,0.03889322417427222,0.030924369504270566
6.600000000000539,0.0402696427996897,0.03233446225275437
6.800000000000606,0.041644617645759684,0.03376087248191069
7.000000000000672,0.04301751560063806,0.03520318257881478
7.200000000000739,0.04438762362210975,0.03666110618745018
7.400000000000806,0.04575422472413179,0.03813410938119222
7.600000000000873,0.04711644764816324,0.03962166954960963
7.8000000000009395,0.04847310943395966,0.04112295333448876
8.000000000001005,0.049822842671503484,0.04263717507344843
8.200000000000895,0.05116128324263512,0.04416149458343447
8.400000000000784,0.05248084522996366,0.045691631807437294
8.600000000000673,0.0537803927669353,0.047227770361842544
8.800000000000562,0.05505930826056757,0.04877002263354366
9.000000000000451,0.056316810822100466,0.05031805789171349
9.20000000000034,0.05755229498904454,0.0518715781728605
9.40000000000023,0.058765308546116765,0.053430351926706296
9.600000000000119,0.0599554702945072,0.05499413737514808
9.800000000000008,0.06112218405217098,0.05656253857069601
10.000999999999896,0.062269624501169234,0.05812464370623949
10.200999999999786,0.06338767785431909,0.0597010082305914
10.400999999999675,0.06448051554694055,0.061280805074338536
10.600999999999564,0.06554784002596474,0.06286384938427157
10.800999999999453,0.06658796180887308,0.06445002604232697
11.000999999999342,0.06758588787801018,0.0660401136031972
11.200999999999231,0.06853704518898261,0.0676341391245674
11.40099999999912,0.06944070007084839,0.06923200524038123
11.60099999999901,0.0702968758357425,0.07083361924481694
11.800999999998899,0.07110530583735569,0.07243871486080092
12.000999999998788,0.0718502130894173,0.07404845270917156
12.200999999998677,0.07251493283362788,0.07566224980479831
12.400999999998566,0.07310012837400855,0.07727922985399677
12.600999999998455,0.07360716148167697,0.07889884017820525
12.800999999998345,0.07403848533673422,0.08052066929317324
13.000999999998234,0.07439639125499875,0.08214478838215634
13.200999999998123,0.0746836978235177,0.08377093089530356
13.400999999998012,0.07490280888541827,0.08539902017640598
13.600999999997901,0.07505611151509281,0.08702909687427876
13.80099999999779,0.0751460038108771,0.08866121185557502
14.00099999999768,0.07517533083308549,0.09029539756743982
14.200999999997569,0.0751460579460594,0.09193160169770166
14.400999999997458,0.07506085217362901,0.09356992492692892
14.600999999997347,0.07492190471038677,0.0952104330684147
14.800999999997236,0.07473117287220099,0.09685319558635389
15.000999999997125,0.074491018364816,0.09849838916766014
15.200999999997014,0.07420343717582362,0.10014609317181358
15.400999999996904,0.0738705352141519,0.10179647252348127
15.600999999996793,0.07349502502555531,0.1034498288752827
15.800999999996682,0.07308772451030485,0.10510819615119057
16.000999999996573,0.07265381369572158,0.10677272126727066
16.200999999996817,0.07219381430753198,0.10844335645253861
16.40099999999706,0.07170846134474573,0.11012002933495922
16.600999999997306,0.07119828271773614,0.11180259178953444
16.80099999999755,0.07066381806824638,0.11349089879530598
17.000999999997795,0.07010559267741025,0.11518485400909824
17.20099999999804,0.06952412768415663,0.11688438671447403
17.400999999998284,0.06891985011560696,0.1185893696731552
17.60099999999853,0.06829315796695104,0.12029959358938395
17.800999999998773,0.06764446424071904,0.12201491315287072
18.000999999999017,0.06697414344660375,0.12373520761872496
18.20099999999926,0.06628249688564634,0.12546034929741823
18.400999999999506,0.06556982627495081,0.1271902161006712
18.60099999999975,0.06483647181198654,0.12892470315807297
18.799999999999994,0.06408052144732787,0.13067176895593358
19.000000000000238,0.0633067024015812,0.13241503143198705
19.200000000000482,0.0625130266539706,0.13416253434288533
19.400000000000727,0.061699782749864034,0.1359141180045585
19.60000000000097,0.06086711520987821,0.13766954882539287
19.800000000001216,0.06001535997446653,0.13942874815967193
20.00000000000146,0.059144775699533796,0.14119162345034364
