Time (s),X (m),Y (m)
0.001,0.0010146588340248276,-0.0008449350584490237
0.20000000000000015,0.0007094315893883371,0.0002587128060935408
0.4000000000000003,0.001297889302090952,-0.0003148005417782982
0.6000000000000004,0.001810162029014253,-0.0005794564196203479
0.8000000000000006,0.0023377399768146523,-0.0007461062865476172
1.0000000000000007,0.003030737198452151,-0.00125081988375197
1.2009999999999785,0.0037598497058470215,-0.001814545194068713
1.4009999999999565,0.004395422898280334,-0.0022397862370638726
1.6009999999999345,0.004993909705556267,-0.002610042018375451
1.8009999999999124,0.005642323210535141,-0.0030549423065291716
2.0009999999998906,0.006359429909244528,-0.0036056251387212787
2.2009999999998686,0.0071203392269155045,-0.004220579337725442
2.4009999999998466,0.00789983072950212,-0.004860215879678034
2.6009999999998246,0.008684274140374062,-0.005502877744767902
2.8009999999998025,0.0094733633712455,-0.00615131792374821
3.0009999999997805,0.010277239418171923,-0.006818123601839721
3.2009999999997585,0.011102354964043838,-0.007510136877598747
3.4009999999997365,0.011948002824846668,-0.008227033561075224
3.6009999999997144,0.012812476052205795,-0.008965391168372826
3.8009999999996924,0.013692614373434732,-0.009720769994037173
4.000999999999671,0.014586227936259435,-0.010489836501635657
4.200999999999738,0.015492095043363381,-0.011271185940021976
4.400999999999804,0.01641032579934983,-0.012064727297060368
4.600999999999871,0.01734132722709568,-0.012869968843761202
4.800999999999938,0.018284979269523282,-0.013685949925532133
5.000000000000004,0.019222847516678274,-0.014484188314178626
5.200000000000071,0.020191828193405585,-0.015318525330900836
5.400000000000138,0.021173304548238854,-0.016159334742834732
5.600000000000205,0.022167217829245245,-0.017005539703327903
5.800000000000272,0.023173554225443597,-0.01785717768119244
6.000000000000338,0.024192691420676524,-0.018714072771414614
6.200000000000405,0.025224766877308524,-0.01957595844056444
6.400000000000472,0.02626974932332086,-0.020442427644332534
6.600000000000539,0.02732745731347776,-0.021313335701536595
6.800000000000606,0.028397746307542975,-0.022188256384737648
7.000000000000672,0.029480532279957863,-0.02306705109965515
7.200000000000739,0.03057613934679457,-0.023949882662412318
7.400000000000806,0.03168454145155887,-0.024836507264375425
7.600000000000873,0.03280558876522581,-0.025726746884044163
7.8000000000009395,0.033939117266412556,-0.026620530114407452
8.000000000001005,0.03508514504607653,-0.027517697372510978
8.200000000000895,0.03624353149976854,-0.028418284177138715
8.400000000000784,0.03741424569170278,-0.029322222861784313
8.600000000000673,0.0385974203602078,-0.030229463817044923
8.800000000000562,0.03979318364745093,-0.031139760914414248
9.000000000000451,0.0410016068134368,-0.03205282114814844
9.20000000000034,0.04222251057789733,-0.03296832933297821
9.40000000000023,0.04345568452727529,-0.0338860658187732
9.600000000000119,0.044701086474879144,-0.03480574097356053
9.800000000000008,0.04595861154982023,-0.03572703875986137
10.000999999999896,0.047252339097150445,-0.03667411569498386
10.200999999999786,0.04853424311520129,-0.03759759034626322
10.400999999999675,0.04982830942429506,-0.03852210719496329
10.600999999999564,0.05113448420323909,-0.039447440196465317
10.800999999999453,0.052452583356151286,-0.04037340739437184
11.000999999999342,0.0537823741809873,-0.041299834463538715
11.200999999999231,0.05512366180239201,-0.04222637655782077
11.40099999999912,0.05647624019635103,-0.04315269403278564
11.60099999999901,0.05783983370544041,-0.04407849759174694
11.800999999998899,0.05921420163266818,-0.04500349847124169
12.000999999998788,0.06059921945196775,-0.045927367459207204
12.200999999998677,0.06199480088754778,-0.04684991504039787
12.400999999998566,0.0634013244651417,-0.04777083325814618
12.600999999998455,0.06481862724893961,-0.048689792199375054
12.800999999998345,0.06624649524636432,-0.04960645772931973
13.000999999998234,0.06768472571022775,-0.050520606710596536
13.200999999998123,0.06913309251643002,-0.05143195666347378
13.400999999998012,0.07057294208825526,-0.05237338048464652
13.600999999997901,0.07208672491588904,-0.05332031267632459
13.80099999999779,0.07359513915760667,-0.05428919736227169
14.00099999999768,0.07511344961312903,-0.05526273005191352
14.200999999997569,0.07664032006528002,-0.05623093203909197
14.400999999997458,0.07817652995676454,-0.05724523141841991
14.600999999997347,0.07975963894071188,-0.05827869084283673
14.800999999997236,0.08135373404823384,-0.059305558578507354
15.000999999997125,0.08297456248242609,-0.06033511220317157
15.200999999997014,0.0846449838999257,-0.061392955672625
15.400999999996904,0.08628305216261054,-0.06243155301386117
15.600999999996793,0.0879904354931262,-0.06350728018758806
15.800999999996682,0.08971141448853491,-0.06457230076884285
16.000999999996573,0.09147247308081546,-0.06563552231700366
16.200999999996817,0.09322894030159212,-0.06667817894390479
16.40099999999706,0.09501278058645377,-0.0677137534942944
16.600999999997306,0.09679268779964062,-0.06872975486785278
16.80099999999755,0.09859887446378673,-0.06973697266109687
17.000999999997795,0.10037707621908375,-0.07071416051788214
17.20099999999804,0.102180339770299,-0.07168240644416554
17.400999999998284,0.10399162225962105,-0.07263163735380815
17.60099999999853,0.10582617808973833,-0.07357346494623071
17.800999999998773,0.10763389435934265,-0.0744847503960629
18.000999999999017,0.10945418435330301,-0.07537782655449797
18.20099999999926,0.11131555894848902,-0.07625816049487878
18.400999999999506,0.11316837059081246,-0.07711502948991357
18.60099999999975,0.11502104506370348,-0.07794949127241832
18.799999999999994,0.11683755435648753,-0.07874831189403649
19.000000000000238,0.11875374117706847,-0.07956329554190102
19.200000000000482,0.12061313806439765,-0.08033517478996963
19.400000000000727,0.12247005319852555,-0.08108300910580836
19.60000000000097,0.12432474476656337,-0.08180697045037365
19.800000000001216,0.12622694828986403,-0.08251926852273404
20.00000000000146,0.12813098319273,-0.0831969725238549
