Time (s),X (m),Y (m)
0.001,-0.00036712694553334754,0.0006630195094394434
0.20000000000000015,0.0008054681487436255,-0.0001252398194884498
0.4000000000000003,0.000991990408576716,-0.00018090693256454291
0.6000000000000004,-0.0009574929799551348,0.0001240425687665787
0.8000000000000006,0.005161795526849859,-0.0027403361917609434
1.0000000000000007,0.01056518637995682,-0.004834333981132905
1.2009999999999785,0.016480705435509738,-0.006120930059303133
1.4009999999999565,0.021232992854863325,-0.006898617111662472
1.6009999999999345,0.02667922365053187,-0.006779185196533905
1.8009999999999124,0.03575318139047936,-0.013179803275488629
2.0009999999998906,0.04636399963016184,-0.019459371840327304
2.2009999999998686,0.056568846676309015,-0.022079662723084467
2.4009999999998466,0.06712731586309652,-0.02656663723627554
2.6009999999998246,0.07366673999822686,-0.028530592521645935
2.8009999999998025,0.07934798708552246,-0.028553153439559376
3.0009999999997805,0.08994402872112794,-0.029174878211821624
3.2009999999997585,0.10083464234505107,-0.033107100337447515
3.4009999999997365,0.10829645693312491,-0.03521670901595979
3.6009999999997144,0.11807725027189055,-0.037903301232655194
3.8009999999996924,0.12629933497634127,-0.039133726448439224
4.000999999999671,0.1355388573161128,-0.04200445027771587
4.200999999999738,0.13820053426688403,-0.04089909721583744
4.400999999999804,0.14289176082842295,-0.038959822515914684
4.600999999999871,0.1531517284711731,-0.03902588966882664
4.800999999999938,0.16550896934167744,-0.03969781495717935
5.000000000000004,0.1750423671806894,-0.042767959989222525
5.200000000000071,0.18421152294455798,-0.04527543221939848
5.400000000000138,0.19670057905586774,-0.04650510981999216
5.600000000000205,0.20727499996274862,-0.04853203349145318
5.800000000000272,0.21838475842110103,-0.04717972583196886
6.000000000000338,0.2296819498981346,-0.04886786416464859
6.200000000000405,0.24155505271574298,-0.049343206408893045
6.400000000000472,0.24830654734417054,-0.05054123554123829
6.600000000000539,0.256816966890585,-0.05215135457378145
6.800000000000606,0.26684870389025717,-0.05298092327894029
7.000000000000672,0.277668902514318,-0.054804046842084765
7.200000000000739,0.28574181271914323,-0.054809204410779695
7.400000000000806,0.29718616259805475,-0.05464666548048968
7.600000000000873,0.3070202266823602,-0.054390316254677586
7.8000000000009395,0.3195245746926792,-0.055628512976916414
8.000000000001005,0.3294997546481617,-0.05629284536287435
8.200000000000895,0.33482867916378334,-0.05729790343215855
8.400000000000784,0.3479061028013341,-0.05912937434123891
8.600000000000673,0.3603232879211234,-0.06157688195760425
8.800000000000562,0.36859433963447,-0.06012539390069127
9.000000000000451,0.37626824120089664,-0.05878069052547767
9.20000000000034,0.38705351661105875,-0.05921790511439951
9.40000000000023,0.40095456724188266,-0.061244886871908266
9.600000000000119,0.41012384975967836,-0.06259648340681105
9.800000000000008,0.41842450161244943,-0.06119467360379599
10.000999999999896,0.4288607719136528,-0.059793881620634794
10.200999999999786,0.4413969249347178,-0.06155708452719056
10.400999999999675,0.4523404867282093,-0.06332309130191567
10.600999999999564,0.4609533898287992,-0.06323161405862184
10.800999999999453,0.47175744699969036,-0.06315803584047748
11.000999999999342,0.4857938825620325,-0.06194250626927082
11.200999999999231,0.4937090613615705,-0.0601252895960276
11.40099999999912,0.50782408803283,-0.058942633195145325
11.60099999999901,0.5200109890295183,-0.060841167730938304
11.800999999998899,0.5363576607913222,-0.06301113869074396
12.000999999998788,0.5485616066927921,-0.06349766876451504
12.200999999998677,0.5592580947908209,-0.06006389152492698
12.400999999998566,0.5676824867558963,-0.05712852947045865
12.600999999998455,0.5795327869099536,-0.056331096443901114
12.800999999998345,0.5921442607160269,-0.05385875493866135
13.000999999998234,0.6022972453693515,-0.05024264409659427
13.200999999998123,0.6082474163470647,-0.04692753366162917
13.400999999998012,0.6200158545231791,-0.042621305917602284
13.600999999997901,0.627684592161593,-0.040017988522886155
13.80099999999779,0.6343929514082348,-0.038467043626529966
14.00099999999768,0.6465801530629741,-0.037073766942549644
14.200999999997569,0.655988593780459,-0.037076290235849074
14.400999999997458,0.6601206600911868,-0.03383707483050624
14.600999999997347,0.670291925039897,-0.03185521454401448
14.800999999997236,0.6771133449396384,-0.028324289186453966
15.000999999997125,0.6826938977751719,-0.025904331304411374
15.200999999997014,0.6881681865501349,-0.021962277717954237
15.400999999996904,0.7000375663798423,-0.022470226935008518
15.600999999996793,0.7127737936868679,-0.020829769209367025
15.800999999996682,0.7229292015821701,-0.016728825594547768
16.000999999996573,0.7302415840383484,-0.010599317655939404
16.200999999996817,0.7347188820196469,-0.007312309046475238
16.40099999999706,0.7427454733265837,-0.005313980417036948
16.600999999997306,0.7536488097123615,-0.002837778344148944
16.80099999999755,0.7634204543006321,-0.0010493299980116836
17.000999999997795,0.7726606196127012,0.0003485779226577744
17.20099999999804,0.7751620844076523,0.003248287059861548
17.400999999998284,0.7836475687781359,0.006284907607241102
17.60099999999853,0.7920484968603917,0.008065340156162061
17.800999999998773,0.8038630902407095,0.010905458194763556
18.000999999999017,0.8075066588166828,0.01423603018237555
18.20099999999926,0.8109188518453172,0.01821299825950106
18.400999999999506,0.8162027111611886,0.02141740191550631
18.60099999999975,0.8257813082453498,0.02628481207219023
18.799999999999994,0.8396828113042051,0.027919815694704045
19.000000000000238,0.8481748157627379,0.029784254781304514
19.200000000000482,0.8617790566077046,0.030031665234682613
19.400000000000727,0.8712253580804151,0.029693444000014554
19.60000000000097,0.8791823636148859,0.03008607355501304
19.800000000001216,0.8918221087680342,0.031925193169927764
20.00000000000146,0.9053915458932078,0.03325960743276512
