Time (s),X (m),Y (m)
0.001,0.0013163127053841656,-0.0005157376242541218
0.20000000000000015,0.0002595333214947986,0.00033904829621591697
0.4000000000000003,5.9740872523268616e-05,0.0010288351046830008
0.6000000000000004,0.005594206012248491,0.0030141488685625955
0.8000000000000006,0.00957645516996407,-0.0006654250502022705
1.0000000000000007,0.021901974203834332,-0.009445218052709401
1.2009999999999785,0.03666061918867389,-0.012788971059861575
1.4009999999999565,0.04420874860938418,-0.010385781672289396
1.6009999999999345,0.05629641771706453,-0.015659887210220925
1.8009999999999124,0.07644632507893735,-0.030814999537277052
2.0009999999998906,0.10094545063636187,-0.04525851569525327
2.2009999999998686,0.11250524674125761,-0.05198180768712841
2.4009999999998466,0.11964034643661542,-0.054196438664928785
2.6009999999998246,0.13365466944303242,-0.057885261684672375
2.8009999999998025,0.1530227579082068,-0.0615984212200834
3.0009999999997805,0.16768569754175594,-0.06805185739794124
3.2009999999997585,0.18893512134994528,-0.0779783212366599
3.4009999999997365,0.20407748690033098,-0.08455855694504735
3.6009999999997144,0.22197075933245078,-0.09609830011178624
3.8009999999996924,0.24421282319451665,-0.09885374520181588
4.000999999999671,0.26759552691332555,-0.11080440658603395
4.200999999999738,0.28783202645874545,-0.13128682631664076
4.400999999999804,0.306219513237134,-0.1410437802000426
4.600999999999871,0.3222969597742049,-0.15615032959387154
4.800999999999938,0.34555828981803466,-0.17527747712695718
5.000000000000004,0.3691252943693466,-0.19771719780976826
5.200000000000071,0.39276875459356053,-0.22798908923247854
5.400000000000138,0.4162645590444069,-0.24071224288928447
5.600000000000205,0.44053026298051584,-0.26179017488570794
5.800000000000272,0.4651825601393622,-0.28300486985395656
6.000000000000338,0.4888464577799521,-0.302629662095653
6.200000000000405,0.5032557588676813,-0.32993653509445114
6.400000000000472,0.5152549828965824,-0.3436539090285314
6.600000000000539,0.5322043442231582,-0.35780884340933483
6.800000000000606,0.5524990123764653,-0.378014869893673
7.000000000000672,0.5651028354434755,-0.3889442313413343
7.200000000000739,0.5694969599676243,-0.4117425055081902
7.400000000000806,0.5704571262628377,-0.4389370119890688
7.600000000000873,0.5620359425616698,-0.46517134276904043
7.8000000000009395,0.5594335139102953,-0.4892499410493796
8.000000000001005,0.5536763279077791,-0.5221901851133622
8.200000000000895,0.5402347470076552,-0.5576864909535748
8.400000000000784,0.5171192213835629,-0.5979042516764187
8.600000000000673,0.506972245369344,-0.6303217777842053
8.800000000000562,0.49506556318086337,-0.6630227677544605
9.000000000000451,0.48397239564371,-0.6991268631720757
9.20000000000034,0.465867694181681,-0.7314845878467525
9.40000000000023,0.44632013790141384,-0.7563845789223332
9.600000000000119,0.42475355045647106,-0.7802435905776821
9.800000000000008,0.3982445831811398,-0.8043415753869771
10.000999999999896,0.36551659372212075,-0.8202834310839626
10.200999999999786,0.3304998799269917,-0.8261827150062908
10.400999999999675,0.30009492909957175,-0.8225410143217217
10.600999999999564,0.2688258022458543,-0.8133343825498566
10.800999999999453,0.23907299234028168,-0.8034770788569179
11.000999999999342,0.2036694775642578,-0.7884410720412776
11.200999999999231,0.17210597871517527,-0.7761345824242262
11.40099999999912,0.13513498307794714,-0.767880717650302
11.60099999999901,0.09171461195960252,-0.7572245166116587
11.800999999998899,0.04927310914283833,-0.741812196191676
12.000999999998788,0.010588672614192142,-0.7272197543524955
12.200999999998677,-0.029886618351197474,-0.7096662508444211
12.400999999998566,-0.06646029170546483,-0.6931900223922183
12.600999999998455,-0.09997364167755364,-0.684834918241765
12.800999999998345,-0.13440120376284267,-0.6766317668142674
13.000999999998234,-0.17474202509799397,-0.6641786963196181
13.200999999998123,-0.21398570053621052,-0.6483504674341438
13.400999999998012,-0.25217903671007513,-0.6331518071708415
13.600999999997901,-0.29275915628563975,-0.6137284499358518
13.80099999999779,-0.33110758297396864,-0.5982465616720852
14.00099999999768,-0.3672600592987774,-0.581890943147898
14.200999999997569,-0.3981066436234144,-0.5677621185768285
14.400999999997458,-0.43374269536104215,-0.5491877904089411
14.600999999997347,-0.4787455213303972,-0.5301929442698795
14.800999999997236,-0.5228088562942516,-0.4979290083809113
15.000999999997125,-0.5503376507859271,-0.45244849731597087
15.200999999997014,-0.5605895389071354,-0.3986248549800193
15.400999999996904,-0.5515308860941134,-0.3453130120980434
15.600999999996793,-0.544526715549351,-0.3041585013850984
15.800999999996682,-0.5409298119598593,-0.26985806639476434
16.000999999996573,-0.5318808304888117,-0.22883350290006882
16.200999999996817,-0.5126487536240315,-0.1776050656383361
16.40099999999706,-0.4834617310942685,-0.1216676482309478
16.600999999997306,-0.45231630847275656,-0.06925433841773712
16.80099999999755,-0.42645371762549095,-0.021358018784194317
17.000999999997795,-0.39733636756699625,0.025902212022957737
17.20099999999804,-0.36698140599618573,0.06390428103115943
17.400999999998284,-0.3308039162659953,0.08350099414593687
17.60099999999853,-0.2821961427267955,0.08498136774857244
17.800999999998773,-0.22889628406645487,0.06990571636069791
18.000999999999017,-0.17867008171029508,0.046153717774042875
18.20099999999926,-0.1324383195939247,0.025623003691640302
18.400999999999506,-0.0810281342094921,0.005354264824707419
18.60099999999975,-0.021677524803030958,-0.01703912051887968
18.799999999999994,0.028735855944997227,-0.03677277105404895
19.000000000000238,0.08001139352386094,-0.06015925169702711
19.200000000000482,0.1270649758788235,-0.08052952989933534
19.400000000000727,0.17005421718609842,-0.11040099608004374
19.60000000000097,0.20971158616525448,-0.1411778346570844
19.800000000001216,0.24130429226099284,-0.17506026214611667
20.00000000000146,0.25793160474859583,-0.22024152147929804
