Time (s),X (m),Y (m)
0.001,0.0013578629866597446,-0.0004359202765531099
0.20000000000000015,0.0007318884546133878,-1.13003468009544e-05
0.4000000000000003,0.0015144870079677089,-0.00037139535539893294
0.6000000000000004,0.002367441469650828,-0.0008370616977650977
0.8000000000000006,0.003490088089582717,-0.0015548636356890373
1.0000000000000007,0.004889772365564583,-0.0023797036663313503
1.2009999999999785,0.006135387374900217,-0.003251486965289827
1.4009999999999565,0.007511146526430158,-0.00409006092531324
1.6009999999999345,0.009233836392782363,-0.005026858924665714
1.8009999999999124,0.010908510016832228,-0.006071899186477031
2.0009999999998906,0.012774031533590554,-0.007109508766409671
2.2009999999998686,0.014975310897458455,-0.008145458027646808
2.4009999999998466,0.017316881338483876,-0.009214127386981108
2.6009999999998246,0.019893485481277003,-0.010392161913880099
2.8009999999998025,0.022547258570327938,-0.011621311540757781
3.0009999999997805,0.025376606582085647,-0.012882996519732435
3.2009999999997585,0.028171868958190658,-0.014074717991840782
3.4009999999997365,0.030854728755835677,-0.015232740967092873
3.6009999999997144,0.03359152307881665,-0.01639698772254407
3.8009999999996924,0.036382680239680526,-0.01748949232720093
4.000999999999671,0.03920484135161836,-0.018568895088312998
4.200999999999738,0.04193642493885513,-0.019546913459136353
4.400999999999804,0.0446307136558224,-0.020434098729041457
4.600999999999871,0.047338682546347335,-0.021262189629067185
4.800999999999938,0.049880151023341125,-0.022102742588018223
5.000000000000004,0.05234321939971369,-0.022787430847134436
5.200000000000071,0.05469241745497309,-0.02336837749128234
5.400000000000138,0.05702773929938803,-0.023839695856813763
5.600000000000205,0.05976908345961142,-0.024332929242171144
5.800000000000272,0.062436317423912785,-0.02470361628399455
6.000000000000338,0.06504888485040665,-0.024912533216165093
6.200000000000405,0.06774597744122722,-0.024955920822314143
6.400000000000472,0.07003769383602147,-0.02483058850273324
6.600000000000539,0.07250935663969642,-0.02447897743925079
6.800000000000606,0.0750814025453646,-0.024072528721632052
7.000000000000672,0.07773832193315007,-0.02349287911978133
7.200000000000739,0.08040496860904649,-0.02282856347348296
7.400000000000806,0.0829938623407787,-0.02191408723851712
7.600000000000873,0.08538331171837553,-0.020906315767364264
7.8000000000009395,0.08775898424280369,-0.019705015750048235
8.000000000001005,0.09023058102659154,-0.0184667245881195
8.200000000000895,0.09271005735930342,-0.016897421013469298
8.400000000000784,0.09512906747297703,-0.015328626012095992
8.600000000000673,0.09739742357155283,-0.01355928955520946
8.800000000000562,0.09982149426883821,-0.011650122968889051
9.000000000000451,0.1023898218803563,-0.009739642962207152
9.20000000000034,0.10483384132844059,-0.0075429980073797006
9.40000000000023,0.10729616174346367,-0.0051088881241301625
9.600000000000119,0.10983335355475951,-0.002665404792622932
9.800000000000008,0.11243447260844293,-3.416550695501408e-05
10.000999999999896,0.11472877321287206,0.0029287388089677922
10.200999999999786,0.11716046104076423,0.00606334802884817
10.400999999999675,0.1197323279254946,0.009333074598443
10.600999999999564,0.12196514220255364,0.012785164909241649
10.800999999999453,0.12418647884363829,0.01626050299595066
11.000999999999342,0.12657853181155926,0.01983420835148285
11.200999999999231,0.1290257465997824,0.023507183109382636
11.40099999999912,0.13166692257769366,0.02757726729677056
11.60099999999901,0.13392635770040312,0.03163853930201592
11.800999999998899,0.13619129304244806,0.03572121830701539
12.000999999998788,0.13860737821207195,0.039934919465110005
12.200999999998677,0.14105940701967254,0.04439444261250704
12.400999999998566,0.14331649679457745,0.04886775328619538
12.600999999998455,0.14587250229154264,0.0536420272182039
12.800999999998345,0.14817446525154657,0.05886593101130682
13.000999999998234,0.1517898609216023,0.06359219386360081
13.200999999998123,0.15487194336699217,0.06873293529984516
13.400999999998012,0.15819962680182517,0.07474467309119352
13.600999999997901,0.16082834916317007,0.08041543945860097
13.80099999999779,0.16353745178389997,0.08724908039892285
14.00099999999768,0.1663549553718641,0.0937613653643722
14.200999999997569,0.1699226870079582,0.10037581257421806
14.400999999997458,0.17226691911161285,0.10734839338648598
14.600999999997347,0.17470406248935805,0.11449660080791445
14.800999999997236,0.1770539417642139,0.1219432161531175
15.000999999997125,0.18035626542587416,0.13001176952893218
15.200999999997014,0.18295951107958147,0.13751351192219136
15.400999999996904,0.18593167661792073,0.14520130407398285
15.600999999996793,0.1886103133091682,0.1530890650335742
15.800999999996682,0.19118324135761994,0.16106799393539298
16.000999999996573,0.19356053745936977,0.16899453367380307
16.200999999996817,0.19616453394481242,0.1770527339149504
16.40099999999706,0.19895257231336144,0.18575416593599525
16.600999999997306,0.20264692325176903,0.19448646091886007
16.80099999999755,0.2049042015790968,0.20277830440426986
17.000999999997795,0.2074464006223357,0.21151358965862102
17.20099999999804,0.20953844472706856,0.2198121974508107
17.400999999998284,0.21223173981454885,0.22810092498040233
17.60099999999853,0.21455918099238463,0.23689156290425567
17.800999999998773,0.2169993584954558,0.2460447764944991
18.000999999999017,0.21924128693308084,0.253651553431522
18.20099999999926,0.22223323280111515,0.26132958974111486
18.400999999999506,0.22457613163394946,0.2706378165564432
18.60099999999975,0.2264877154045946,0.2793006938967606
18.799999999999994,0.22873635743606907,0.2884583178741298
19.000000000000238,0.23045779769760358,0.29754364211401557
19.200000000000482,0.2320638506552049,0.3073501071178288
19.400000000000727,0.2343250321934184,0.31757180003705804
19.60000000000097,0.23614014241868128,0.32782759756256064
19.800000000001216,0.23744297504995943,0.3370576692750775
20.00000000000146,0.23874575179867613,0.3463938800707949
