Time (s),X (m),Y (m)
0.001,-0.0005118051130574269,0.0004359202765531096
0.20000000000000015,0.0007065766642579142,-4.582955550806391e-05
0.4000000000000003,0.0013336462296473063,-0.000193919842709645
0.6000000000000004,0.002114969338826186,-0.0005504265892309539
0.8000000000000006,0.002980648183681058,-0.0010218127671278783
1.0000000000000007,0.004028844896993865,-0.0016392867579178504
1.2009999999999785,0.004940001827718219,-0.0021658173005906127
1.4009999999999565,0.005995932886463731,-0.002790966121366808
1.6009999999999345,0.007128016839718767,-0.0034615946775989914
1.8009999999999124,0.00829400000370798,-0.004166008319762195
2.0009999999998906,0.009496016237255354,-0.004904801998361415
2.2009999999998686,0.010742030862116538,-0.005682091701632722
2.4009999999998466,0.01202952123790963,-0.00648996306478397
2.6009999999998246,0.013361424702805871,-0.007325922382924536
2.8009999999998025,0.014738270632719503,-0.008188862319644018
3.0009999999997805,0.01615667583995067,-0.009076749301988467
3.2009999999997585,0.017608969262032603,-0.009983241323884484
3.4009999999997365,0.019086697794379107,-0.010897952948148097
3.6009999999997144,0.02058875145359962,-0.011818939564564817
3.8009999999996924,0.022114430365676962,-0.012744274474256445
4.000999999999671,0.023664043509903088,-0.013673953859602241
4.200999999999738,0.025237346849748016,-0.014607646171356466
4.400999999999804,0.02683444570336038,-0.01554516950353473
4.600999999999871,0.028456838029007246,-0.016486364236527638
4.800999999999938,0.030105789548071728,-0.01743118175739282
5.000000000000004,0.03178902007666853,-0.018382114348408186
5.200000000000071,0.033492812801375095,-0.019332822714414437
5.400000000000138,0.035224859782092645,-0.020286206117715654
5.600000000000205,0.036985807657004044,-0.021242121480873823
5.800000000000272,0.038775607318499716,-0.022200215862338335
6.000000000000338,0.04059447918315725,-0.023160072568557247
6.200000000000405,0.04244279259158542,-0.024121276355064586
6.400000000000472,0.044320568714761366,-0.02508335944555722
6.600000000000539,0.04622778796724063,-0.026046124589662302
6.800000000000606,0.04816445397675258,-0.02700913405197614
7.000000000000672,0.050130654409143036,-0.027971975887716934
7.200000000000739,0.0521269799947794,-0.028930737332863003
7.400000000000806,0.05415860341568453,-0.029869014523805817
7.600000000000873,0.05622725097478385,-0.030784473246066518
7.8000000000009395,0.05833311066451777,-0.031676545515296445
8.000000000001005,0.06047665115956395,-0.03254443247629708
8.200000000000895,0.06265769009181703,-0.033388412613349606
8.400000000000784,0.06487572438374392,-0.034207653361031806
8.600000000000673,0.06713059472067229,-0.035001759993741666
8.800000000000562,0.06942319859844011,-0.035770922236901675
9.000000000000451,0.07198149558969927,-0.03651371891124406
9.20000000000034,0.07448135135462275,-0.037258363972840054
9.40000000000023,0.0771613735926253,-0.03794534421134582
9.600000000000119,0.08010333597557183,-0.038593960151060036
9.800000000000008,0.08318467987238169,-0.03906063923466041
10.000999999999896,0.08631388604322794,-0.03957118357246999
10.200999999999786,0.08946047074156643,-0.03994330822841079
10.400999999999675,0.09267179273341637,-0.04034750071635072
10.600999999999564,0.09587297991870702,-0.04060838723430742
10.800999999999453,0.09918788041938431,-0.04096272384712768
11.000999999999342,0.10233146557503729,-0.0410776337402662
11.200999999999231,0.10545303026748148,-0.04122801587438478
11.40099999999912,0.10866898014752897,-0.04124967747224298
11.60099999999901,0.11169556281640158,-0.041281666630647355
11.800999999998899,0.11474934446106265,-0.041105806197513785
12.000999999998788,0.1178039222950902,-0.04097087187088505
12.200999999998677,0.12058569701892696,-0.04060415253638655
12.400999999998566,0.12346997572153784,-0.04028595115128023
12.600999999998455,0.12648314517883963,-0.039759151190845256
12.800999999998345,0.12954303550316232,-0.03928112777174931
13.000999999998234,0.13254929458136602,-0.038583468752699815
13.200999999998123,0.13530590319635832,-0.037912178167875676
13.400999999998012,0.13832454942137878,-0.0370264499329536
13.600999999997901,0.14109368643851428,-0.036188881593240144
13.80099999999779,0.14394195329366827,-0.035059551022628976
14.00099999999768,0.14647807858348202,-0.03400518006857799
14.200999999997569,0.14934341621017452,-0.032689792994846506
14.400999999997458,0.15194808506768806,-0.03148611888232384
14.600999999997347,0.15460796773319474,-0.02993426594520899
14.800999999997236,0.15713535813933727,-0.02859787916080071
15.000999999997125,0.15985746475497523,-0.026517922674099574
15.200999999997014,0.16188970522023058,-0.02473705627313589
15.400999999996904,0.1641642964290342,-0.021898748684784385
15.600999999996793,0.16593559372641445,-0.0194227059796767
15.800999999996682,0.16840226036608835,-0.016412311993376442
16.000999999996573,0.17032038619818493,-0.013843907193233628
16.200999999996817,0.17289267961834742,-0.01008585288621351
16.40099999999706,0.17471216216982313,-0.007399573597200997
16.600999999997306,0.1772694488677813,-0.0034925853122450886
16.80099999999755,0.17943539084944624,0.000620680806290606
17.000999999997795,0.18188390503433957,0.0051868259212586
17.20099999999804,0.18415596641411192,0.009743520760955773
17.400999999998284,0.18696120330217955,0.015361162192109121
17.60099999999853,0.1893633464205656,0.01965373357150828
17.800999999998773,0.19219379523488633,0.02591172658725359
18.000999999999017,0.19476697370291843,0.031177094456970155
18.20099999999926,0.1976357196744294,0.036964196340093944
18.400999999999506,0.20053175473189677,0.04237084949584322
18.60099999999975,0.20368609365226154,0.04822051851533824
18.799999999999994,0.20642546160624586,0.053926623188941376
19.000000000000238,0.21016326800077795,0.06099838047938378
19.200000000000482,0.21481057835835976,0.06761260801854872
19.400000000000727,0.21966514200859744,0.07547371695134864
19.60000000000097,0.22402339165769475,0.08236648995754055
19.800000000001216,0.2285738720327083,0.08899760903515008
20.00000000000146,0.2338672927915017,0.09653076735820358
