Time (s),X (m),Y (m)
0.001,-0.0005732996449108882,0.0002669654388657892
0.20000000000000015,0.002573322845939495,-0.0010019430265679305
0.4000000000000003,0.0069476199407842824,-0.005220525491465246
0.6000000000000004,0.02106780151257402,-0.009140097737339233
0.8000000000000006,0.038314236880466715,-0.017259208884692394
1.0000000000000007,0.06717373877977058,-0.031035737876445476
1.2009999999999785,0.08807111489140346,-0.04298008939690841
1.4009999999999565,0.10826331295888604,-0.05593478228152661
1.6009999999999345,0.12250703089008738,-0.06231595032094358
1.8009999999999124,0.13073983628724964,-0.06278121961492689
2.0009999999998906,0.1514225525311028,-0.06758934261424278
2.2009999999998686,0.1614676948734287,-0.06696582094599211
2.4009999999998466,0.1767161063909691,-0.07174956528057765
2.6009999999998246,0.2058344973841274,-0.08429437806546776
2.8009999999998025,0.23666334312066659,-0.1002284296497991
3.0009999999997805,0.26626166960752295,-0.11612355075762712
3.2009999999997585,0.2960548894900604,-0.14165922083462684
3.4009999999997365,0.3267479540908551,-0.17053947920605822
3.6009999999997144,0.34760624366113635,-0.2068327241804821
3.8009999999996924,0.3555589099201748,-0.244089774186755
4.000999999999671,0.35629608879621444,-0.27373499560598286
4.200999999999738,0.35142431681784364,-0.3033292824279298
4.400999999999804,0.33912324325180093,-0.34319176556526787
4.600999999999871,0.32210884384038874,-0.3855724559228085
4.800999999999938,0.30229386618640053,-0.4246698098728388
5.000000000000004,0.2877128522827699,-0.45977597759146027
5.200000000000071,0.2725604255803786,-0.4930103816716737
5.400000000000138,0.25142698553012244,-0.5290788000917891
5.600000000000205,0.2298651311576598,-0.5648379718603871
5.800000000000272,0.19306430087790846,-0.6028532372765075
6.000000000000338,0.1539242815816316,-0.6308100391342547
6.200000000000405,0.11490453550048062,-0.6397335314643864
6.400000000000472,0.07103166934422706,-0.633676761637333
6.600000000000539,0.021639860981869038,-0.6109528382526138
6.800000000000606,-0.028300371789742484,-0.577793719175208
7.000000000000672,-0.07907862305979482,-0.5470765233816014
7.200000000000739,-0.13339294952545183,-0.5125701949124085
7.400000000000806,-0.1806938221240685,-0.47319662037502525
7.600000000000873,-0.2048521150832835,-0.432400698533975
7.8000000000009395,-0.20767337787435067,-0.3986168296755492
8.000000000001005,-0.2011329386481049,-0.37091619921339053
8.200000000000895,-0.18950212951439044,-0.3354668764076912
8.400000000000784,-0.17284417620371012,-0.2943552508498833
8.600000000000673,-0.1497357200361366,-0.24684597009838147
8.800000000000562,-0.12091401953581653,-0.19172850288107027
9.000000000000451,-0.0905896039337289,-0.13616299878315852
9.20000000000034,-0.0638535985313767,-0.08058320952298968
9.40000000000023,-0.040237915157078884,-0.027109162501640225
9.600000000000119,-0.007970527584475381,0.03791317998480363
9.800000000000008,0.03573095441070026,0.11047406883869154
10.000999999999896,0.06932368990229053,0.17486414152989146
10.200999999999786,0.10536009142052635,0.22814467939050348
10.400999999999675,0.15052868643020179,0.2813372630845216
10.600999999999564,0.19182957610266393,0.33473051390539793
10.800999999999453,0.2276113997536154,0.3849834296918063
11.000999999999342,0.2729603088949197,0.41504804250463156
11.200999999999231,0.3198036679047751,0.4255599296919069
11.40099999999912,0.3660932551193515,0.42213140989618336
11.60099999999901,0.41225338230847547,0.4077530693691643
11.800999999998899,0.45859476432785073,0.38667866293718756
12.000999999998788,0.5060271668663722,0.3622577571237696
12.200999999998677,0.5536130408230077,0.3388229538121471
12.400999999998566,0.6083948237932988,0.2990437711762983
12.600999999998455,0.6638950487501364,0.25669458336258977
12.800999999998345,0.7154629080507707,0.20825994080977306
13.000999999998234,0.7578907240298032,0.17200045465939195
13.200999999998123,0.774430895026493,0.12978842773186564
13.400999999998012,0.7733231052253727,0.08968774530143095
13.600999999997901,0.7649049890014175,0.049180104403306904
13.80099999999779,0.7505459292206005,-0.008257517765293598
14.00099999999768,0.7248368906302876,-0.06508561920159261
14.200999999997569,0.6926881491336234,-0.12750924098221178
14.400999999997458,0.6615611866463103,-0.19103134375240025
14.600999999997347,0.6180974629171873,-0.25521595412259346
14.800999999997236,0.5802517575725031,-0.31539317199339345
15.000999999997125,0.5421760485221035,-0.3656979493577011
15.200999999997014,0.5042690407684153,-0.3891520628244826
15.400999999996904,0.4642424793775921,-0.39513762779302486
15.600999999996793,0.41008591311597903,-0.38495178626300114
15.800999999996682,0.34855110134992207,-0.3626560756976432
16.000999999996573,0.294633069374845,-0.3417469764003626
16.200999999996817,0.24623608234178457,-0.3245696433461572
16.40099999999706,0.18875507858194646,-0.2900313092423423
16.600999999997306,0.13360973039547694,-0.2583463223753343
16.80099999999755,0.07543062719615158,-0.2213960264289215
17.000999999997795,0.031016811715797038,-0.17308281948142204
17.20099999999804,0.016070368498797873,-0.12505471001558377
17.400999999998284,0.027450697343599135,-0.07326285745131729
17.60099999999853,0.050338000201629075,-0.019135150943435205
17.800999999998773,0.0868646172682922,0.04298387833814523
18.000999999999017,0.1264980170214778,0.11041703364037529
18.20099999999926,0.16110017662489615,0.17048564942437058
18.400999999999506,0.20188011202481132,0.22673151692477259
18.60099999999975,0.24458087476109963,0.2771710383537103
18.799999999999994,0.2828989350520511,0.3140235420478322
19.000000000000238,0.31971193113030305,0.3248004211950707
19.200000000000482,0.36646766960881294,0.31570858987570616
19.400000000000727,0.42409877871880985,0.2911086284519572
19.60000000000097,0.47957200503330205,0.2612914443979599
19.800000000001216,0.5342703613613747,0.21835639091179232
20.00000000000146,0.5843270185761392,0.1758384769044391
