Time (s),X (m),Y (m)
0.001,-0.00023999057263828476,-0.0007901558823345064
0.20000000000000015,0.0018822915869571057,0.0007370015819575862
0.4000000000000003,0.004096980589622762,0.00012803868043843487
0.6000000000000004,0.006949565233783214,-0.003096595817774753
0.8000000000000006,0.008687941487535034,-0.01083499245433429
1.0000000000000007,0.020319222436878517,-0.004723726362194724
1.2009999999999785,0.030317898017208474,0.0010528221141470485
1.4009999999999565,0.03295831154276771,0.0038622924394917974
1.6009999999999345,0.04528127797434236,0.004919947823914836
1.8009999999999124,0.05808347777557694,-0.0017503922023573678
2.0009999999998906,0.07134131642392999,0.006515346629611334
2.2009999999998686,0.08643021014227978,0.01998884122091527
2.4009999999998466,0.10062365680868154,0.03548570992861205
2.6009999999998246,0.11900910974019638,0.047420448039759894
2.8009999999998025,0.13600710982809436,0.0465487336226455
3.0009999999997805,0.15259858935307907,0.05795612154990992
3.2009999999997585,0.17068192425893097,0.07087969748373434
3.4009999999997365,0.18496365234065643,0.08467944417284917
3.6009999999997144,0.19388423951121828,0.11036493819542825
3.8009999999996924,0.21117721555427083,0.13509144385855804
4.000999999999671,0.2252282831042605,0.16190567684275484
4.200999999999738,0.2379955299741138,0.1755029936451094
4.400999999999804,0.2570272128099939,0.19459356408736264
4.600999999999871,0.28171020443267186,0.2160211572075067
4.800999999999938,0.3061653639889502,0.2320776232470666
5.000000000000004,0.3307978019571514,0.24848987579626533
5.200000000000071,0.35471597253378634,0.26456833597865165
5.400000000000138,0.382899654361945,0.2915250781928919
5.600000000000205,0.410590474010668,0.31896631596071895
5.800000000000272,0.4325625611147023,0.34264790519159366
6.000000000000338,0.4588167821539618,0.36998594727516915
6.200000000000405,0.4902881947908581,0.39303800743305933
6.400000000000472,0.5189206672702182,0.42173661369766846
6.600000000000539,0.5356096307871416,0.45753570447346065
6.800000000000606,0.5477577801238589,0.48492333039705265
7.000000000000672,0.5612065481916005,0.5097905346320565
7.200000000000739,0.5839448995275675,0.544290467717344
7.400000000000806,0.6089133956120221,0.5699789102883995
7.600000000000873,0.6289886860588224,0.5935812624134148
7.8000000000009395,0.6529794515063022,0.6263480525507636
8.000000000001005,0.6821337288032857,0.661594677950602
8.200000000000895,0.71737826753314,0.6873305705367367
8.400000000000784,0.7516282587488347,0.6998313194878792
8.600000000000673,0.786240583346854,0.7179791373129412
8.800000000000562,0.822965723498069,0.7434654320906018
9.000000000000451,0.8622061444178626,0.7668000029279949
9.20000000000034,0.9016911819526957,0.7965897204726158
9.40000000000023,0.9399881719747557,0.8206586959605747
9.600000000000119,0.9767121344110501,0.8428882115042629
9.800000000000008,1.0138175891386345,0.8611356907121607
10.000999999999896,1.052635814045562,0.8882215602883228
10.200999999999786,1.0899351531879424,0.9136769003851775
10.400999999999675,1.1282090456584295,0.9457083058570953
10.600999999999564,1.1641654712700937,0.9677100464095977
10.800999999999453,1.199657118347636,0.9827477274500055
11.000999999999342,1.244670055630487,1.001323308490402
11.200999999999231,1.2986426855467035,1.0241895915031018
11.40099999999912,1.341545784158445,1.040257451380913
11.60099999999901,1.3778775999558306,1.0434491441106215
11.800999999998899,1.4101812578754984,1.0438578420178384
12.000999999998788,1.4447200270567286,1.0416517367960763
12.200999999998677,1.4873240941940062,1.0398845654621747
12.400999999998566,1.5190473404311915,1.038203453557048
12.600999999998455,1.5544374345028371,1.0377700540837256
12.800999999998345,1.596821435091575,1.0408694908212075
13.000999999998234,1.6559907761103105,1.0518473627476252
13.200999999998123,1.6991553471425629,1.0643141024329834
13.400999999998012,1.7416270484121348,1.0609047461565915
13.600999999997901,1.7648232932792685,1.034898097507633
13.80099999999779,1.7940633194814812,0.9994546534886524
14.00099999999768,1.8212413105338672,0.9618097400643486
14.200999999997569,1.8432472277692988,0.9249350375271629
14.400999999997458,1.869245849109648,0.8949620275759044
14.600999999997347,1.9114165569916886,0.8762881991128133
14.800999999997236,1.9697954311419779,0.8667437498808388
15.000999999997125,2.0295634716931086,0.8738795874115725
15.200999999997014,2.0862434245248798,0.888029881888913
15.400999999996904,2.1384518547846967,0.9087881638570457
15.600999999996793,2.1887566036094355,0.9299995260373712
15.800999999996682,2.2403904896728037,0.9590515873226211
16.000999999996573,2.2864984600986493,0.9949886509270798
16.200999999996817,2.3187698664810537,1.0362089670101309
16.40099999999706,2.3473277757540236,1.078331959678688
16.600999999997306,2.368176780811552,1.1284624563080465
16.80099999999755,2.380811368225568,1.1876367958146352
17.000999999997795,2.3897311384683393,1.2380972277824294
17.20099999999804,2.405387309567967,1.293112830185798
17.400999999998284,2.426910690511286,1.3460949100014958
17.60099999999853,2.4500728088696055,1.3814127516956096
17.800999999998773,2.472474493912682,1.416906554968255
18.000999999999017,2.498712496016527,1.4605440897620228
18.20099999999926,2.5276346658525832,1.500971506215448
18.400999999999506,2.5603107796623035,1.5322279996266075
18.60099999999975,2.596737846173332,1.5581337779148179
18.799999999999994,2.633390512184474,1.5776795638256584
19.000000000000238,2.663928251458346,1.599869565334356
19.200000000000482,2.6899868592724916,1.6332281193456093
19.400000000000727,2.71105060353378,1.664193667691115
19.60000000000097,2.7207948369185497,1.7118255739828652
19.800000000001216,2.719610859350956,1.7703051437964294
20.00000000000146,2.7061545925387303,1.8286025958910506
