Time (s),X (m),Y (m)
0.001,0.0014545041853094038,0.0
0.20000000000000015,0.0005926713114326271,-5.7129132653380517e-05
0.4000000000000003,0.0017096747394856964,0.0004072665618719753
0.6000000000000004,0.0049621348884345915,0.0026046813938985012
0.8000000000000006,0.010759948866488548,0.003651986846689822
1.0000000000000007,0.02426670199253323,0.004677497539417391
1.2009999999999785,0.03847313043658024,0.0039371670219403455
1.4009999999999565,0.04637272105621981,0.004260305786239652
1.6009999999999345,0.04519269489679185,0.006938533300944436
1.8009999999999124,0.04261795001308262,0.00824600649920468
2.0009999999998906,0.05442132852787683,0.008035548386036751
2.2009999999998686,0.05702058409867008,0.003368071871680341
2.4009999999998466,0.06187905210714007,-0.0011782503661395326
2.6009999999998246,0.06548919034321665,-0.0018076672162844237
2.8009999999998025,0.07288015998414336,-0.0033227795833508144
3.0009999999997805,0.08395246819894035,-0.004640465424004056
3.2009999999997585,0.09366361640557717,-0.006542629264511299
3.4009999999997365,0.10875130795339638,-0.009235825741792832
3.6009999999997144,0.12397477927181337,-0.007383314314132262
3.8009999999996924,0.1404652864261328,-0.006146507097501061
4.000999999999671,0.1598605406550177,-0.0068401013675804395
4.200999999999738,0.16943202929817144,-0.006415484893272652
4.400999999999804,0.18329845519331375,-0.011946957308186363
4.600999999999871,0.1929191366924506,-0.01996023424692099
4.800999999999938,0.20374063051576324,-0.023366524696347268
5.000000000000004,0.21771795031590205,-0.032942900860747665
5.200000000000071,0.23356502347333288,-0.04462555138590601
5.400000000000138,0.24518566039656736,-0.053720279458292955
5.600000000000205,0.26202136197730413,-0.061567895803895635
5.800000000000272,0.2769641091623353,-0.06753439353207642
6.000000000000338,0.2987228333980439,-0.0781715139636506
6.200000000000405,0.3199344580924913,-0.09233356585581043
6.400000000000472,0.338017761331808,-0.1041812461674333
6.600000000000539,0.35537941801381295,-0.11432763563110797
6.800000000000606,0.37642672187249304,-0.12641123661360584
7.000000000000672,0.3975514634444808,-0.14102410982651037
7.200000000000739,0.4216572028395381,-0.1552244301649147
7.400000000000806,0.44151000266710216,-0.1641077358882395
7.600000000000873,0.46425896259916233,-0.18100998324586684
7.8000000000009395,0.48628359515053504,-0.19596335639295984
8.000000000001005,0.514067245356806,-0.20913075934464018
8.200000000000895,0.54214906178923,-0.22337431445035996
8.400000000000784,0.5629042942318115,-0.2339624317453757
8.600000000000673,0.5790383436731573,-0.24262997708453368
8.800000000000562,0.6000653687856413,-0.2553621844406203
9.000000000000451,0.6248324418993481,-0.26885885590701
9.20000000000034,0.6588831718797773,-0.29235481954973597
9.40000000000023,0.6849968909410219,-0.3144761112138395
9.600000000000119,0.7051866978538487,-0.33057523727061616
9.800000000000008,0.7261421548754358,-0.3387092553962198
10.000999999999896,0.7429846085013805,-0.34484169125922143
10.200999999999786,0.7671802964581617,-0.351694279114206
10.400999999999675,0.7880693900227758,-0.35710572193854984
10.600999999999564,0.8122500277143782,-0.3660888160907172
10.800999999999453,0.8330507197603642,-0.37602064466860635
11.000999999999342,0.8564754256265504,-0.387542663316631
11.200999999999231,0.8806867096147278,-0.39571676446197307
11.40099999999912,0.9031971537434299,-0.4072397135456076
11.60099999999901,0.9265925059643907,-0.4181317520504209
11.800999999998899,0.9447301041256536,-0.42850171462757747
12.000999999998788,0.9646135409567611,-0.44043188645657916
12.200999999998677,0.9911531683799959,-0.4527180737006162
12.400999999998566,1.0130285144315945,-0.46122118859207883
12.600999999998455,1.0314565623659337,-0.4702641961121515
12.800999999998345,1.0572612484804682,-0.4798331202328039
13.000999999998234,1.0806749484308604,-0.48745178378605
13.200999999998123,1.1032797581307452,-0.496119652223622
13.400999999998012,1.1297604967689663,-0.5116065737796623
13.600999999997901,1.1545133575516404,-0.5300562137877206
13.80099999999779,1.180878087812642,-0.5422124901997099
14.00099999999768,1.2015553375366048,-0.5552273782853641
14.200999999997569,1.2325599748824052,-0.575244321770616
14.400999999997458,1.2623993636883295,-0.5906226225148672
14.600999999997347,1.2895580366342236,-0.6051996897432782
14.800999999997236,1.3122238662834809,-0.6186950764605356
15.000999999997125,1.3377855237150684,-0.6276011966049866
15.200999999997014,1.3689181339708338,-0.6427066458570164
15.400999999996904,1.4032569199177753,-0.6559611593535125
15.600999999996793,1.4331133787830923,-0.6679443616403373
15.800999999996682,1.4608439564016538,-0.6760570478732751
16.000999999996573,1.4895986301196376,-0.6893513420263192
16.200999999996817,1.5095469802994008,-0.7041479082021831
16.40099999999706,1.5317380850440918,-0.7113938141586658
16.600999999997306,1.555702566286656,-0.7238111498773361
16.80099999999755,1.5731570048456494,-0.7324519617568244
17.000999999997795,1.597971876588299,-0.7408220854426831
17.20099999999804,1.62791219196389,-0.7543947378187804
17.400999999998284,1.6575934379799016,-0.7755872577797016
17.60099999999853,1.6832953688795345,-0.79037086617506
17.800999999998773,1.7074471019074564,-0.7992170054610542
18.000999999999017,1.7391261980475397,-0.8113999425393313
18.20099999999926,1.7645263124631734,-0.8238711114235365
18.400999999999506,1.7968215495401187,-0.8361573044366656
18.60099999999975,1.8272627892105198,-0.8490539528847428
18.799999999999994,1.8596751912564873,-0.8660417553340533
19.000000000000238,1.8923984130887697,-0.8833548301765781
19.200000000000482,1.9247397237714936,-0.8993626806901519
19.400000000000727,1.9484141880844787,-0.9106156853118176
19.60000000000097,1.9686014524804891,-0.9188799647414887
19.800000000001216,1.9925015968326234,-0.9300182322673068
20.00000000000146,2.0238235989759628,-0.9502553837573472
