Time (s),X (m),Y (m)
0.001,0.00033312994539159724,-0.0010275501737767782
0.20000000000000015,0.0007867412249252105,-8.666970863622387e-05
0.4000000000000003,0.0016266597006352125,-0.00011821568745063942
0.6000000000000004,0.002931141590688166,0.003042905440220711
0.8000000000000006,0.006607161023148205,0.0045465068967320745
1.0000000000000007,0.009957996450318606,0.004129923851133825
1.2009999999999785,0.013309498731596665,0.003551261436407022
1.4009999999999565,0.01715440023189302,0.00036455539661140834
1.6009999999999345,0.023489232802626103,0.0021828596355523114
1.8009999999999124,0.029001748160435194,0.007411291545310652
2.0009999999998906,0.033571029726097115,0.006324105480149569
2.2009999999998686,0.03732675014636207,0.009585343217644296
2.4009999999998466,0.040086630834334634,0.010999250929591985
2.6009999999998246,0.04387453331014034,0.01075538294705949
2.8009999999998025,0.04834201150144102,0.015209268650688225
3.0009999999997805,0.0534197887244385,0.017160890647572948
3.2009999999997585,0.05724387931043098,0.019471136242992942
3.4009999999997365,0.061861654844463966,0.02490801291428092
3.6009999999997144,0.06776275941223908,0.030990901186563474
3.8009999999996924,0.07237347249900558,0.03567679597818037
4.000999999999671,0.0775684402807388,0.04028242576962722
4.200999999999738,0.08335686419512855,0.04473654724702826
4.400999999999804,0.08943209889856198,0.04986689456482978
4.600999999999871,0.09462618684490394,0.051884710076500154
4.800999999999938,0.10160940384983094,0.050401707601781275
5.000000000000004,0.1066902331420895,0.05095879180539303
5.200000000000071,0.11333837813675951,0.05099259456252225
5.400000000000138,0.11964052136939325,0.05159441322648416
5.600000000000205,0.1275824784022078,0.05670974355599639
5.800000000000272,0.1320071467024457,0.05944412958821529
6.000000000000338,0.13752144474208433,0.06138670399006041
6.200000000000405,0.14469839089803702,0.06675872033234546
6.400000000000472,0.15123143008592277,0.06926496765734054
6.600000000000539,0.1597950347793653,0.06846995607595621
6.800000000000606,0.16644893470284505,0.07127847056629165
7.000000000000672,0.17099573850973296,0.07536514896533292
7.200000000000739,0.17277620204051775,0.08344038119385701
7.400000000000806,0.17819704494284838,0.08690495368488182
7.600000000000873,0.18564358373376746,0.08724273689122104
7.8000000000009395,0.18975992659498273,0.09138532947616636
8.000000000001005,0.1938944164074723,0.09699609927065304
8.200000000000895,0.197505967053723,0.1027574616175774
8.400000000000784,0.19825753277741526,0.1095022317417234
8.600000000000673,0.1997676647230093,0.11452337871528853
8.800000000000562,0.1970882559107308,0.12184945786685504
9.000000000000451,0.19721782782673983,0.1282287386881435
9.20000000000034,0.19786660479562468,0.13559697673350504
9.40000000000023,0.19743881365399488,0.14105527804277787
9.600000000000119,0.19822432717323782,0.14669100787909312
9.800000000000008,0.19568550111836314,0.15290538909250237
10.000999999999896,0.19282384135998695,0.16152145780261923
10.200999999999786,0.1889645574957996,0.17118316936702657
10.400999999999675,0.18762146289584922,0.18079185934129285
10.600999999999564,0.18461865775268077,0.18986373534370096
10.800999999999453,0.1804670524407622,0.19756966165260967
11.000999999999342,0.17526814180329545,0.2046212837165363
11.200999999999231,0.17337568070156678,0.21150780386364929
11.40099999999912,0.17046455309378747,0.21940127479709945
11.60099999999901,0.16880511953326116,0.2270740611525483
11.800999999998899,0.16894215066692253,0.23374590538254386
12.000999999998788,0.16651984214676901,0.24141988553148308
12.200999999998677,0.1677152410671374,0.2465709980589218
12.400999999998566,0.16032478920968848,0.25418132009017447
12.600999999998455,0.15733190296398206,0.26282231531629296
12.800999999998345,0.15388581506913146,0.2699655154912232
13.000999999998234,0.15598107928343366,0.2780583155044085
13.200999999998123,0.1611092105986807,0.2857672437462218
13.400999999998012,0.15884785228465395,0.2922935795869019
13.600999999997901,0.1586660175149213,0.3000184859599885
13.80099999999779,0.15421073838320468,0.30733482874808554
14.00099999999768,0.15163498700676745,0.31489556668796265
14.200999999997569,0.1541395241874964,0.32100336781887606
14.400999999997458,0.15315950878730006,0.3267314094242813
14.600999999997347,0.14848499262020048,0.33381277692244604
14.800999999997236,0.14389479855119308,0.3405059001554009
15.000999999997125,0.14020381103669613,0.34656403432839983
15.200999999997014,0.13795275840943502,0.35419983747447825
15.400999999996904,0.13748513369545545,0.36097686373959725
15.600999999996793,0.1322387634330093,0.3686002306236942
15.800999999996682,0.1301888718451177,0.37660959581913034
16.000999999996573,0.1297842594763974,0.3832907008902889
16.200999999996817,0.12427241324473139,0.39119700942978
16.40099999999706,0.12053617777793897,0.3980090470076244
16.600999999997306,0.1173243388927894,0.4068531303487994
16.80099999999755,0.1144161913866186,0.4140557493677982
17.000999999997795,0.10892259572473675,0.4207446583014887
17.20099999999804,0.10243468338540308,0.4293942913106483
17.400999999998284,0.09650288773729301,0.4368385100971168
17.60099999999853,0.09474470740968362,0.44326889678347087
17.800999999998773,0.09412143842767316,0.4483482553507257
18.000999999999017,0.09508584628052369,0.4547419277470928
18.20099999999926,0.0897698465746617,0.4620544712850999
18.400999999999506,0.08750944984734761,0.46942551709654706
18.60099999999975,0.08596420941605537,0.47766778762171114
18.799999999999994,0.08794414012354324,0.4845264649148893
19.000000000000238,0.08939279034401604,0.4916255475758039
19.200000000000482,0.08678219254640636,0.498743477797104
19.400000000000727,0.08370632147061659,0.5067850383277919
19.60000000000097,0.08202971414860731,0.5155847344786797
19.800000000001216,0.07841529677298532,0.5233770096546693
20.00000000000146,0.07375676485681537,0.529645718491519
