Time (s),X (m),Y (m)
0.001,-0.00036712694553334884,-0.000663019509439443
0.20000000000000015,0.0013248144191796774,0.0003581345005161048
0.4000000000000003,0.003395806385198126,0.001445326553568466
0.6000000000000004,0.007195479937814905,0.0018026716795462262
0.8000000000000006,0.011378018422946327,0.002216136648304658
1.0000000000000007,0.016675683970240388,0.003559213992802297
1.2009999999999785,0.020443130887142898,0.0024075826671087807
1.4009999999999565,0.021864230696851897,0.0008098630128742351
1.6009999999999345,0.028237936763604598,0.00499064962044208
1.8009999999999124,0.03647582242545394,0.011634500603856438
2.0009999999998906,0.04766828863143264,0.02220231203714934
2.2009999999998686,0.0578449470090109,0.030527681336991155
2.4009999999998466,0.06875556581960122,0.034773218090961656
2.6009999999998246,0.07751816138823163,0.032813405111806714
2.8009999999998025,0.08598325613645973,0.031117542952127767
3.0009999999997805,0.09583332155020372,0.04459948315110712
3.2009999999997585,0.10578882183821155,0.06255394492579776
3.4009999999997365,0.11424328117934458,0.08043539629991718
3.6009999999997144,0.12163977877691524,0.08879762040364252
3.8009999999996924,0.13100260606662695,0.10262628401106083
4.000999999999671,0.14136006129902717,0.11032141417341598
4.200999999999738,0.14935991288736736,0.12652523295480086
4.400999999999804,0.15629960175013524,0.14988362307878111
4.600999999999871,0.16618405744626347,0.15432724626760871
4.800999999999938,0.179732328309606,0.1625188158299754
5.000000000000004,0.1964595942764433,0.1675813588490411
5.200000000000071,0.2116878121584033,0.18226843634224027
5.400000000000138,0.2200184347761713,0.19941262741598054
5.600000000000205,0.23082589248063543,0.2038974551077755
5.800000000000272,0.23345022383948127,0.2230067842822863
6.000000000000338,0.2368389599643083,0.23104248236213432
6.200000000000405,0.24250503518906533,0.241841744780239
6.400000000000472,0.24651002494395874,0.2577382214460741
6.600000000000539,0.2505818711699391,0.281192267444149
6.800000000000606,0.2555762652845964,0.29566156720125414
7.000000000000672,0.26296022088746096,0.310157497236988
7.200000000000739,0.27235460471672185,0.3300131074000359
7.400000000000806,0.2845332388976772,0.3463265492134134
7.600000000000873,0.30114304861614716,0.35339754839352433
7.8000000000009395,0.3167930092998823,0.3655939104491053
8.000000000001005,0.32697112385030525,0.38258062320616504
8.200000000000895,0.3361102802219167,0.4090147209215005
8.400000000000784,0.3473366506361899,0.4232437570524016
8.600000000000673,0.3529587083060158,0.4365838762646711
8.800000000000562,0.3619325920929164,0.4516756461468419
9.000000000000451,0.3655236134809515,0.46859744168794687
9.20000000000034,0.37031890013752344,0.4836555112459167
9.40000000000023,0.37598554721125005,0.5057034755539119
9.600000000000119,0.38382950123435583,0.53039333172698
9.800000000000008,0.3909276441883096,0.5566719192968221
10.000999999999896,0.3992984228627845,0.5812615931307481
10.200999999999786,0.4071531736664559,0.6059898722958434
10.400999999999675,0.41913909013128875,0.632908982641384
10.600999999999564,0.4366991218139219,0.6630623321317242
10.800999999999453,0.455454866999965,0.6831010208879078
11.000999999999342,0.46781339756246926,0.6961416421169089
11.200999999999231,0.4806566450951414,0.7135521645512036
11.40099999999912,0.4958084417434085,0.7313116953308002
11.60099999999901,0.5058802004273426,0.7514924990541171
11.800999999998899,0.5167190579211631,0.7711661872163984
12.000999999998788,0.5258024130820749,0.7893496501373328
12.200999999998677,0.5392596162226723,0.8075930042467329
12.400999999998566,0.5584055049750876,0.8281819413112194
12.600999999998455,0.5709674121165549,0.8518302387528959
12.800999999998345,0.588190685149612,0.8735645995854232
13.000999999998234,0.6091578468836526,0.8926456470255144
13.200999999998123,0.6269964097918933,0.9090836460810777
13.400999999998012,0.6363760754751095,0.9251959692757386
13.600999999997901,0.6459051252089574,0.9448248630700089
13.80099999999779,0.651193925636299,0.9696126011010483
14.00099999999768,0.6557297291891181,0.9955651015311046
14.200999999997569,0.662024256293745,1.0226155909494201
14.400999999997458,0.6731562693321946,1.0480116090293983
14.600999999997347,0.6820079740604412,1.0681706177178139
14.800999999997236,0.6883451320240633,1.0919022626119623
15.000999999997125,0.69941918259829,1.106764067155526
15.200999999997014,0.7137032681204724,1.1200238267315463
15.400999999996904,0.7299117283944234,1.1395272031546277
15.600999999996793,0.7428591270118412,1.164933943649697
15.800999999996682,0.7515104421033718,1.1969548068273492
16.000999999996573,0.7576123019527522,1.2319839908885502
16.200999999996817,0.7636091936190125,1.2534894841155677
16.40099999999706,0.7648752157068155,1.2781679415607554
16.600999999997306,0.7634287180420367,1.3037790765456734
16.80099999999755,0.758712318266929,1.3326479356151881
17.000999999997795,0.7545177708185257,1.3580671227652383
17.20099999999804,0.7507377521084229,1.383893452544484
17.400999999998284,0.7488906078327324,1.4106090489422505
17.60099999999853,0.7515554036754613,1.4375547734390937
17.800999999998773,0.7571798959214828,1.4604559415193397
18.000999999999017,0.7522116202813361,1.4827713023132263
18.20099999999926,0.7458738792729706,1.50412264431138
18.400999999999506,0.7387993151786301,1.527909210402996
18.60099999999975,0.7263536819276948,1.556529622994184
18.799999999999994,0.7112390753487672,1.584533991479411
19.000000000000238,0.69677553264924,1.6137663404455989
19.200000000000482,0.6769642325128562,1.642721875034191
19.400000000000727,0.6557185477951607,1.673123745010891
19.60000000000097,0.6330848548555408,1.6997553996451074
19.800000000001216,0.6115809580676983,1.72243256740136
20.00000000000146,0.5833509387911131,1.7446739105675775
