Time (s),X (m),Y (m)
0.001,0.0010146588340248276,-0.0008449350584490237
0.20000000000000015,0.0006535029904679449,0.0003825940779201618
0.4000000000000003,0.0006227722390423834,0.0007344915972708546
0.6000000000000004,0.0037147232544023972,0.0013197925211354373
0.8000000000000006,0.008011229377220548,0.004702343225197108
1.0000000000000007,0.015887323094120945,0.00427224038022778
1.2009999999999785,0.02516622834677738,-0.0034542915086280485
1.4009999999999565,0.04134416125249955,-0.00836423315019829
1.6009999999999345,0.05281037692850062,-0.004080023446447096
1.8009999999999124,0.06014757094932569,0.00342823651935019
2.0009999999998906,0.06681162453641272,0.00627713035013567
2.2009999999998686,0.07576264882100824,0.010778165466769981
2.4009999999998466,0.08945647089086045,0.016470532999615376
2.6009999999998246,0.09843956102970013,0.018921869210579808
2.8009999999998025,0.10371981718185594,0.0237560525061752
3.0009999999997805,0.10898115562627074,0.03023709207675507
3.2009999999997585,0.11019756752257369,0.04756358576564804
3.4009999999997365,0.11094487947474647,0.05333549594894554
3.6009999999997144,0.11384666584209652,0.058618119732005855
3.8009999999996924,0.12312420978197407,0.06185583054930325
4.000999999999671,0.13267325254817117,0.06350278520775775
4.200999999999738,0.149434772476008,0.05969943697475636
4.400999999999804,0.1670159605372701,0.05541293674569878
4.600999999999871,0.17412965648173084,0.05367141420219684
4.800999999999938,0.18752937764829644,0.0566888779930902
5.000000000000004,0.20286403362572644,0.051856498558890005
5.200000000000071,0.21846984438892564,0.04981155545270543
5.400000000000138,0.23818195077426466,0.04850616922664985
5.600000000000205,0.2585041048273791,0.04678739824144319
5.800000000000272,0.26954629200147245,0.04993120613601952
6.000000000000338,0.2760888846857223,0.05827796038325292
6.200000000000405,0.2778898057037546,0.06377727054799494
6.400000000000472,0.2903677914249616,0.07032640065961293
6.600000000000539,0.2970964970986468,0.06786147024762984
6.800000000000606,0.3061715376005605,0.06288667336540897
7.000000000000672,0.3120825083017664,0.0622832327924699
7.200000000000739,0.32033509028339513,0.06717404849208594
7.400000000000806,0.3203133459697634,0.07883868509146487
7.600000000000873,0.3284658182042055,0.08919912161601658
7.8000000000009395,0.34203321310868184,0.10067904705021634
8.000000000001005,0.35585875299843345,0.10862988678770864
8.200000000000895,0.37119761169291376,0.11481755298824396
8.400000000000784,0.3898762018266442,0.12103069227191719
8.600000000000673,0.40384362300005633,0.13097782040550432
8.800000000000562,0.42402536693300313,0.13762745960789313
9.000000000000451,0.44412951960477093,0.14077394019458497
9.20000000000034,0.4650682286264319,0.14453724273858012
9.40000000000023,0.4758112833855596,0.15055712398090138
9.600000000000119,0.48725098086285484,0.15902664733322375
9.800000000000008,0.4981001212645266,0.16492127173123863
10.000999999999896,0.5159014103708712,0.17000411095028256
10.200999999999786,0.5339177341950172,0.17645710847196638
10.400999999999675,0.5510141334507461,0.18468126622638126
10.600999999999564,0.5694670584460048,0.19072597980495967
10.800999999999453,0.5828876492333712,0.199481494579039
11.000999999999342,0.5973046414266576,0.20630730489237792
11.200999999999231,0.6146296353773932,0.20318080687675405
11.40099999999912,0.6310237388148131,0.20588052602488113
11.60099999999901,0.6520441485969759,0.2052935701593319
11.800999999998899,0.6713352291438692,0.20785696465312387
12.000999999998788,0.6813223828212941,0.2107412125091311
12.200999999998677,0.7012155142287827,0.2128030153907157
12.400999999998566,0.7132511542656285,0.21737429214568946
12.600999999998455,0.7231837951314053,0.2231009774985845
12.800999999998345,0.727117352402992,0.22963751660255027
13.000999999998234,0.7435407548936245,0.23827864365443446
13.200999999998123,0.7622650052142274,0.2501798100156389
13.400999999998012,0.7849411333519011,0.2570925159716745
13.600999999997901,0.8048442080347182,0.26067869089251106
13.80099999999779,0.8118960629491159,0.2683015477077476
14.00099999999768,0.8228294910944116,0.2774509470647223
14.200999999997569,0.8445223329636476,0.2901861312218074
14.400999999997458,0.8579896548551093,0.30334724681821046
14.600999999997347,0.8667285986943769,0.3168374734609466
14.800999999997236,0.8795729958738836,0.3261764655128143
15.000999999997125,0.8899851011195746,0.33634441908972373
15.200999999997014,0.9001684590073685,0.345201879055846
15.400999999996904,0.9099076338595533,0.3514090129360937
15.600999999996793,0.9237068610056033,0.35544524697582397
15.800999999996682,0.9372968744276683,0.36275007992646774
16.000999999996573,0.9595235377341458,0.36430763269115807
16.200999999996817,0.9812271054961659,0.36121070117992854
16.40099999999706,1.0000615828896353,0.36447143318486963
16.600999999997306,1.0082167029369684,0.3785787123046802
16.80099999999755,1.0163439441615936,0.3938062361362899
17.000999999997795,1.0315188070997223,0.40078553748815593
17.20099999999804,1.0455262260895637,0.4120594472643736
17.400999999998284,1.0459603914707458,0.4304219640046355
17.60099999999853,1.0563266236009718,0.4449213563611951
17.800999999998773,1.0627237610814608,0.45755999511591766
18.000999999999017,1.0746658927370047,0.4674821026353532
18.20099999999926,1.096228026034795,0.47362242202681
18.400999999999506,1.116779225219387,0.4789144073356607
18.60099999999975,1.1263938775671685,0.4870597328463962
18.799999999999994,1.1380637048224973,0.49389203942854004
19.000000000000238,1.160587196164804,0.49238727244515684
19.200000000000482,1.1807304483098007,0.49228151514482843
19.400000000000727,1.1981213634659866,0.49231694747289123
19.60000000000097,1.2179127700201438,0.48951970182662036
19.800000000001216,1.2398095928656592,0.49027338188045066
20.00000000000146,1.2503489960513647,0.5009269169369747
