Time (s),X (m),Y (m)
0.001,0.0014388337585722719,-0.0001791137972120003
0.20000000000000015,0.0009691543648292661,-8.892184264321246e-05
0.4000000000000003,0.0016647413322062074,-0.000341551832880268
0.6000000000000004,0.002190462952253137,-0.0005871265118870047
0.8000000000000006,0.0060400729710380794,-0.0012559525450201838
1.0000000000000007,0.011097962945405975,-0.002508964302078064
1.2009999999999785,0.014749467029278802,-0.002846547069289961
1.4009999999999565,0.017750149381121363,-0.0039592682978330015
1.6009999999999345,0.023603349600900818,-0.005061939451543217
1.8009999999999124,0.026464347334253284,-0.005243323260230171
2.0009999999998906,0.028440871215466113,-0.006217949020660507
2.2009999999998686,0.031799236391955366,-0.007939616190497432
2.4009999999998466,0.03693872721893932,-0.010084963604900892
2.6009999999998246,0.04016329567908471,-0.012043352392607844
2.8009999999998025,0.04481819458084045,-0.014238901633100202
3.0009999999997805,0.05098833680002836,-0.01678774425771373
3.2009999999997585,0.05390233916069814,-0.01701031157202821
3.4009999999997365,0.05796282677028355,-0.019034474820514822
3.6009999999997144,0.06184485490700584,-0.019591618328024116
3.8009999999996924,0.06053055191872474,-0.02007479353600006
4.000999999999671,0.06453892103966913,-0.02201799914156165
4.200999999999738,0.07053987888402567,-0.023964774739926135
4.400999999999804,0.07852006188921916,-0.027855919659789185
4.600999999999871,0.08482986114976301,-0.030695736043094387
4.800999999999938,0.09171278684064073,-0.03278688640131246
5.000000000000004,0.09746027277155911,-0.03563574283829015
5.200000000000071,0.10320654429543914,-0.036973411681798345
5.400000000000138,0.10677249642215693,-0.03983181413497582
5.600000000000205,0.11276878153596256,-0.04219534128819505
5.800000000000272,0.11871834745519072,-0.0453512346496871
6.000000000000338,0.12548603104349548,-0.04881441864225943
6.200000000000405,0.12988640011652225,-0.05207364158940938
6.400000000000472,0.13230232088413105,-0.05304940351853449
6.600000000000539,0.1399475967924233,-0.05566255142380195
6.800000000000606,0.1462707322982574,-0.05738275053635212
7.000000000000672,0.14436472714827264,-0.057741122914920465
7.200000000000739,0.14401200004536138,-0.058431319881678385
7.400000000000806,0.15241844786322226,-0.06169163931743061
7.600000000000873,0.16389660992695376,-0.06638232481031506
7.8000000000009395,0.17050523877512516,-0.06931352475867662
8.000000000001005,0.1810967597505884,-0.0734899966184099
8.200000000000895,0.19049124466117748,-0.07735346610872665
8.400000000000784,0.19744858787498815,-0.08230458857101472
8.600000000000673,0.2041899755572665,-0.08709040874872405
8.800000000000562,0.21251364276104442,-0.09107488058268343
9.000000000000451,0.21961151488886224,-0.09568573879407365
9.20000000000034,0.22717659487442216,-0.09918527780718185
9.40000000000023,0.23374397563583424,-0.10236867048593397
9.600000000000119,0.2412961520840678,-0.10536749535618163
9.800000000000008,0.25175718827969434,-0.1081575514093237
10.000999999999896,0.2578523903644725,-0.11228542646624741
10.200999999999786,0.2652963782130906,-0.11568265092029839
10.400999999999675,0.2758224339993523,-0.11937453116322343
10.600999999999564,0.2855560722586307,-0.12401005357292465
10.800999999999453,0.2942735295566934,-0.12761131640693174
11.000999999999342,0.3022761159631364,-0.13282583885953936
11.200999999999231,0.31196570574831506,-0.13820143769648807
11.40099999999912,0.31812594196821636,-0.14216003518739626
11.60099999999901,0.3292930673411693,-0.1471051561834927
11.800999999998899,0.3379864626859631,-0.15002686747738145
12.000999999998788,0.3394443526229358,-0.15190069307112583
12.200999999998677,0.3390158152530384,-0.15222370426403992
12.400999999998566,0.34106543192945565,-0.1541364246409603
12.600999999998455,0.3433559529351114,-0.15579955667493
12.800999999998345,0.34853946538453645,-0.15719811665969238
13.000999999998234,0.3578963326390662,-0.16156155145489054
13.200999999998123,0.36349693132919486,-0.16481788125258326
13.400999999998012,0.3706390439101417,-0.1683732095405252
13.600999999997901,0.37729372188879334,-0.17045500354718032
13.80099999999779,0.3864727745543546,-0.17403107689107605
14.00099999999768,0.39436325928001587,-0.17789493596305617
14.200999999997569,0.405784917218978,-0.18204196643562298
14.400999999997458,0.41788373013360985,-0.18676569255574912
14.600999999997347,0.42512053407887207,-0.1892206083770647
14.800999999997236,0.43549426377489936,-0.19377604169858406
15.000999999997125,0.4459990898633605,-0.19716572068351873
15.200999999997014,0.45606162740151907,-0.2006682577424309
15.400999999996904,0.45938258483449207,-0.20346908994916446
15.600999999996793,0.4620460634404711,-0.2054356884649784
15.800999999996682,0.46861459521988924,-0.2102825123172678
16.000999999996573,0.47894128876713316,-0.2144899933849267
16.200999999996817,0.48980660467877174,-0.2208038490862266
16.40099999999706,0.49969310709809717,-0.2248811955915082
16.600999999997306,0.5044256697829964,-0.22859906955782336
16.80099999999755,0.5166752358748679,-0.23353302383316457
17.000999999997795,0.5277496874305113,-0.23667859001492023
17.20099999999804,0.5374213844771346,-0.24260082480844986
17.400999999998284,0.5433097388988672,-0.24624500770253646
17.60099999999853,0.5541343995473385,-0.25236784733875656
17.800999999998773,0.5648949839689259,-0.2570392207237497
18.000999999999017,0.5788992500042264,-0.2649211875167537
18.20099999999926,0.5884136196709717,-0.2704143812402407
18.400999999999506,0.5960868786341055,-0.27582155418842513
18.60099999999975,0.6056709436082869,-0.2804451230929542
18.799999999999994,0.6158274110592467,-0.28630539036710245
19.000000000000238,0.6288531689735931,-0.29298539007391033
19.200000000000482,0.641324743502369,-0.30047182192771477
19.400000000000727,0.6499670326557345,-0.3068742937586079
19.60000000000097,0.6619742960164143,-0.31556606929362624
19.800000000001216,0.6694444939250707,-0.3203897887735922
20.00000000000146,0.6795722587779178,-0.3264273407482909
