Time (s),X (m),Y (m)
0.001,0.001392298616347667,0.0003527853123316693
0.20000000000000015,0.0007178700789657899,0.0001603479451016412
0.4000000000000003,0.000622321956734055,-0.0004485467229564535
0.6000000000000004,0.0016268120883707932,0.0010583340049343888
0.8000000000000006,0.0061529344694944196,0.0067790415847870265
1.0000000000000007,0.016297051402751193,0.013160723916892707
1.2009999999999785,0.029225683231571695,0.02093325001827519
1.4009999999999565,0.03862482922568516,0.028002888723310453
1.6009999999999345,0.05362289571570839,0.03180334569335661
1.8009999999999124,0.07252760532596628,0.027290566528734777
2.0009999999998906,0.08988958953819012,0.013887119981852674
2.2009999999998686,0.09999193236007914,0.00047787933937898407
2.4009999999998466,0.10906363667760006,-0.019402863753600313
2.6009999999998246,0.12023749859899358,-0.042487885775445794
2.8009999999998025,0.12916984402752013,-0.05659661261688263
3.0009999999997805,0.13607412638174224,-0.07053513357440759
3.2009999999997585,0.14458358511831867,-0.0873818397413937
3.4009999999997365,0.15789481464642993,-0.11224504268052603
3.6009999999997144,0.1747514530686185,-0.1399144224320114
3.8009999999996924,0.19281264201418702,-0.16089207325355542
4.000999999999671,0.20777852091718976,-0.17027893048781306
4.200999999999738,0.2172371159168889,-0.16942762973099806
4.400999999999804,0.22983320979914804,-0.17901068041835555
4.600999999999871,0.24244836165174272,-0.18893855844116098
4.800999999999938,0.26011764279115535,-0.20284140347986243
5.000000000000004,0.27637571076716666,-0.21228350924075173
5.200000000000071,0.28827001327005436,-0.22534340137805914
5.400000000000138,0.3057730111837009,-0.24316468301208524
5.600000000000205,0.32741861210396234,-0.26368693809699334
5.800000000000272,0.35665615535863743,-0.2886478166470966
6.000000000000338,0.3878054013287482,-0.31873620648558315
6.200000000000405,0.41894430832797463,-0.3508474833400428
6.400000000000472,0.44980323977614894,-0.38263816217092333
6.600000000000539,0.4750619684473691,-0.41012859795119716
6.800000000000606,0.49438856005711473,-0.43200332085097415
7.000000000000672,0.5201645236723134,-0.4526659319104865
7.200000000000739,0.5519831990090707,-0.4757708775558695
7.400000000000806,0.5735532044190675,-0.49593463839740964
7.600000000000873,0.593734771815281,-0.5155903644035347
7.8000000000009395,0.6172582007037061,-0.5360858795645811
8.000000000001005,0.63300478946982,-0.5518550129462636
8.200000000000895,0.6478310110355522,-0.5608377805683432
8.400000000000784,0.6662395153391505,-0.5665926896309741
8.600000000000673,0.6921901172089752,-0.5726184172615613
8.800000000000562,0.7346467745016734,-0.580271283600915
9.000000000000451,0.7802164531905502,-0.5920369248876591
9.20000000000034,0.8134763619877785,-0.6065067556018201
9.40000000000023,0.8560531145841298,-0.6177160874474403
9.600000000000119,0.8965022592275254,-0.6238686378387772
9.800000000000008,0.9270540135957832,-0.6276684062593352
10.000999999999896,0.9577651080560486,-0.6344973944613252
10.200999999999786,0.9853841153722022,-0.645310997526239
10.400999999999675,1.0250951652354885,-0.654273655103746
10.600999999999564,1.0645747491691524,-0.6645837495934441
10.800999999999453,1.1114512037907534,-0.6827231798362863
11.000999999999342,1.1554918445688687,-0.7067170824852638
11.200999999999231,1.1972529922629418,-0.738749352976622
11.40099999999912,1.23503443423708,-0.7743461162617608
11.60099999999901,1.2680674880888176,-0.810242901455134
11.800999999998899,1.3036957697213563,-0.8404155052893225
12.000999999998788,1.343175507692577,-0.8637370684882016
12.200999999998677,1.3774866136946,-0.8871471685723282
12.400999999998566,1.410098968387043,-0.9094149354310309
12.600999999998455,1.4542281900946852,-0.9275545127269181
12.800999999998345,1.485694351762217,-0.9470983681819646
13.000999999998234,1.5239172362059437,-0.9702694701221541
13.200999999998123,1.5567914012541357,-0.9946034110678821
13.400999999998012,1.583158311286948,-1.0165661407925615
13.600999999997901,1.620031521228176,-1.0371351174855796
13.80099999999779,1.6589511486094382,-1.067220795423358
14.00099999999768,1.697592549399672,-1.1037542143760786
14.200999999997569,1.738850183724484,-1.1510391297401847
14.400999999997458,1.7725414505077723,-1.1955570083152598
14.600999999997347,1.8055997080122255,-1.2429046762427045
14.800999999997236,1.839090800907258,-1.2891791885634873
15.000999999997125,1.8631531004087958,-1.3142980096316466
15.200999999997014,1.8858700872885965,-1.347278858226235
15.400999999996904,1.9052390059028175,-1.3754550980995226
15.600999999996793,1.9189559935748373,-1.4050308043200839
15.800999999996682,1.9258868348704747,-1.45047115385201
16.000999999996573,1.9216626954568539,-1.4921658684576309
16.200999999996817,1.9162049112456971,-1.5264846016808096
16.40099999999706,1.9078806243007906,-1.553535536535095
16.600999999997306,1.8978271129650808,-1.5864161703493513
16.80099999999755,1.8944228301004018,-1.626132421496867
17.000999999997795,1.8917506921594294,-1.6670774880360315
17.20099999999804,1.8901075327394354,-1.699412752620913
17.400999999998284,1.890414335214559,-1.7266634113650388
17.60099999999853,1.8875055364143651,-1.7538462991439758
17.800999999998773,1.8808555498369044,-1.786052392931362
18.000999999999017,1.8567235687995995,-1.8284725928480483
18.20099999999926,1.8198343867061895,-1.8715059066878172
18.400999999999506,1.779720793243568,-1.9211094947006853
18.60099999999975,1.7379524321763833,-1.9733463465425656
18.799999999999994,1.6964889797994047,-2.0247139033344865
19.000000000000238,1.6520136893812234,-2.0712822797312005
19.200000000000482,1.6053393949323187,-2.1130812064771027
19.400000000000727,1.5609788371531867,-2.15057980794949
19.60000000000097,1.518056165568734,-2.1891725767145127
19.800000000001216,1.4840472397620879,-2.22030404334113
20.00000000000146,1.4469221154436085,-2.2582151823109293
