Time (s),X (m),Y (m)
0.001,0.00042302893680115855,0.0010314752485082437
0.20000000000000015,0.0008786842353117777,-9.212289468126864e-05
0.4000000000000003,0.0017853543025484636,0.000203067754760113
0.6000000000000004,0.0031586537927456395,0.005747710053993247
0.8000000000000006,0.005827853869540662,0.0061351192033179515
1.0000000000000007,0.007432275092603971,0.010445548021366899
1.2009999999999785,0.012049310100196622,0.010582917495278859
1.4009999999999565,0.017463546973891176,0.018001210078542856
1.6009999999999345,0.023549541655792296,0.024357729084150806
1.8009999999999124,0.028710562558264624,0.03230185252731427
2.0009999999998906,0.033395877153564,0.03943799474348098
2.2009999999998686,0.040093541094221745,0.045174941417836824
2.4009999999998466,0.04822220834708228,0.05123908618320243
2.6009999999998246,0.05571908783814344,0.053071172917981406
2.8009999999998025,0.06194669511593021,0.05365983218875608
3.0009999999997805,0.07024778753689101,0.05442577372365793
3.2009999999997585,0.07858379863226196,0.057083402325078685
3.4009999999997365,0.08766981767672179,0.05615462810578007
3.6009999999997144,0.09541265708890702,0.05709227970133825
3.8009999999996924,0.10202024721265145,0.05376564373465445
4.000999999999671,0.10792549393692626,0.058026052881988484
4.200999999999738,0.11537320160800738,0.06153165518352727
4.400999999999804,0.12151192887343129,0.05747498214109889
4.600999999999871,0.12551081371445208,0.05601365451843983
4.800999999999938,0.130361968359014,0.05731804141208444
5.000000000000004,0.13682719678859825,0.05646380527878014
5.200000000000071,0.14340032491518998,0.060599995554414685
5.400000000000138,0.15505276275320598,0.06101964604945408
5.600000000000205,0.16354017785775973,0.06159725689011591
5.800000000000272,0.16704390401144334,0.06073598474207635
6.000000000000338,0.17265795033404052,0.05726140033728092
6.200000000000405,0.17997589631201472,0.05734486266871156
6.400000000000472,0.18695230489460662,0.05614124762645775
6.600000000000539,0.19239110340424292,0.05509338013985464
6.800000000000606,0.19835387700099352,0.058345325039910315
7.000000000000672,0.20646617608351472,0.06064274238739933
7.200000000000739,0.2157830385072895,0.06362922526792526
7.400000000000806,0.22250915572693902,0.06174001321653398
7.600000000000873,0.2297998047108749,0.05950778973048673
7.8000000000009395,0.2371496247559117,0.05941601867556252
8.000000000001005,0.2425763584955727,0.059446786519509284
8.200000000000895,0.2512717456109706,0.0633178197908783
8.400000000000784,0.2599148286580196,0.06585920160687811
8.600000000000673,0.2674195231001973,0.06296765918080331
8.800000000000562,0.27587841321111994,0.06746581457898643
9.000000000000451,0.2840270145542981,0.06853682290310927
9.20000000000034,0.2909490926416736,0.07170317568828861
9.40000000000023,0.2976123058690981,0.0713424746731993
9.600000000000119,0.305075166064356,0.07583626604028837
9.800000000000008,0.3153422919714534,0.07813388109663748
10.000999999999896,0.3257753095368261,0.08179536517311795
10.200999999999786,0.3341017152514967,0.08366386481481734
10.400999999999675,0.3435363035872756,0.08431248885687367
10.600999999999564,0.3532007897470178,0.08345472286501114
10.800999999999453,0.3615415410725576,0.08069138493728482
11.000999999999342,0.36932262493884443,0.08571491259552669
11.200999999999231,0.37944378485274005,0.08604958124482312
11.40099999999912,0.39152265012975346,0.08843433055247682
11.60099999999901,0.40050285030502963,0.08692963915809096
11.800999999998899,0.4084491714114113,0.0866026187825084
12.000999999998788,0.41583942191037143,0.0847192840575779
12.200999999998677,0.4230968693947022,0.08179192830713378
12.400999999998566,0.4321675088794532,0.08390758252109078
12.600999999998455,0.4412584001266944,0.08042077839263241
12.800999999998345,0.4480683324721165,0.07388257179917614
13.000999999998234,0.4548037859657171,0.06762068460477597
13.200999999998123,0.4636720737304002,0.07044042906653653
13.400999999998012,0.47193103261898656,0.07393575808223171
13.600999999997901,0.4789726276807957,0.0808711083273353
13.80099999999779,0.4862353988212053,0.08373293277765242
14.00099999999768,0.49414045571523535,0.08771141441207524
14.200999999997569,0.501916304700847,0.08876475803640892
14.400999999997458,0.5090339658064481,0.08431393093893633
14.600999999997347,0.5125826929876924,0.08556520719183155
14.800999999997236,0.51664504221426,0.0801913187107437
15.000999999997125,0.5238512876930874,0.07778746652022007
15.200999999997014,0.5319617893830526,0.07969108140777285
15.400999999996904,0.5408144297824532,0.07913981140296776
15.600999999996793,0.5470572139703207,0.08011154745217498
15.800999999996682,0.5530043115471013,0.08307933432540587
16.000999999996573,0.5593626682161995,0.08194254831028792
16.200999999996817,0.5657922008005156,0.0803232300369154
16.40099999999706,0.5689228287425516,0.08020803928609631
16.600999999997306,0.5737233946534797,0.07486579955907659
16.80099999999755,0.580058983446012,0.07655553341190101
17.000999999997795,0.5883435511481049,0.07611004114279564
17.20099999999804,0.5905857290228052,0.07444079584613167
17.400999999998284,0.5937497587575935,0.07365788016366286
17.60099999999853,0.5993013783096399,0.0716787378609206
17.800999999998773,0.6080987952787738,0.0697759801298569
18.000999999999017,0.6109277038127016,0.06691708627122163
18.20099999999926,0.6103263598602894,0.061524170101524764
18.400999999999506,0.6122639449313105,0.056501987126009144
18.60099999999975,0.6178733911502735,0.056308169705401034
18.799999999999994,0.6244454947644903,0.055702521082900795
19.000000000000238,0.6305524891727289,0.053408459094584124
19.200000000000482,0.6396891164670025,0.05123564017253505
19.400000000000727,0.6475932737285551,0.05021937680283148
19.60000000000097,0.657048983338845,0.047982941069441766
19.800000000001216,0.6662928986243233,0.051373006654939005
20.00000000000146,0.6713954490946957,0.04531169688148275
