Time (s),X (m),Y (m)
0.001,-0.0004702548317818469,0.0005157376242541224
0.20000000000000015,0.0009969042144891067,-0.00026386719185500886
0.4000000000000003,0.003998601701465644,-0.0019362010508908235
0.6000000000000004,0.004957556244739229,-0.0018474540438185895
0.8000000000000006,0.007522153382046576,-0.0029877900537223267
1.0000000000000007,0.013526738840905215,-0.005009089349153177
1.2009999999999785,0.022757928766470852,-0.007371442549783042
1.4009999999999565,0.02857855499634796,-0.011573082646883916
1.6009999999999345,0.0370466203416281,-0.015417675505722692
1.8009999999999124,0.04957645789667627,-0.025008476967057915
2.0009999999998906,0.056641569488111436,-0.02985274948052129
2.2009999999998686,0.06720466775562181,-0.03464240313657601
2.4009999999998466,0.08301135452027673,-0.04315843039704231
2.6009999999998246,0.0975372036457966,-0.051397902197061064
2.8009999999998025,0.11004482648281443,-0.05557421293567574
3.0009999999997805,0.12019471655163275,-0.060498224744393744
3.2009999999997585,0.13367784621909895,-0.06686876908833411
3.4009999999997365,0.14174868523645148,-0.06737491721219627
3.6009999999997144,0.1541300959007592,-0.07437446037479757
3.8009999999996924,0.1696892178351362,-0.08499882750826729
4.000999999999671,0.18434141972037818,-0.09339049623544193
4.200999999999738,0.20049697407231096,-0.10311864757400657
4.400999999999804,0.21506919903748528,-0.11107446142756841
4.600999999999871,0.22588386168897706,-0.10937339743591735
4.800999999999938,0.24113913961781222,-0.11600956666859787
5.000000000000004,0.2541166107846276,-0.12018130711390031
5.200000000000071,0.266737365715064,-0.12725261524073908
5.400000000000138,0.28049786361702,-0.1344685250466602
5.600000000000205,0.29602851990812606,-0.14920396885050066
5.800000000000272,0.30650899305364815,-0.1557839569008561
6.000000000000338,0.3157150003519414,-0.16439150923406898
6.200000000000405,0.324475245518299,-0.1739634860631788
6.400000000000472,0.3297128907317854,-0.18479840886775903
6.600000000000539,0.33192757539477835,-0.20267244971578222
6.800000000000606,0.33358916770429026,-0.22859174825771772
7.000000000000672,0.3342581770390623,-0.25171167705941444
7.200000000000739,0.3293410694469048,-0.27536719967085876
7.400000000000806,0.3172777719828239,-0.29901286015096185
7.600000000000873,0.3070864548688292,-0.3208204409021785
7.8000000000009395,0.2987890096944939,-0.3424276740704743
8.000000000001005,0.29064196507305745,-0.36022854628033474
8.200000000000895,0.27825829506545763,-0.39163989376845626
8.400000000000784,0.26733168567086313,-0.4238100584175259
8.600000000000673,0.26236000955278843,-0.4431650871165462
8.800000000000562,0.2547319700451494,-0.4675755587433297
9.000000000000451,0.24765405621940723,-0.4866865135612078
9.20000000000034,0.24627947809674441,-0.504412641281958
9.40000000000023,0.23861852292498856,-0.5278174167198882
9.600000000000119,0.23110803561097767,-0.5523002764848455
9.800000000000008,0.2225324470087483,-0.577912425295356
10.000999999999896,0.21706466618280476,-0.6002747821350182
10.200999999999786,0.21115194795077202,-0.6250269312707674
10.400999999999675,0.20671685914361276,-0.6450837204488075
10.600999999999564,0.20554287132281623,-0.6614899820974808
10.800999999999453,0.19877718535362054,-0.6796374860393853
11.000999999999342,0.19201249394593015,-0.7034622205632755
11.200999999999231,0.18517795753430435,-0.7199659567601366
11.40099999999912,0.18040865777960602,-0.7431501854795515
11.60099999999901,0.17655220664438676,-0.7628252126965198
11.800999999998899,0.17351241851491292,-0.7874966937311917
12.000999999998788,0.16927314269201799,-0.815000368755843
12.200999999998677,0.1677095380273697,-0.8383667892377902
12.400999999998566,0.1677770077158244,-0.8548089672849172
12.600999999998455,0.16562545469979645,-0.8738370569813427
12.800999999998345,0.15898042060974046,-0.8989730174552727
13.000999999998234,0.15669146763455594,-0.9198969633950698
13.200999999998123,0.1529734275073145,-0.9385197683472253
13.400999999998012,0.15068993558975072,-0.9567391420125395
13.600999999997901,0.14647106385814915,-0.977484801707925
13.80099999999779,0.13789278751303213,-1.0074053506079628
14.00099999999768,0.12792494825851766,-1.0381849591886647
14.200999999997569,0.11410728061763956,-1.068475427344459
14.400999999997458,0.10336014751714284,-1.0973068904186747
14.600999999997347,0.09804204650350104,-1.1208548080006981
14.800999999997236,0.0847236552483969,-1.1523093699959102
15.000999999997125,0.07560499291458499,-1.175651324466467
15.200999999997014,0.07372036938418433,-1.198185897245053
15.400999999996904,0.06682519890124179,-1.2252574744768725
15.600999999996793,0.05588178701310011,-1.2562115653746782
15.800999999996682,0.04477454265653021,-1.2891345729414254
16.000999999996573,0.024853402269712693,-1.3216961641365899
16.200999999996817,0.00038873606093249466,-1.3529020367025009
16.40099999999706,-0.02099007099437655,-1.3836393377091785
16.600999999997306,-0.04102065966278113,-1.4082468201940161
16.80099999999755,-0.056361702901898875,-1.4263915623181687
17.000999999997795,-0.07659361413965415,-1.4483876636879398
17.20099999999804,-0.09331746444547062,-1.4731942283114583
17.400999999998284,-0.10207775501783353,-1.4980517653167778
17.60099999999853,-0.1148005860125736,-1.5199316102789562
17.800999999998773,-0.13100452603448792,-1.5396177618129923
18.000999999999017,-0.14637660509115274,-1.5556426386112137
18.20099999999926,-0.17060442050914698,-1.5666919163157456
18.400999999999506,-0.19254468843985267,-1.5749589598073237
18.60099999999975,-0.2130851042467536,-1.5784305115174797
18.799999999999994,-0.2340568815969776,-1.5817709152311816
19.000000000000238,-0.2556714822960347,-1.5806860804390088
19.200000000000482,-0.2762414548171248,-1.5816769802293766
19.400000000000727,-0.2945705444709638,-1.578451442053786
19.60000000000097,-0.31856524899421623,-1.5734701062589538
19.800000000001216,-0.34511734114879966,-1.564988106579879
20.00000000000146,-0.36914672168606816,-1.5604444671277684
