Time (s),X (m),Y (m)
0.001,-0.0005732996449108882,0.0002669654388657892
0.20000000000000015,0.0009830419176615457,-0.00018428643433420714
0.4000000000000003,0.0019816802252876353,-0.0008386333624168498
0.6000000000000004,0.004842626088428326,-0.001955041115676163
0.8000000000000006,0.007070194132682291,-0.0017135756768559838
1.0000000000000007,0.007161860120090688,-0.0025110017697494
1.2009999999999785,0.01588642446748235,-0.004134097015908637
1.4009999999999565,0.021664279166125695,-0.004440087281148917
1.6009999999999345,0.03323581000021954,-0.009382566101320718
1.8009999999999124,0.038829692175136474,-0.0106898616118382
2.0009999999998906,0.04956289022610882,-0.014590073157771834
2.2009999999998686,0.05718920482860093,-0.018151407015704363
2.4009999999998466,0.06139024500063461,-0.017499763783615875
2.6009999999998246,0.06963146790728719,-0.018572717258943276
2.8009999999998025,0.08240587380214519,-0.022043954582060012
3.0009999999997805,0.09019825614739457,-0.02568179398681482
3.2009999999997585,0.1064164993563957,-0.03558548530605796
3.4009999999997365,0.1221436325797851,-0.046392273740979165
3.6009999999997144,0.13298988582035134,-0.05254117023061076
3.8009999999996924,0.1436006908521134,-0.05735056424536282
4.000999999999671,0.1524907777394798,-0.06331186323574596
4.200999999999738,0.16382860414101447,-0.06794494876775746
4.400999999999804,0.17460497620333687,-0.074669926484399
4.600999999999871,0.1876405961622304,-0.08066381141171818
4.800999999999938,0.19532229669135662,-0.08412376236683676
5.000000000000004,0.20902779174437539,-0.09066354671145493
5.200000000000071,0.22246499379697843,-0.09770630019365867
5.400000000000138,0.2307108578071028,-0.10191778251830681
5.600000000000205,0.2463195279461507,-0.11132776774121138
5.800000000000272,0.26149133510125255,-0.12386647283976099
6.000000000000338,0.2785889580755234,-0.13392802600623002
6.200000000000405,0.2947838981260767,-0.14189776455752903
6.400000000000472,0.30509402215571413,-0.14772220491113314
6.600000000000539,0.3198686225194528,-0.158304204886242
6.800000000000606,0.3314425797207102,-0.16326249088479358
7.000000000000672,0.3486415041740886,-0.1750397515994394
7.200000000000739,0.3615661775822191,-0.18473053657482802
7.400000000000806,0.3766339527266683,-0.1902329521412428
7.600000000000873,0.3887904360334217,-0.20018819241899066
7.8000000000009395,0.39810670645351265,-0.21082052318313357
8.000000000001005,0.40598026603025883,-0.21855988478131697
8.200000000000895,0.4100342314033358,-0.22864436962741957
8.400000000000784,0.4089518622390588,-0.24683098630173295
8.600000000000673,0.4088620216605775,-0.2568117052483186
8.800000000000562,0.40774433101605195,-0.27124384494818765
9.000000000000451,0.4046718177402986,-0.28360612293372783
9.20000000000034,0.40013806805121915,-0.2966324807690699
9.40000000000023,0.39511542494518503,-0.31775007954642315
9.600000000000119,0.38959773497503103,-0.3398416405223071
9.800000000000008,0.38177242147164653,-0.3586526942589299
10.000999999999896,0.37291859479770206,-0.3774073699387575
10.200999999999786,0.36086806641431135,-0.39785844423207056
10.400999999999675,0.35265420039579426,-0.41945300902615135
10.600999999999564,0.34598124990529683,-0.43142539598559926
10.800999999999453,0.3354364932430025,-0.4513334678654439
11.000999999999342,0.33140054893327,-0.4634635561843084
11.200999999999231,0.329129964676505,-0.4743620617145398
11.40099999999912,0.32124417632212365,-0.4930268744131738
11.60099999999901,0.31235604115342946,-0.5136454493181898
11.800999999998899,0.30590983483022166,-0.5294524145396938
12.000999999998788,0.29872605169667044,-0.5460223713379208
12.200999999998677,0.29057258775279965,-0.561730973907279
12.400999999998566,0.280817324953093,-0.5816868329465109
12.600999999998455,0.27108018269527656,-0.6022539085404265
12.800999999998345,0.26735948044462765,-0.6145524944733717
13.000999999998234,0.25927159391208476,-0.6282388280613608
13.200999999998123,0.2462799208623682,-0.6523290327246848
13.400999999998012,0.23127985709511426,-0.6741950178908647
13.600999999997901,0.21702004625380386,-0.6962276514874449
13.80099999999779,0.20541084107453508,-0.7135926807894887
14.00099999999768,0.1904022381975182,-0.7348116597621364
14.200999999997569,0.17730713271035192,-0.7514801715202262
14.400999999997458,0.16209886300806706,-0.7684833180210855
14.600999999997347,0.14359754978477812,-0.7848443906838953
14.800999999997236,0.12949236028204897,-0.7999674142977836
15.000999999997125,0.11363304213554688,-0.8116304938957085
15.200999999997014,0.09472687897013599,-0.8228509550321641
15.400999999996904,0.07487185093477107,-0.8287458441343724
15.600999999996793,0.05923926470353158,-0.8332654314286372
15.800999999996682,0.04211267198382599,-0.8332814287819826
16.000999999996573,0.03127596294674009,-0.8314575113395634
16.200999999996817,0.0174613438192021,-0.8296139089599169
16.40099999999706,-0.0035524118396789693,-0.8233496437746567
16.600999999997306,-0.021684316480147833,-0.8162882091238475
16.80099999999755,-0.04535607056180058,-0.8039909076690425
17.000999999997795,-0.05912007257455678,-0.7981332258320404
17.20099999999804,-0.07781728472815133,-0.7872190120293584
17.400999999998284,-0.10166044069900261,-0.7758307578333602
17.60099999999853,-0.12430330274632442,-0.7668550526993676
17.800999999998773,-0.14340161641866622,-0.7572668291140529
18.000999999999017,-0.16476794563698102,-0.7455761463488282
18.20099999999926,-0.18599268367143962,-0.7341481149224324
18.400999999999506,-0.21191928238726263,-0.7238383412626266
18.60099999999975,-0.23468968702129775,-0.7106956691235942
18.799999999999994,-0.25855432901303316,-0.6909468333036081
19.000000000000238,-0.2835204708353513,-0.6740668015382162
19.200000000000482,-0.3075422786529812,-0.6585572766879795
19.400000000000727,-0.33117876400658797,-0.6468685994066337
19.60000000000097,-0.35002627399035985,-0.6360262210959873
19.800000000001216,-0.3733036254037169,-0.6236575966480086
20.00000000000146,-0.39357661770996294,-0.612060774224014
