Time (s),X (m),Y (m)
0.001,-9.270868745296317e-05,0.0008932837685830061
0.20000000000000015,0.0012269177979210351,-0.0009925044845915168
0.4000000000000003,0.0031631577815711387,-0.0016562139050241057
0.6000000000000004,0.004254967057897213,-0.0002154721861083603
0.8000000000000006,0.007212039085210756,-0.00033110056543443964
1.0000000000000007,0.011100620668083311,-0.002467529858032778
1.2009999999999785,0.017512475369577476,0.00671710642936233
1.4009999999999565,0.0249300038517408,0.016548262584781655
1.6009999999999345,0.03539162696113882,0.017849685747765114
1.8009999999999124,0.04638480840438903,0.006278339057517096
2.0009999999998906,0.05839187085381889,0.00433337016802189
2.2009999999998686,0.06836404376977916,-0.011557674492903115
2.4009999999998466,0.07945278972028609,-0.02952623201795234
2.6009999999998246,0.08940862803282007,-0.0417121239001242
2.8009999999998025,0.09629948503789625,-0.046586824938534256
3.0009999999997805,0.10900196604097005,-0.051881590386701246
3.2009999999997585,0.11970531362188326,-0.06889554390234026
3.4009999999997365,0.13016072729824468,-0.06765559761900974
3.6009999999997144,0.14262907032962413,-0.07072985984235995
3.8009999999996924,0.15268980071408134,-0.07760456069288896
4.000999999999671,0.1636258309512088,-0.06888075172049893
4.200999999999738,0.17182762416895525,-0.07669504543725843
4.400999999999804,0.17740558933383435,-0.07804850996039739
4.600999999999871,0.18754420527806456,-0.08028777283412772
4.800999999999938,0.19968082051218955,-0.07772135054639559
5.000000000000004,0.21227714105477127,-0.08195062626764997
5.200000000000071,0.22265534856497254,-0.09204735544160007
5.400000000000138,0.23627825088306512,-0.08998827215236686
5.600000000000205,0.24915887725417432,-0.09649918594667473
5.800000000000272,0.2612496162236219,-0.10884330455652128
6.000000000000338,0.27826483761070403,-0.11683364280012544
6.200000000000405,0.29515806314789483,-0.12428122944843213
6.400000000000472,0.30603698674231333,-0.12428480067507025
6.600000000000539,0.3137871500406351,-0.13779652227345884
6.800000000000606,0.318143056220137,-0.1446415026435559
7.000000000000672,0.32322439281852916,-0.15161332999971427
7.200000000000739,0.33044766352331695,-0.17348509658460254
7.400000000000806,0.34050540509793736,-0.19463601593841917
7.600000000000873,0.3533299393231025,-0.20825859741603456
7.8000000000009395,0.3631997290524393,-0.21104174003483542
8.000000000001005,0.374086384418488,-0.21412459149425722
8.200000000000895,0.3880367306862709,-0.22012484324700898
8.400000000000784,0.39837134349041503,-0.21959127067379786
8.600000000000673,0.41015088358276613,-0.23141582382606976
8.800000000000562,0.42103416082090583,-0.2430518457138887
9.000000000000451,0.43648406997753614,-0.23919864697160836
9.20000000000034,0.4523163781200137,-0.23100784425098422
9.40000000000023,0.4640270379950237,-0.23894185708087542
9.600000000000119,0.4732282450259122,-0.24468052700936382
9.800000000000008,0.48483498631289956,-0.25066323260597845
10.000999999999896,0.4967715311329269,-0.2595174060722911
10.200999999999786,0.510511023977615,-0.2749981445785957
10.400999999999675,0.5141862868346789,-0.29797082713745604
10.600999999999564,0.5218894663041759,-0.32061656498904995
10.800999999999453,0.5309592001289837,-0.3306063851868246
11.000999999999342,0.5443282619726485,-0.338199566338275
11.200999999999231,0.5626862780496159,-0.34572120108600685
11.40099999999912,0.5818929918950614,-0.3573487887890674
11.60099999999901,0.5960281502597756,-0.36667513017283854
11.800999999998899,0.6079753512615632,-0.3798801569526115
12.000999999998788,0.6178450570907115,-0.4008731247995325
12.200999999998677,0.6361033399554946,-0.40972269739596096
12.400999999998566,0.6535111100464819,-0.4196617625719772
12.600999999998455,0.6718526668076804,-0.42341579073842905
12.800999999998345,0.6902343009530365,-0.43739811845413334
13.000999999998234,0.7047038080953315,-0.45544192599517636
13.200999999998123,0.7097139645526305,-0.47370180557108155
13.400999999998012,0.7216077944897409,-0.4770125948554841
13.600999999997901,0.7349848787525302,-0.4773217831806487
13.80099999999779,0.7461994575155337,-0.48966424026997096
14.00099999999768,0.7526914590497285,-0.49687502924469645
14.200999999997569,0.7507610913145618,-0.5208959802789982
14.400999999997458,0.7572373459081311,-0.5400089151520687
14.600999999997347,0.7638984203891533,-0.5473169162750187
14.800999999997236,0.7770588590162532,-0.551728965128369
15.000999999997125,0.7906620242548823,-0.5567578521777848
15.200999999997014,0.8018568413637922,-0.5616232141300721
15.400999999996904,0.8112402923632822,-0.5642813774760469
15.600999999996793,0.8241833150518335,-0.5751639034514124
15.800999999996682,0.8401907274697061,-0.5924058630822545
16.000999999996573,0.8552130063395308,-0.6051779425178068
16.200999999996817,0.8685426572603656,-0.6075725379453811
16.40099999999706,0.8807510390364122,-0.6114556578199714
16.600999999997306,0.891703008975771,-0.6180552722411812
16.80099999999755,0.9041634925852141,-0.6288533692804437
17.000999999997795,0.9203063944982752,-0.6321136874242453
17.20099999999804,0.9314092583450745,-0.6577237268158432
17.400999999998284,0.9421819429854511,-0.6750290681818653
17.60099999999853,0.9499935289537411,-0.6885396225770931
17.800999999998773,0.9638250744085607,-0.6876939687594411
18.000999999999017,0.9805745921518956,-0.6939837596096411
18.20099999999926,0.9919185465622117,-0.7013908050321833
18.400999999999506,1.0029421723085201,-0.7072127517829979
18.60099999999975,1.015102150901168,-0.7142390464554229
18.799999999999994,1.025135681005471,-0.7288911119689039
19.000000000000238,1.0382042843943546,-0.7448078085059395
19.200000000000482,1.0599817178183308,-0.7549657544897407
19.400000000000727,1.08024769770916,-0.7668177016013896
19.60000000000097,1.0943539563178712,-0.7805260949013523
19.800000000001216,1.1123386540434437,-0.7879269677309485
20.00000000000146,1.1251849448382953,-0.8087713957595281
