Time (s),X (m),Y (m)
0.001,0.0014193575185132074,-0.0002669654388657889
0.20000000000000015,0.0006288832254149003,-7.247613508499907e-05
0.4000000000000003,0.006308409648502691,-0.0021378917073663455
0.6000000000000004,0.013835192188232905,-0.007275450398744587
0.8000000000000006,0.01592182932616029,-0.009846792443154225
1.0000000000000007,0.018384970045175874,-0.00608494195332371
1.2009999999999785,0.028353158249800725,-0.00723861268046969
1.4009999999999565,0.03765076175359627,-0.011074381106500658
1.6009999999999345,0.04278009646485289,-0.015022461356954285
1.8009999999999124,0.05825732978479944,-0.02150000758769301
2.0009999999998906,0.07636068059012711,-0.036485398917647995
2.2009999999998686,0.09069933003061717,-0.0471046575748541
2.4009999999998466,0.10225808577568823,-0.058510129296888744
2.6009999999998246,0.11494885881809788,-0.06629409810466834
2.8009999999998025,0.13111807400978023,-0.0694826913149069
3.0009999999997805,0.14325837360835994,-0.07393155439526694
3.2009999999997585,0.15213859919075326,-0.07510075427793216
3.4009999999997365,0.16130273770699094,-0.0789638211833496
3.6009999999997144,0.168099438248899,-0.0820175675809235
3.8009999999996924,0.1811962179149181,-0.08164716845095625
4.000999999999671,0.1952028895178624,-0.09446083636690909
4.200999999999738,0.2154562232343202,-0.09900919755535834
4.400999999999804,0.23982599178762895,-0.11574349266113687
4.600999999999871,0.2634819984233041,-0.12923055157954794
4.800999999999938,0.2834675377165037,-0.14419985371861563
5.000000000000004,0.304513037542462,-0.15167770916168913
5.200000000000071,0.3226564478157651,-0.1578755306275682
5.400000000000138,0.3433036081733717,-0.1733365991933025
5.600000000000205,0.36643284812430127,-0.19030094163694336
5.800000000000272,0.3934150014817783,-0.20580734151114907
6.000000000000338,0.4166107577504553,-0.22325646006443492
6.200000000000405,0.4359043395805985,-0.22570095003039609
6.400000000000472,0.45531752427029887,-0.2368186570984864
6.600000000000539,0.477435662711828,-0.24985497198987322
6.800000000000606,0.5004874803707798,-0.27051638017837215
7.000000000000672,0.524317124338758,-0.2866531584434647
7.200000000000739,0.5556348672615622,-0.3026165113735327
7.400000000000806,0.5869272522030715,-0.3166681271936549
7.600000000000873,0.6212957327080059,-0.34107418519130794
7.8000000000009395,0.6495481587609395,-0.36538068038266847
8.000000000001005,0.6645482178752173,-0.3938590665956759
8.200000000000895,0.6746881166235221,-0.4147102872254505
8.400000000000784,0.680643031992811,-0.4419699323010718
8.600000000000673,0.6797561927656695,-0.4679416154520419
8.800000000000562,0.67477213200825,-0.49486188880922727
9.000000000000451,0.6701618497974208,-0.525079630990165
9.20000000000034,0.6581152730546852,-0.5482027772514739
9.40000000000023,0.6499107293079005,-0.5681567191855101
9.600000000000119,0.6426001697400491,-0.5909558736626305
9.800000000000008,0.6243399406397455,-0.6268912091245852
10.000999999999896,0.6021810744368562,-0.6638857231420999
10.200999999999786,0.5839645329827148,-0.6959378773535636
10.400999999999675,0.5696810535873181,-0.7256092803611356
10.600999999999564,0.5604853766256742,-0.7568622491891104
10.800999999999453,0.5466946113408184,-0.788268928200189
11.000999999999342,0.538701879273201,-0.8110259568263094
11.200999999999231,0.5232244976761298,-0.8410705096209813
11.40099999999912,0.5051087257009849,-0.8718032268119547
11.60099999999901,0.48679209966375636,-0.9079814630132965
11.800999999998899,0.4654467907481813,-0.9434875688662737
12.000999999998788,0.45244562402436406,-0.9752600254023426
12.200999999998677,0.4391074556775806,-1.0080588425430685
12.400999999998566,0.43229692624128385,-1.03217937255895
12.600999999998455,0.4264228685700289,-1.0540998458103719
12.800999999998345,0.41502352776243484,-1.0823075180191692
13.000999999998234,0.399657648330626,-1.1142586167345983
13.200999999998123,0.3834821731793943,-1.1419638922359538
13.400999999998012,0.36380927945377595,-1.1761564931883315
13.600999999997901,0.3403134808217302,-1.2083063329148616
13.80099999999779,0.315749131563795,-1.2318604663240063
14.00099999999768,0.2946378073830069,-1.2433579517967623
14.200999999997569,0.25971162496791417,-1.2474878348563028
14.400999999997458,0.22694482136401362,-1.2451127906393222
14.600999999997347,0.19356546151358198,-1.2366028403283815
14.800999999997236,0.16667895434666016,-1.2240023907422684
15.000999999997125,0.13990032029458793,-1.2110374249379614
15.200999999997014,0.11562409928856583,-1.2031349065140104
15.400999999996904,0.09825401252603992,-1.198781338510706
15.600999999996793,0.08163470072640143,-1.1947466577583392
15.800999999996682,0.0490522369862939,-1.1852498100110718
16.000999999996573,0.009311327723366505,-1.1688808955473229
16.200999999996817,-0.016153578549947287,-1.1570144595584335
16.40099999999706,-0.04044245160499085,-1.1489752219996991
16.600999999997306,-0.0689379843313801,-1.1383441233750333
16.80099999999755,-0.0987469026636409,-1.125908206722991
17.000999999997795,-0.12972546726612633,-1.1097355613571125
17.20099999999804,-0.16127281853944053,-1.0900403955870603
17.400999999998284,-0.1907840413247158,-1.0828875866957879
17.60099999999853,-0.216453093122343,-1.067877924654309
17.800999999998773,-0.25487949622751116,-1.044968143301988
18.000999999999017,-0.28898189922530926,-1.0267047907117475
18.20099999999926,-0.3217364636936106,-1.0086545595120664
18.400999999999506,-0.35296889936357845,-0.9951186284315537
18.60099999999975,-0.38102124605312326,-0.9804376250157658
18.799999999999994,-0.40563434142069676,-0.966786275166
19.000000000000238,-0.4302887090818147,-0.9421792970103557
19.200000000000482,-0.45693846457289167,-0.9228423118776522
19.400000000000727,-0.47621521378705156,-0.8980449984959917
19.60000000000097,-0.49388014147291454,-0.8762448514807656
19.800000000001216,-0.5096543740689662,-0.8512222726114543
20.00000000000146,-0.5227156280981006,-0.8298210218068569
