Time (s),X (m),Y (m)
0.001,-0.000592775884969954,0.00017911379721200063
0.20000000000000015,0.0006997074225923442,-8.677453330211168e-05
0.4000000000000003,0.0015764780668020564,-0.00035515808364421504
0.6000000000000004,0.002376040032168278,-0.0006158870531950835
0.8000000000000006,0.00659568318159607,-0.0016640201070411721
1.0000000000000007,0.011545847416294944,-0.0032361337346304
1.2009999999999785,0.013287297872474582,-0.003152302371037988
1.4009999999999565,0.01775732174973103,-0.00385348574688729
1.6009999999999345,0.01730806503413074,-0.0035665463894502558
1.8009999999999124,0.019902591058752576,-0.003725831228220339
2.0009999999998906,0.023244917930978343,-0.0048642706927132144
2.2009999999998686,0.026318616212492246,-0.005240718737879259
2.4009999999998466,0.029552378205412726,-0.006297728983967288
2.6009999999998246,0.0317780215505056,-0.007634399570345343
2.8009999999998025,0.03601939699113511,-0.010012379985419933
3.0009999999997805,0.03998334842636741,-0.012378103622124579
3.2009999999997585,0.04262009839570487,-0.013570950421678963
3.4009999999997365,0.05144208129688226,-0.017382901410566705
3.6009999999997144,0.05768717285867073,-0.020416083812769527
3.8009999999996924,0.06539260585540715,-0.023132287072288427
4.000999999999671,0.07360178462428396,-0.026630054854248474
4.200999999999738,0.08275267489244559,-0.03049682733699605
4.400999999999804,0.08891562251423345,-0.03382910004123723
4.600999999999871,0.09674336859982989,-0.037194875538384665
4.800999999999938,0.1026089879077678,-0.04045472465923655
5.000000000000004,0.10851388403817479,-0.043833739556110744
5.200000000000071,0.11597575015410662,-0.04677339734458616
5.400000000000138,0.12044058614170047,-0.0488016333721175
5.600000000000205,0.12512567602027955,-0.05174342995608816
5.800000000000272,0.12903229670342653,-0.05399071633092229
6.000000000000338,0.13893681540651043,-0.05585173807664153
6.200000000000405,0.1438229333429004,-0.05863171499127271
6.400000000000472,0.15018689772204702,-0.060917134945212795
6.600000000000539,0.15750983486363082,-0.06418420864720134
6.800000000000606,0.16183666041936248,-0.06609297163701003
7.000000000000672,0.16802427327327613,-0.06764539935367721
7.200000000000739,0.17150530072424547,-0.0685295498294934
7.400000000000806,0.17908745456999922,-0.0714468397564165
7.600000000000873,0.1885716965001197,-0.07434650785806626
7.8000000000009395,0.19628233056951683,-0.07569078255322649
8.000000000001005,0.20606350296837844,-0.07852768680951192
8.200000000000895,0.2139539225170492,-0.08116579632883697
8.400000000000784,0.22280859314980783,-0.08348933956284232
8.600000000000673,0.22991794079121303,-0.08650753443702895
8.800000000000562,0.237861321864588,-0.08933261028652455
9.000000000000451,0.24952652351163834,-0.09272256160738804
9.20000000000034,0.25675263258514514,-0.09525125079135123
9.40000000000023,0.25708661675771777,-0.09780179799571823
9.600000000000119,0.26259164488441156,-0.10007280850686837
9.800000000000008,0.2686675737195489,-0.10175958446597172
10.000999999999896,0.2774488597906491,-0.10588686794413667
10.200999999999786,0.2882844695233671,-0.11076301948782921
10.400999999999675,0.2982829756544826,-0.11420676515515926
10.600999999999564,0.3076182329468664,-0.11949961867247358
10.800999999999453,0.31532007386960287,-0.1234840471946905
11.000999999999342,0.32489051271792824,-0.12660894188338084
11.200999999999231,0.32993550490741946,-0.13128827422228798
11.40099999999912,0.34148058123525854,-0.13625754673288926
11.60099999999901,0.3483092459971953,-0.13975281158772684
11.800999999998899,0.3566519151615678,-0.14414537193853483
12.000999999998788,0.36382623774304496,-0.14877896457094328
12.200999999998677,0.37187968361123036,-0.15335019343371947
12.400999999998566,0.37976015879078984,-0.15819386006041797
12.600999999998455,0.3855543526379179,-0.16313994150575314
12.800999999998345,0.3954322636065951,-0.16826649094070564
13.000999999998234,0.4047851020403845,-0.17388392232978545
13.200999999998123,0.41484223183475893,-0.17859613740047497
13.400999999998012,0.4225508724312671,-0.18218558122721681
13.600999999997901,0.4334614984277235,-0.18674161450847965
13.80099999999779,0.43909067450701644,-0.18945462012691658
14.00099999999768,0.44600177740518826,-0.19099843059182012
14.200999999997569,0.4485525794827989,-0.19346905158400904
14.400999999997458,0.45045431312142253,-0.19478915122754206
14.600999999997347,0.4525001143930895,-0.19684603492918806
14.800999999997236,0.4635882787091313,-0.201319888404893
15.000999999997125,0.47016252181986345,-0.20641456161266075
15.200999999997014,0.47794389861616643,-0.210036298246222
15.400999999996904,0.48701825355941847,-0.2121407210819776
15.600999999996793,0.4985356797219543,-0.2162966701093993
15.800999999996682,0.5105113617155967,-0.22129853316713854
16.000999999996573,0.5208151911606381,-0.22586575723388627
16.200999999996817,0.5291784589785304,-0.23128048418150055
16.40099999999706,0.5384348015754734,-0.23617765427755413
16.600999999997306,0.5497120178395979,-0.24086661428052636
16.80099999999755,0.5586331311892683,-0.24499519693582011
17.000999999997795,0.5716867755608831,-0.24976882265947045
17.20099999999804,0.5837834269041311,-0.25341809453288183
17.400999999998284,0.5893973933358193,-0.2571603523252457
17.60099999999853,0.5996183240592596,-0.26164765942298873
17.800999999998773,0.6075948781871326,-0.2649552375574835
18.000999999999017,0.6130048200698827,-0.26866477233201336
18.20099999999926,0.6246849803490291,-0.2736683799022354
18.400999999999506,0.6352154905707045,-0.2783278872215656
18.60099999999975,0.644001858121711,-0.2815560400170538
18.799999999999994,0.65291954791068,-0.28536827230123374
19.000000000000238,0.6628871401806096,-0.29006397738438877
19.200000000000482,0.6706982327790764,-0.29482005525024313
19.400000000000727,0.6832366924050899,-0.3008114796647701
19.60000000000097,0.6939334734515593,-0.3063319832751106
19.800000000001216,0.7001716873881332,-0.31005905006760226
20.00000000000146,0.7107979544305577,-0.31587357778254743
