Time (s),X (m),Y (m)
0.001,7.024362446948994e-05,0.0009692696795465077
0.20000000000000015,0.001439484528743953,-0.001503830944885907
0.4000000000000003,0.0074185040664279545,-0.0037202628682877826
0.6000000000000004,0.01407944160502468,-0.003533920015144494
0.8000000000000006,0.021725727277759885,-0.01074176066194847
1.0000000000000007,0.02568134956252537,-0.021410845768498988
1.2009999999999785,0.03607853833624671,-0.04170941551447772
1.4009999999999565,0.04979416011075758,-0.05908817157708273
1.6009999999999345,0.06886477342169464,-0.07060009394793303
1.8009999999999124,0.09047931673115853,-0.06689093488104798
2.0009999999998906,0.10774619222604911,-0.08511577003621626
2.2009999999998686,0.12729741212305565,-0.1027166416897133
2.4009999999998466,0.15332418648978652,-0.10367071793288786
2.6009999999998246,0.17963331163499519,-0.10406061978000178
2.8009999999998025,0.20308515746843778,-0.11894627394186925
3.0009999999997805,0.22114569449538243,-0.13831806730105733
3.2009999999997585,0.24156929511255024,-0.16047535741297123
3.4009999999997365,0.26431143823408987,-0.1791944620229363
3.6009999999997144,0.2857973530260372,-0.18833796070130437
3.8009999999996924,0.3109152992159326,-0.19200215033802304
4.000999999999671,0.3394693515699717,-0.19878547176794478
4.200999999999738,0.37031583654194944,-0.20807537398197176
4.400999999999804,0.396583670655415,-0.2162546263257871
4.600999999999871,0.4214730928248857,-0.23526184629431066
4.800999999999938,0.4445900951649543,-0.25131372873028046
5.000000000000004,0.4593526305024627,-0.28035720203116193
5.200000000000071,0.4757706575956052,-0.2972702937227143
5.400000000000138,0.5007218439031066,-0.31575109756796194
5.600000000000205,0.5300292652705557,-0.33439214345971363
5.800000000000272,0.5569249763538726,-0.3636474981091373
6.000000000000338,0.5754677095758354,-0.3893905941907156
6.200000000000405,0.5957133294723199,-0.40728655979966977
6.400000000000472,0.6188507824717815,-0.4226197578805194
6.600000000000539,0.6449033907787132,-0.433545486139507
6.800000000000606,0.6731052048374941,-0.4413125122380581
7.000000000000672,0.7030678270666851,-0.44787509864902036
7.200000000000739,0.7224537349393775,-0.47493140385400495
7.400000000000806,0.7375502646500819,-0.5130002278931913
7.600000000000873,0.7494870055964121,-0.5431034230233291
7.8000000000009395,0.7677258064473238,-0.5663996925197144
8.000000000001005,0.7952733913868921,-0.5974116929401299
8.200000000000895,0.8218756004727187,-0.6277188897014163
8.400000000000784,0.8454035240979108,-0.6589788666198927
8.600000000000673,0.877214290485054,-0.6923563909121156
8.800000000000562,0.9122598819782171,-0.7074058386987963
9.000000000000451,0.9506647829642305,-0.7179360959301657
9.20000000000034,0.9914539536343678,-0.7215902131640335
9.40000000000023,1.0291985327734465,-0.7414332934221676
9.600000000000119,1.0610202968268152,-0.7560510255074145
9.800000000000008,1.0925802122042312,-0.7683774363874941
10.000999999999896,1.1226917361471644,-0.7865346888076128
10.200999999999786,1.1517486739834981,-0.8062945382316785
10.400999999999675,1.1760845998820457,-0.8295170605936102
10.600999999999564,1.189861848271809,-0.8633408864591409
10.800999999999453,1.2032726127337154,-0.8951193004441048
11.000999999999342,1.2152556269502146,-0.9264936559460047
11.200999999999231,1.2339391330000626,-0.943887330338355
11.40099999999912,1.2611212763302082,-0.9555461399637266
11.60099999999901,1.2841651090010566,-0.9701190209125383
11.800999999998899,1.3055069644484985,-0.9944483326148128
12.000999999998788,1.3323496522943852,-1.0163354626836805
12.200999999998677,1.362074098796557,-1.0303828252952292
12.400999999998566,1.3892725689169345,-1.0539992592194571
12.600999999998455,1.4176198368224475,-1.0807987305162527
12.800999999998345,1.4521758165822802,-1.1003811263039602
13.000999999998234,1.490853940550421,-1.1108161656096267
13.200999999998123,1.5297125555090967,-1.1254386171854187
13.400999999998012,1.5674599483194973,-1.1453336638436211
13.600999999997901,1.6076034179190997,-1.153065452680238
13.80099999999779,1.6485461390988772,-1.1479856312661563
14.00099999999768,1.691173290438769,-1.155858089581225
14.200999999997569,1.7326425611053573,-1.171098647370235
14.400999999997458,1.772775314364075,-1.2014208236442414
14.600999999997347,1.8059069354544104,-1.2304444159376968
14.800999999997236,1.8330270427252149,-1.254294589897347
15.000999999997125,1.8634417612972143,-1.2578357380302028
15.200999999997014,1.9004125719663014,-1.2663011644345228
15.400999999996904,1.9369828748969635,-1.2709082730667254
15.600999999996793,1.9774960635242862,-1.2735496622200384
15.800999999996682,2.020531310889303,-1.2867365659784777
16.000999999996573,2.058740961040632,-1.3113292669778642
16.200999999996817,2.0954300086357636,-1.336687762130333
16.40099999999706,2.1297816419827926,-1.3502549897421754
16.600999999997306,2.1657142620612637,-1.362975139406222
16.80099999999755,2.2028984683984056,-1.3623486489589198
17.000999999997795,2.241483149403972,-1.3721142111070757
17.20099999999804,2.2725408235090305,-1.3952146202756581
17.400999999998284,2.3006742231191835,-1.4190162551579062
17.60099999999853,2.3320442009104867,-1.4384874207584497
17.800999999998773,2.367722074767996,-1.4639310572195343
18.000999999999017,2.404537183263206,-1.4834610051254113
18.20099999999926,2.440878315421859,-1.5161335911561669
18.400999999999506,2.472263769013617,-1.5354181350216385
18.60099999999975,2.496140564430496,-1.5474569789806016
18.799999999999994,2.5195330460859253,-1.5642814714510687
19.000000000000238,2.543735692002807,-1.582910802662071
19.200000000000482,2.565886520696792,-1.6127683608262493
19.400000000000727,2.5901489252913863,-1.6535421214791444
19.60000000000097,2.618326386332621,-1.6851582149698419
19.800000000001216,2.655320303675051,-1.6901881470203506
20.00000000000146,2.6915934386667755,-1.696125106039868
