Time (s),X (m),Y (m)
0.001,0.001086048446240603,-0.0007901558823345071
0.20000000000000015,0.000422650335683845,0.0005116248716161109
0.4000000000000003,-0.00047450643402319214,0.0018540641838642109
0.6000000000000004,-0.0034246888658655,0.011800050689525587
0.8000000000000006,-0.006587191898174689,0.012231653980964213
1.0000000000000007,-0.005665927011293543,0.01108470014959064
1.2009999999999785,0.0012299572026070304,0.01578226261894329
1.4009999999999565,0.012028188037009703,0.021079663706398844
1.6009999999999345,0.021298212305587868,0.014621963046255446
1.8009999999999124,0.03538228748057115,0.012191253758503391
2.0009999999998906,0.0474562866965333,0.01064212011697271
2.2009999999998686,0.05801116687088402,0.021427389277284565
2.4009999999998466,0.06940675733173361,0.023756562914533756
2.6009999999998246,0.0859376396933977,0.0031236004511310954
2.8009999999998025,0.10188641254330377,-0.008053126636877406
3.0009999999997805,0.12064517165395182,-0.02548995265099719
3.2009999999997585,0.1373873436770037,-0.03525880895414783
3.4009999999997365,0.1520418788530494,-0.034840767512294285
3.6009999999997144,0.1629532153259336,-0.04380567884167334
3.8009999999996924,0.17190023783794708,-0.05132312090421843
4.000999999999671,0.17561253329440984,-0.06807718044013417
4.200999999999738,0.18210184110724612,-0.09334685900946343
4.400999999999804,0.18681362179638497,-0.10497499063754548
4.600999999999871,0.19256409995896887,-0.11325447913416307
4.800999999999938,0.19632210794617613,-0.12549333782227115
5.000000000000004,0.20003136649754705,-0.1417271945673159
5.200000000000071,0.20249619313429834,-0.1514380500478316
5.400000000000138,0.20369148124998962,-0.16717567173292755
5.600000000000205,0.2042729354139728,-0.18721763872332206
5.800000000000272,0.20808071529387928,-0.20864255702315262
6.000000000000338,0.21025863023069968,-0.24115428560834778
6.200000000000405,0.2110587276579512,-0.27900998958097234
6.400000000000472,0.21035225609831185,-0.314332655446931
6.600000000000539,0.2120324054730472,-0.3431533535098134
6.800000000000606,0.20560025471970778,-0.3800628197694442
7.000000000000672,0.19493090507461835,-0.4266623474634373
7.200000000000739,0.19071115676314393,-0.46410264386711747
7.400000000000806,0.18777579966341984,-0.5003092593786812
7.600000000000873,0.18075563953404833,-0.5448402029648202
7.8000000000009395,0.1862602108999819,-0.5689850664119908
8.000000000001005,0.19248563627016177,-0.5960716102937659
8.200000000000895,0.19155942084475688,-0.6321531182423007
8.400000000000784,0.19073649756789288,-0.6724170172199502
8.600000000000673,0.193602045616584,-0.7054054035466527
8.800000000000562,0.18660710799613953,-0.7386922757293775
9.000000000000451,0.1799024664016422,-0.7738757453116425
9.20000000000034,0.1784876617035187,-0.8036634484201669
9.40000000000023,0.1713360923950449,-0.8337855081120934
9.600000000000119,0.15998123792548083,-0.8709831834569137
9.800000000000008,0.1636052205573,-0.8977350150165664
10.000999999999896,0.16524846100708993,-0.9280735571254146
10.200999999999786,0.16633304876223892,-0.950811473167822
10.400999999999675,0.16375111406283147,-0.9719406788161302
10.600999999999564,0.16289442555028938,-0.9923287958901967
10.800999999999453,0.16452950662520982,-1.0227388347368889
11.000999999999342,0.1656273089641106,-1.051014590860034
11.200999999999231,0.17118641535261303,-1.0868833269884612
11.40099999999912,0.17454465673088904,-1.125681859573834
11.60099999999901,0.16945769853148437,-1.1638198493106284
11.800999999998899,0.17218192189895498,-1.1821914250172225
12.000999999998788,0.17303001802919019,-1.2081979280624906
12.200999999998677,0.17431324213781624,-1.226460079001072
12.400999999998566,0.17828602980996677,-1.239486424500491
12.600999999998455,0.18466279108666225,-1.2537003976244292
12.800999999998345,0.19021562340172102,-1.275496560154753
13.000999999998234,0.19845765725451608,-1.3023356059509419
13.200999999998123,0.19563212041783765,-1.3276720590778526
13.400999999998012,0.19902956905174643,-1.3521743132137358
13.600999999997901,0.1937969008131901,-1.3835402939640236
13.80099999999779,0.18022695747786982,-1.4200864095789791
14.00099999999768,0.16355929325901483,-1.4610269434848897
14.200999999997569,0.16385829309884176,-1.4963234899355868
14.400999999997458,0.170181438911135,-1.5346618064504656
14.600999999997347,0.17270513332367854,-1.5748268156396255
14.800999999997236,0.17664809547318253,-1.6079029664221136
15.000999999997125,0.18326607818721347,-1.6292905616001365
15.200999999997014,0.1880987069687278,-1.6484533076852437
15.400999999996904,0.18803262944883434,-1.6754747004503776
15.600999999996793,0.18760403371454537,-1.7117702824760421
15.800999999996682,0.18410536204827327,-1.7550508650209693
16.000999999996573,0.1828028161714751,-1.7957269298648146
16.200999999996817,0.17767289501752237,-1.8333173253448465
16.40099999999706,0.1741364643574024,-1.8782692649202997
16.600999999997306,0.1676213552431825,-1.9281106131273602
16.80099999999755,0.17152835247010878,-1.9580401396110154
17.000999999997795,0.18418855241831272,-1.982423190494967
17.20099999999804,0.18772888208797042,-2.0167734179525985
17.400999999998284,0.18711795279701993,-2.0528651065848496
17.60099999999853,0.18570515676441052,-2.0922688987657008
17.800999999998773,0.17606374295281949,-2.1399538543892436
18.000999999999017,0.17077467205369712,-2.1798145246868685
18.20099999999926,0.17006100520918152,-2.2168852953182636
18.400999999999506,0.17439343043707722,-2.2528466272983225
18.60099999999975,0.17911655854104666,-2.2840765747470053
18.799999999999994,0.1636721587147913,-2.322362728176063
19.000000000000238,0.14549861757962665,-2.361523125235364
19.200000000000482,0.12495130802297993,-2.395772273501041
19.400000000000727,0.09640924803059907,-2.4252931134710023
19.60000000000097,0.07376863279425185,-2.4467251430543424
19.800000000001216,0.03539797781744633,-2.463829473911028
20.00000000000146,-0.007960638048951665,-2.47691489015797
