Time (s),X (m),Y (m)
0.001,-0.00030633420604509907,0.0007293631428462583
0.20000000000000015,0.001717072059717133,-0.0011382846739096653
0.4000000000000003,0.0008617399729308037,0.0004304066287853316
0.6000000000000004,0.002352479040439981,0.0009648815037584502
0.8000000000000006,0.014226367988083166,0.0071974139309686925
1.0000000000000007,0.024396163931375333,0.01825836401658163
1.2009999999999785,0.0416357681106411,0.013676666592989117
1.4009999999999565,0.06252279629336634,0.005822264890471108
1.6009999999999345,0.07804051135802564,0.0018205440566634238
1.8009999999999124,0.0954071029529053,-0.0042504037797987835
2.0009999999998906,0.11150566440476192,-0.008690643568574285
2.2009999999998686,0.13450071599127245,-0.021055093419001143
2.4009999999998466,0.1530734241465328,-0.028079351892656507
2.6009999999998246,0.17369096878527393,-0.03323258373992958
2.8009999999998025,0.19795085970831466,-0.04102614436007076
3.0009999999997805,0.2254969486638262,-0.05237525913566258
3.2009999999997585,0.2504309227949688,-0.06333970198672906
3.4009999999997365,0.2771804015210329,-0.07446539869647212
3.6009999999997144,0.3062557169601936,-0.08540542474973065
3.8009999999996924,0.3275827663773518,-0.09080027465702088
4.000999999999671,0.35206413915646717,-0.09484989461060832
4.200999999999738,0.3747072183311885,-0.1038617110377482
4.400999999999804,0.39909381462123944,-0.10941606710754756
4.600999999999871,0.42404853238323337,-0.11343831878309116
4.800999999999938,0.44687134061629075,-0.12306478556731407
5.000000000000004,0.4687170092396593,-0.12667898176299622
5.200000000000071,0.4989525739526562,-0.12895349906784004
5.400000000000138,0.5344432999690536,-0.13457284408521278
5.600000000000205,0.5611438386920305,-0.13235396553107986
5.800000000000272,0.5824104792991018,-0.1267855745071051
6.000000000000338,0.608116765741776,-0.1270583215712336
6.200000000000405,0.639908921471637,-0.13156407674040363
6.400000000000472,0.6733210631911615,-0.1357648401682558
6.600000000000539,0.7119838631888744,-0.13731854909502694
6.800000000000606,0.7517428516483984,-0.14183539523047933
7.000000000000672,0.7934175071824147,-0.15053276244579497
7.200000000000739,0.8321647969811825,-0.15818504736799874
7.400000000000806,0.8627698174584981,-0.15473976767665878
7.600000000000873,0.8974336630594336,-0.15805602758580664
7.8000000000009395,0.9252307804076133,-0.15735536315882437
8.000000000001005,0.9544833127923054,-0.16727647455434
8.200000000000895,0.9819503164693737,-0.19402277084927422
8.400000000000784,1.0094327197488244,-0.23884999114325559
8.600000000000673,1.0282991783798408,-0.27131355548172437
8.800000000000562,1.043754404927109,-0.29877585103492094
9.000000000000451,1.0480562879579385,-0.3421479360100687
9.20000000000034,1.0497029350651876,-0.37515939783271257
9.40000000000023,1.0500246640633697,-0.4137478578025999
9.600000000000119,1.0461452161945644,-0.4598955692780502
9.800000000000008,1.0418641629379364,-0.5070366013108961
10.000999999999896,1.0337767201430783,-0.5675625441990693
10.200999999999786,1.0265303379300046,-0.617345952409163
10.400999999999675,1.021202483956339,-0.6597672450672153
10.600999999999564,1.016492798793006,-0.7030667129534776
10.800999999999453,1.0185832388671459,-0.7415104592105076
11.000999999999342,1.0106989955242518,-0.781854185324776
11.200999999999231,1.0039014609167154,-0.8207216637036217
11.40099999999912,0.9900654010563213,-0.8589381764138728
11.60099999999901,0.9650577723921503,-0.9014018185705835
11.800999999998899,0.9402665345489003,-0.9409985667843558
12.000999999998788,0.9009515586887206,-0.9672798747545467
12.200999999998677,0.8589969155875922,-0.9780479483031316
12.400999999998566,0.8182676086786482,-0.9830338600202885
12.600999999998455,0.7795662927248048,-0.9846580626932682
12.800999999998345,0.7361111860793939,-0.9868272868914796
13.000999999998234,0.6912967288504157,-0.9822899648398314
13.200999999998123,0.645225028858934,-0.973810899075279
13.400999999998012,0.5950031246529095,-0.957090897736532
13.600999999997901,0.5521817723169054,-0.9441527296373169
13.80099999999779,0.5118585937799278,-0.939761282606772
14.00099999999768,0.4782846166272908,-0.9396749063878626
14.200999999997569,0.44229144453122854,-0.93959244499512
14.400999999997458,0.3997515927615432,-0.9498825998269903
14.600999999997347,0.3581644638156363,-0.9536771900413739
14.800999999997236,0.3094324581421053,-0.9503788555514938
15.000999999997125,0.2526234140446168,-0.9423502890494929
15.200999999997014,0.1952239561283293,-0.9242763111761498
15.400999999996904,0.1484206355098839,-0.920708129014123
15.600999999996793,0.1053233540269856,-0.9120289564276872
15.800999999996682,0.07707932821333327,-0.8848462989942281
16.000999999996573,0.06772463281701745,-0.8419513688345389
16.200999999996817,0.07117315465018495,-0.7901632573826926
16.40099999999706,0.07718450496579128,-0.7350786117022938
16.600999999997306,0.08459523927583751,-0.6903293759829234
16.80099999999755,0.10194240747638217,-0.6396736370872865
17.000999999997795,0.10995661267616721,-0.5898857716745992
17.20099999999804,0.11506762033486839,-0.5454223861574395
17.400999999998284,0.12898033886224072,-0.5013263718513895
17.60099999999853,0.14023855114020436,-0.45798168268673
17.800999999998773,0.15119315924450238,-0.41229814780695834
18.000999999999017,0.15959278036881847,-0.37727482516698824
18.20099999999926,0.16305296507181807,-0.34482758570498095
18.400999999999506,0.15827385315898732,-0.31396222373025956
18.60099999999975,0.15808572589913442,-0.27647458760326216
18.799999999999994,0.16183238475358963,-0.23141786097767583
19.000000000000238,0.16729325290608013,-0.1894130941498209
19.200000000000482,0.1583034942905981,-0.16460199852517948
19.400000000000727,0.1479667770152084,-0.13623329214762295
19.60000000000097,0.14278311525609655,-0.08973414641012312
19.800000000001216,0.15355616245284912,-0.03313521485309367
20.00000000000146,0.17051274023894578,0.022366190378472983
