Time (s),X (m),Y (m)
0.001,0.00033312994539159724,0.0010275501737767782
0.20000000000000015,0.0008307444831758704,0.0001369645808122898
0.4000000000000003,0.0015379779869703113,5.6858641404930894e-05
0.6000000000000004,0.002673596727664321,0.0009341641519638618
0.8000000000000006,0.005920227054129687,0.0013151286389487167
1.0000000000000007,0.008481503529180338,0.002392498247740633
1.2009999999999785,0.010924497709990474,0.004620991587915079
1.4009999999999565,0.014900712171782052,0.005131481750289032
1.6009999999999345,0.018086685316578772,0.00480835974409632
1.8009999999999124,0.02101053400246022,0.004706742180099998
2.0009999999998906,0.024397961211121432,0.0036008562127835962
2.2009999999998686,0.02826049578884828,0.003711024513764368
2.4009999999998466,0.031015398867118425,0.005167474115395307
2.6009999999998246,0.035810497710338944,0.010733287327159297
2.8009999999998025,0.041211815285685065,0.00646328161202807
3.0009999999997805,0.04211931944381706,0.003447004092257972
3.2009999999997585,0.043176813704177704,0.00033637906905100063
3.4009999999997365,0.045639398458739294,-0.0037457744725546307
3.6009999999997144,0.04935143845735232,-0.004411194895287651
3.8009999999996924,0.054160730405127394,-0.005596314623514722
4.000999999999671,0.05737768632245507,-0.008875697994013627
4.200999999999738,0.06253159920413164,-0.009997001603692691
4.400999999999804,0.06642026808282948,-0.013852963164559105
4.600999999999871,0.07051241677276464,-0.0141827775615695
4.800999999999938,0.07430909920474199,-0.01771670928152101
5.000000000000004,0.07714566156556496,-0.020406486060968978
5.200000000000071,0.08054095912073962,-0.02254899347581362
5.400000000000138,0.08428162377366002,-0.022766291046447482
5.600000000000205,0.09007356068324719,-0.023083659958059978
5.800000000000272,0.09456053575898758,-0.027054643226341234
6.000000000000338,0.09828162481768025,-0.03108428368734656
6.200000000000405,0.10406029639406884,-0.03202814412651731
6.400000000000472,0.10809029815309505,-0.03798184268185258
6.600000000000539,0.11194623213606805,-0.04035303616043963
6.800000000000606,0.11472776138418031,-0.043881013484554705
7.000000000000672,0.11761304372281503,-0.04863203054600789
7.200000000000739,0.121011648503635,-0.051048326983219754
7.400000000000806,0.12565171461556426,-0.0506413727536287
7.600000000000873,0.12991448836653155,-0.05304316488077461
7.8000000000009395,0.13420337183538317,-0.05805905806481453
8.000000000001005,0.1374336413063747,-0.06270260258376364
8.200000000000895,0.14094164262785597,-0.06519211988152228
8.400000000000784,0.1464193671478024,-0.0643183891594566
8.600000000000673,0.1520342829741868,-0.06769006607470361
8.800000000000562,0.15560479126510773,-0.07058748123852969
9.000000000000451,0.1590099355455142,-0.07230287580718134
9.20000000000034,0.16341207095186602,-0.06985629817197163
9.40000000000023,0.16634448767122156,-0.07318643563096569
9.600000000000119,0.1695786851984367,-0.07336020259635241
9.800000000000008,0.17425733854217532,-0.07607027952435924
10.000999999999896,0.179318375214896,-0.07926538869494829
10.200999999999786,0.18417654605282902,-0.08115529607267213
10.400999999999675,0.18717889235912177,-0.08381106181306433
10.600999999999564,0.1897676991977786,-0.08799935819792734
10.800999999999453,0.1936105856408165,-0.08888973580954153
11.000999999999342,0.19783230890176964,-0.09207055908750077
11.200999999999231,0.20090227003868177,-0.09716305869547404
11.40099999999912,0.20334799878661,-0.1002254560442755
11.60099999999901,0.20720848357187188,-0.10303216725318502
11.800999999998899,0.21232030940207033,-0.10193905511082373
12.000999999998788,0.2160220360463471,-0.10688040278204658
12.200999999998677,0.21853227837628392,-0.10952205417182047
12.400999999998566,0.2225559743316823,-0.11179995434648116
12.600999999998455,0.22601547435765634,-0.1141668597951323
12.800999999998345,0.22841274882318743,-0.11724147776130434
13.000999999998234,0.23341319480277437,-0.12127806984459767
13.200999999998123,0.2393774073979492,-0.12167144270166035
13.400999999998012,0.24330050963844382,-0.12132871963117874
13.600999999997901,0.2480982152874664,-0.1275520854850763
13.80099999999779,0.25249721623846777,-0.13009488188499005
14.00099999999768,0.25693948627433383,-0.13351219494052724
14.200999999997569,0.2601714472666092,-0.13704624908611493
14.400999999997458,0.26426150228425677,-0.13988632557942973
14.600999999997347,0.26730866440915535,-0.14529645036358801
14.800999999997236,0.271647770499318,-0.14725574807343636
15.000999999997125,0.27620293227531123,-0.14877342680178818
15.200999999997014,0.2818600849056459,-0.15063493127339153
15.400999999996904,0.28423641695969865,-0.15605463666274394
15.600999999996793,0.2890689033083251,-0.1562938557611153
15.800999999996682,0.29316101813974255,-0.15799238926306375
16.000999999996573,0.2957904516758167,-0.16174797882151656
16.200999999996817,0.3024269073748803,-0.15855813252939002
16.40099999999706,0.30955501950578446,-0.15990301407475632
16.600999999997306,0.3138814077570377,-0.16060611456223547
16.80099999999755,0.31829613327150796,-0.16330907333254444
17.000999999997795,0.3231208952738047,-0.16124159415440342
17.20099999999804,0.32854149422384227,-0.16289115541790333
17.400999999998284,0.33144238702268375,-0.16594035798900084
17.60099999999853,0.3365655897756322,-0.16628189170278027
17.800999999998773,0.3423146774297341,-0.16796267672412135
18.000999999999017,0.3456068333903579,-0.17100270883456004
18.20099999999926,0.3481394389382007,-0.17734579228884814
18.400999999999506,0.3518984041722468,-0.1813498644757121
18.60099999999975,0.35636542429917023,-0.18326209617171366
18.799999999999994,0.36002269260792563,-0.18496705922504506
19.000000000000238,0.3655200615730094,-0.18664173745545748
19.200000000000482,0.3700572384255831,-0.1872064709799036
19.400000000000727,0.3757338874576135,-0.18679804864331756
19.60000000000097,0.3798756060952802,-0.18928740725036308
19.800000000001216,0.3853903856931143,-0.1873687875712578
20.00000000000146,0.39069594832628474,-0.18970510291464177
