Time (s),X (m),Y (m)
0.001,7.024362446948994e-05,-0.0009692696795465074
0.20000000000000015,0.001226952268653907,0.0004923484846778288
0.4000000000000003,0.0033753476641593953,-0.0013498768473640035
0.6000000000000004,0.009403708310079925,0.0027158676009209834
0.8000000000000006,0.015193874741683362,0.012371773479468632
1.0000000000000007,0.024650186363204676,0.021228387353600456
1.2009999999999785,0.037232128114987155,0.02306273864588921
1.4009999999999565,0.04748149635015026,0.030452006340843343
1.6009999999999345,0.060971470287682523,0.031420990340081924
1.8009999999999124,0.07662093586282488,0.042697720253439465
2.0009999999998906,0.09174010636990011,0.04842746865980637
2.2009999999998686,0.105380098615321,0.053404405796045246
2.4009999999998466,0.11739341915067926,0.05334123165108521
2.6009999999998246,0.13426200140978975,0.05571253353265841
2.8009999999998025,0.1463046754551997,0.05828074712061927
3.0009999999997805,0.15892700324614825,0.05655726435818985
3.2009999999997585,0.17248237546779593,0.06305580209007605
3.4009999999997365,0.18999213963119682,0.07148405863825753
3.6009999999997144,0.20333746798720395,0.06765673423167372
3.8009999999996924,0.21317825240874344,0.061327816675607244
4.000999999999671,0.22412508190459382,0.05350151113424107
4.200999999999738,0.23834023664632523,0.052481108226491324
4.400999999999804,0.2573021973948402,0.06289411077375487
4.600999999999871,0.27964178815932833,0.06624362308217438
4.800999999999938,0.29989424552116334,0.07294905464358183
5.000000000000004,0.31339787048601425,0.07528124184785259
5.200000000000071,0.3277981316198063,0.07584817281673893
5.400000000000138,0.3493474698592194,0.0767730163890904
5.600000000000205,0.3689284156640264,0.07718447432947396
5.800000000000272,0.3885353340894365,0.08048231590202196
6.000000000000338,0.4125564938180722,0.08955953080030443
6.200000000000405,0.4411815141349717,0.09636508093215716
6.400000000000472,0.46961504288849265,0.10284386490107156
6.600000000000539,0.49693898653062135,0.111361089184478
6.800000000000606,0.5229816284378334,0.12186523724608801
7.000000000000672,0.5416288963395752,0.12959448071742752
7.200000000000739,0.5584340130530514,0.13112062059432655
7.400000000000806,0.582395403784568,0.1398948149151419
7.600000000000873,0.6052337057029347,0.14025845630852893
7.8000000000009395,0.6238203524330774,0.14488997760710784
8.000000000001005,0.6480092121005825,0.153814744080237
8.200000000000895,0.6655646493556069,0.15814432586713617
8.400000000000784,0.6871286077162033,0.1645189838284849
8.600000000000673,0.7203667074078941,0.17651327305178216
8.800000000000562,0.7542427440591711,0.1861581259988613
9.000000000000451,0.7783340316635032,0.1894170579619644
9.20000000000034,0.7987294822592317,0.19076804228590272
9.40000000000023,0.82023051251423,0.1915858518679844
9.600000000000119,0.8393293910736666,0.19073189263091403
9.800000000000008,0.8644000814058157,0.1943856023127829
10.000999999999896,0.8896633454808133,0.2090469911187893
10.200999999999786,0.918504113248421,0.22152397903836443
10.400999999999675,0.949935030364277,0.23242149811723314
10.600999999999564,0.9790099872722078,0.24216841693345378
10.800999999999453,1.0131767678585686,0.24849044301515433
11.000999999999342,1.0439991986567276,0.25577614507665075
11.200999999999231,1.0784332330141169,0.2664302847403614
11.40099999999912,1.1033396910123894,0.26805914149532145
11.60099999999901,1.132672297135751,0.27705729982640287
11.800999999998899,1.1617901442187781,0.28472012194876495
12.000999999998788,1.1909624914808281,0.29492416052819564
12.200999999998677,1.2197341398275596,0.29491272405952673
12.400999999998566,1.2524954660517214,0.3031740975346659
12.600999999998455,1.2775971770074341,0.3019565828481529
12.800999999998345,1.29928426972595,0.2997634178721751
13.000999999998234,1.3202044149620842,0.2935778269740462
13.200999999998123,1.3398020100134964,0.2894744967424443
13.400999999998012,1.356523960227228,0.27702362937700353
13.600999999997901,1.371736444335558,0.26857931593038964
13.80099999999779,1.3966586188732715,0.26962586008886513
14.00099999999768,1.424744042686898,0.28004697449959315
14.200999999997569,1.4512670422202065,0.2853644246816491
14.400999999997458,1.4827749688635279,0.28933556585513437
14.600999999997347,1.515201279838259,0.2964412470540572
14.800999999997236,1.5408945302413042,0.30082562332895335
15.000999999997125,1.5708297484743745,0.3123160193798764
15.200999999997014,1.600577809008183,0.31836907171338885
15.400999999996904,1.6311226490200963,0.33056236298940883
15.600999999996793,1.6692859278222785,0.35063243770273117
15.800999999996682,1.7047791970761605,0.36385619096143806
16.000999999996573,1.7370850860330724,0.3766973257593773
16.200999999996817,1.7707589578140646,0.38533280656280716
16.40099999999706,1.803050429203599,0.39288792170761255
16.600999999997306,1.8329545044535185,0.39893452462003537
16.80099999999755,1.863767469116621,0.40733062236260403
17.000999999997795,1.8970632818625113,0.4197436234009429
17.20099999999804,1.928733044492491,0.42732252467355525
17.400999999998284,1.9608188794505133,0.43530174846319364
17.60099999999853,1.9901499887569147,0.4423314382836946
17.800999999998773,2.0202971733776276,0.4581050972304885
18.000999999999017,2.0555301534854054,0.47443745588820263
18.20099999999926,2.087438879626599,0.48864781292370935
18.400999999999506,2.119018088167566,0.5078723932345459
18.60099999999975,2.1573776236014277,0.5244425912385099
18.799999999999994,2.19737071190185,0.5362053124525791
19.000000000000238,2.237896341949462,0.5529696469408677
19.200000000000482,2.2756633804513786,0.5626224015553231
19.400000000000727,2.306215580757339,0.5645396539272879
19.60000000000097,2.3368729011603255,0.5728780296056594
19.800000000001216,2.370810396537331,0.580826242338379
20.00000000000146,2.40313955910669,0.5883272703662834
