Time (s),X (m),Y (m)
0.001,-0.0006084463117070853,3.3283562657668553e-19
0.20000000000000015,0.0008898945982308312,-8.711679037638451e-05
0.4000000000000003,0.0013010028351347843,-7.738796836156632e-05
0.6000000000000004,0.0021224484045395354,-0.000122252857153682
0.8000000000000006,0.003206445997983347,-3.1827215195222467e-05
1.0000000000000007,0.004609128540136308,0.0001860987083306746
1.2009999999999785,0.006121653689636266,0.0004779011411852013
1.4009999999999565,0.007637947786870736,0.0007957292200896207
1.6009999999999345,0.009305446834305488,0.001097163394288216
1.8009999999999124,0.011025064044233644,0.0014294177112770538
2.0009999999998906,0.012785142252637676,0.0017935867792410552
2.2009999999998686,0.01463663969771322,0.0022017886108671456
2.4009999999998466,0.016368066394484664,0.0027227198474754502
2.6009999999998246,0.018189483537439256,0.003257801909098049
2.8009999999998025,0.02013517969943375,0.003839125790489727
3.0009999999997805,0.022039281585430403,0.004450067618997297
3.2009999999997585,0.023929516367938285,0.005139166803679667
3.4009999999997365,0.025803162249778026,0.005882040455805106
3.6009999999997144,0.02777139677367805,0.006691876936595284
3.8009999999996924,0.02977482733399705,0.00753084467613101
4.000999999999671,0.03185650021563908,0.008465116629983328
4.200999999999738,0.033995418885594965,0.009395356072033213
4.400999999999804,0.03622370443895539,0.010457096518144235
4.600999999999871,0.03848977346993526,0.011524394618282939
4.800999999999938,0.04085514261123476,0.012686585017533416
5.000000000000004,0.043207342936428535,0.013885953495671541
5.200000000000071,0.045640348105561536,0.015150604353746528
5.400000000000138,0.04801659715587633,0.01648550047223402
5.600000000000205,0.050734288232151016,0.017981729286735443
5.800000000000272,0.053297336313122834,0.019441829894701015
6.000000000000338,0.05599644574435172,0.02112884977548472
6.200000000000405,0.05887121891483709,0.022838031098683886
6.400000000000472,0.06179064432271102,0.024691579745668133
6.600000000000539,0.06473088082842199,0.026569800458617274
6.800000000000606,0.06759612984108722,0.028602226203976715
7.000000000000672,0.07058543628037951,0.030590711651280928
7.200000000000739,0.07360023031465462,0.03279646675253206
7.400000000000806,0.07671351320690045,0.03506921349661798
7.600000000000873,0.07984545259288707,0.037450933375838685
7.8000000000009395,0.08303754413187245,0.03994103616218543
8.000000000001005,0.08617826601857301,0.042552931794044534
8.200000000000895,0.08951357245568975,0.045168319017965246
8.400000000000784,0.09269065145260226,0.04789206734071823
8.600000000000673,0.0959362640833186,0.05059120583913508
8.800000000000562,0.09930913259085368,0.0534510999907109
9.000000000000451,0.10290416543355577,0.05664063303539043
9.20000000000034,0.10656392387708603,0.059706964165012505
9.40000000000023,0.11003162661702513,0.06283213036330125
9.600000000000119,0.11341402028438646,0.06570622947569443
9.800000000000008,0.11689348328384007,0.06883921845021763
10.000999999999896,0.12082612684690074,0.07266243363033416
10.200999999999786,0.12445263535161857,0.07624772037834951
10.400999999999675,0.12797943433610723,0.07979326034988705
10.600999999999564,0.13156993114756466,0.08311241852473299
10.800999999999453,0.1352691471545315,0.08675293145623955
11.000999999999342,0.13895914222298936,0.0907433371486586
11.200999999999231,0.1426871102805468,0.09463485319913133
11.40099999999912,0.14646794243960587,0.09857486509949098
11.60099999999901,0.14983565195671011,0.10199946521671861
11.800999999998899,0.1532618072120136,0.1054913592282509
12.000999999998788,0.15620897198497002,0.10853191976565464
12.200999999998677,0.1593263214782986,0.11184147222867262
12.400999999998566,0.16302396085120346,0.1159689909010209
12.600999999998455,0.1665207673548914,0.11986234833429898
12.800999999998345,0.1696896514015052,0.12331447597402714
13.000999999998234,0.17320653357765586,0.12757945027580161
13.200999999998123,0.17694883922192142,0.13202240755892636
13.400999999998012,0.18028843636448347,0.1361524925273695
13.600999999997901,0.18414830292291265,0.14096472155362846
13.80099999999779,0.18823587794936486,0.1462713610950126
14.00099999999768,0.19208616099738762,0.15123783032316146
14.200999999997569,0.19555309671678694,0.15556400715152355
14.400999999997458,0.19857714809702054,0.15935029699415912
14.600999999997347,0.20149735288553675,0.16326597825275221
14.800999999997236,0.2046120991306256,0.16747354449445379
15.000999999997125,0.20754492182340153,0.1715324603210394
15.200999999997014,0.21081809367502027,0.1761811863601471
15.400999999996904,0.2143455720549063,0.1813070329037556
15.600999999996793,0.2175135300115938,0.18573902994166955
15.800999999996682,0.22043634867279385,0.1902432547715498
16.000999999996573,0.22329197828545427,0.19443463468258895
16.200999999996817,0.22619541460699266,0.1989859197273808
16.40099999999706,0.22911951467043706,0.20358629688589713
16.600999999997306,0.23179906440606807,0.20801334181691344
16.80099999999755,0.23460102875776548,0.21270039629777174
17.000999999997795,0.23736443059663184,0.2173923191500324
17.20099999999804,0.24003845296785545,0.22189768995754644
17.400999999998284,0.24274588520087767,0.22675451312112227
17.60099999999853,0.24527028031322728,0.23143332253801455
17.800999999998773,0.24783688347342178,0.23629586979715048
18.000999999999017,0.25036659465321726,0.24136425869118103
18.20099999999926,0.2528484913386623,0.24651545702658081
18.400999999999506,0.2551681126334395,0.25158311957511253
18.60099999999975,0.25736952436669785,0.2566201776932224
18.799999999999994,0.2595589122779615,0.2620584093615478
19.000000000000238,0.26166677097245356,0.26700509395199246
19.200000000000482,0.263597246171395,0.2721928089164597
19.400000000000727,0.2654551676251047,0.27786384090648164
19.60000000000097,0.2673362744789858,0.2844720932706077
19.800000000001216,0.2691858144678345,0.29232961516258177
20.00000000000146,0.2708529350644419,0.29781844098264365
