Time (s),X (m),Y (m)
0.001,-0.0004702548317818469,0.0005157376242541224
0.20000000000000015,0.0012589325634761804,-0.0003149805411971767
0.4000000000000003,0.005683902735114183,-0.0023515194625935276
0.6000000000000004,0.019597477734508057,-0.010996276782684916
0.8000000000000006,0.043545776738133105,-0.021541504484260676
1.0000000000000007,0.06328419921420389,-0.026616638814759265
1.2009999999999785,0.09138286667080645,-0.03343715919590688
1.4009999999999565,0.1170145191798067,-0.04358131104005005
1.6009999999999345,0.1379082291179752,-0.05565768851868315
1.8009999999999124,0.15828747171251228,-0.06726000688393083
2.0009999999998906,0.17652397696641303,-0.07389510108803844
2.2009999999998686,0.19343444800489296,-0.08452028261270313
2.4009999999998466,0.21019565621834324,-0.10936313899693667
2.6009999999998246,0.21814075288393373,-0.13392091819503518
2.8009999999998025,0.21579188339024222,-0.16391386786959272
3.0009999999997805,0.2080779057581694,-0.19181382340695574
3.2009999999997585,0.1979678074704462,-0.21915401935584308
3.4009999999997365,0.18539464363129496,-0.25529287527699385
3.6009999999997144,0.17278541854645782,-0.2943311887242131
3.8009999999996924,0.1627118800180928,-0.322656474446297
4.000999999999671,0.14999727321702586,-0.34977656900435256
4.200999999999738,0.13472179695591968,-0.37943014122025354
4.400999999999804,0.11756983958588807,-0.4155087507214367
4.600999999999871,0.09760564382928791,-0.45680253845043944
4.800999999999938,0.07989309841651873,-0.4971229730763434
5.000000000000004,0.06665573929621502,-0.5354737061985735
5.200000000000071,0.04237348691605586,-0.5784087407554093
5.400000000000138,0.011195969443120351,-0.6285530817654623
5.600000000000205,-0.006194540144097519,-0.6743116227004836
5.800000000000272,-0.028925319902018718,-0.7161946612576691
6.000000000000338,-0.050691617140124816,-0.7523895629338245
6.200000000000405,-0.09603901055121199,-0.7700217054530317
6.400000000000472,-0.14291552555659215,-0.7667199459388592
6.600000000000539,-0.19605060101993316,-0.7537503705246568
6.800000000000606,-0.24371005222406558,-0.7432715132309428
7.000000000000672,-0.28753672655119683,-0.733131115790025
7.200000000000739,-0.33165686453215926,-0.7206785814164094
7.400000000000806,-0.37630650873170096,-0.7053762703044228
7.600000000000873,-0.4165205576784215,-0.6904942027915384
7.8000000000009395,-0.4635079011504495,-0.6723736187569472
8.000000000001005,-0.50277999251789,-0.6620248596879846
8.200000000000895,-0.5464120652534219,-0.6532169975235586
8.400000000000784,-0.5952859711149883,-0.6355271266240504
8.600000000000673,-0.6441127740760807,-0.6177151687492551
8.800000000000562,-0.6860887449959423,-0.5976148348879994
9.000000000000451,-0.7215037378090282,-0.5697266163793306
9.20000000000034,-0.7461774191889498,-0.5281558484010103
9.40000000000023,-0.7594826533286124,-0.4855862235109567
9.600000000000119,-0.7581818846504691,-0.43530812437523003
9.800000000000008,-0.7409741029004011,-0.38170311520452327
10.000999999999896,-0.7233043255377827,-0.3368865430372796
10.200999999999786,-0.7032346078029628,-0.29167850160199466
10.400999999999675,-0.6834683021601333,-0.24060375802907694
10.600999999999564,-0.656321453440245,-0.19179528682144834
10.800999999999453,-0.6379550386122356,-0.15425931803184145
11.000999999999342,-0.6230810873417943,-0.12942722587282726
11.200999999999231,-0.6148684685321212,-0.0985372208418629
11.40099999999912,-0.6083754197506096,-0.06291921691897633
11.60099999999901,-0.596324566373112,-0.018061607766974068
11.800999999998899,-0.5753030626777401,0.04028767248704947
12.000999999998788,-0.5588883126659628,0.09394354426996485
12.200999999998677,-0.5318960752187428,0.14552719555130478
12.400999999998566,-0.507574051648699,0.20270378145847567
12.600999999998455,-0.4974305292512859,0.25316209183083144
12.800999999998345,-0.48799023080707327,0.29661618938193174
13.000999999998234,-0.46979322897352793,0.3447984293219389
13.200999999998123,-0.4468571043703232,0.39703676792150905
13.400999999998012,-0.43221393162902777,0.44659019455353355
13.600999999997901,-0.4156073844012581,0.50155683787183
13.80099999999779,-0.3942069240070495,0.5584855219898344
14.00099999999768,-0.3653497418006904,0.6210941996183216
14.200999999997569,-0.32655442032066434,0.6948187770206136
14.400999999997458,-0.29142561891678387,0.7654973125827672
14.600999999997347,-0.2544096369849089,0.8245837851315487
14.800999999997236,-0.20476620935885534,0.8600270822470113
15.000999999997125,-0.14705932101739963,0.8692856892398908
15.200999999997014,-0.08650036938026792,0.8616222446119673
15.400999999996904,-0.025344333659973094,0.8516483001411705
15.600999999996793,0.03792205504443807,0.820864270429504
15.800999999996682,0.08870703460786679,0.7944143635862378
16.000999999996573,0.11793561111869699,0.7628014194965442
16.200999999996817,0.12703814530278285,0.7151332008295581
16.40099999999706,0.12276000199007597,0.6704716989340906
16.600999999997306,0.10603294828165186,0.6258185059039384
16.80099999999755,0.08211076058466928,0.5768849181290201
17.000999999997795,0.05939242742553115,0.5257694988447916
17.20099999999804,0.04392518540613938,0.47356212901022127
17.400999999998284,0.02354947413432103,0.4121678111456844
17.60099999999853,0.0023493947698012677,0.35383859155129666
17.800999999998773,-0.022699302401119423,0.29519472181061657
18.000999999999017,-0.042231056173071733,0.2413838215035337
18.20099999999926,-0.07395009687127631,0.20287289068502304
18.400999999999506,-0.1319319846539432,0.19432073666233948
18.60099999999975,-0.19503994477563602,0.1976542816773161
18.799999999999994,-0.2424135706078358,0.19925744178950822
19.000000000000238,-0.2982658017910704,0.210654345934115
19.200000000000482,-0.3629583808705588,0.227323785388904
19.400000000000727,-0.4159246818655134,0.2414326314006478
19.60000000000097,-0.4649391435838907,0.26279657647130494
19.800000000001216,-0.5170377745876356,0.2864896754898969
20.00000000000146,-0.5668407435626135,0.32327097267398247
