Time (s),X (m),Y (m)
0.001,0.0010146588340248276,-0.0008449350584490237
0.20000000000000015,0.0005975992901695136,0.0009602925164111012
0.4000000000000003,0.004831929489012368,-0.0035953493739881845
0.6000000000000004,0.010571254126742199,-0.003590947105522931
0.8000000000000006,0.021005199233372636,-0.009150080932233866
1.0000000000000007,0.040088617405435505,-0.015586828911990891
1.2009999999999785,0.0597907449205646,-0.00892521161044397
1.4009999999999565,0.07155655631041352,0.0031921908825711144
1.6009999999999345,0.0782114598862295,0.01425484171632977
1.8009999999999124,0.08877371734263999,0.024747195232382477
2.0009999999998906,0.09581700814852345,0.03779917654199766
2.2009999999998686,0.10477199919328085,0.04424887121946502
2.4009999999998466,0.11768233830040362,0.04519106333231331
2.6009999999998246,0.12996415605608258,0.04846250124168414
2.8009999999998025,0.1500714585308847,0.049846095462318225
3.0009999999997805,0.1740924213260027,0.05320272757553406
3.2009999999997585,0.20140353047248377,0.05617780979685493
3.4009999999997365,0.2231824864169183,0.0658021074310683
3.6009999999997144,0.2477970396633423,0.07284098226807414
3.8009999999996924,0.26767435313490784,0.0811161543098765
4.000999999999671,0.2871376185715212,0.08717677802457693
4.200999999999738,0.3124835081146928,0.08985960170482991
4.400999999999804,0.3483253843242261,0.08900627895666084
4.600999999999871,0.38428943535486076,0.08499365557601106
4.800999999999938,0.4145176672195249,0.08104682464364625
5.000000000000004,0.42927091318751975,0.08580651374226422
5.200000000000071,0.44508329947056546,0.0942172564912104
5.400000000000138,0.46846723679065416,0.11050315810220672
5.600000000000205,0.5065873341745872,0.11551691237537616
5.800000000000272,0.5460218794695749,0.11781583767670707
6.000000000000338,0.5875802597066639,0.11769389921085191
6.200000000000405,0.6339361064567779,0.118309473217265
6.400000000000472,0.6789823129521125,0.11909622656224268
6.600000000000539,0.7189959542343365,0.12100110193325354
6.800000000000606,0.7498625127705141,0.12258092916023927
7.000000000000672,0.7572149066422217,0.1284622210998435
7.200000000000739,0.7788253093643528,0.13739044374378684
7.400000000000806,0.8099020401927072,0.14698113710356073
7.600000000000873,0.8416101731029053,0.15872907803201142
7.8000000000009395,0.8771805980393774,0.1713102104821163
8.000000000001005,0.9093447451438087,0.18488669680105263
8.200000000000895,0.9382645312822433,0.20295631711058051
8.400000000000784,0.9733971622359957,0.21511554462178126
8.600000000000673,1.0097351848773162,0.22798829724970623
8.800000000000562,1.040864183493091,0.24285027813708512
9.000000000000451,1.0768438366419273,0.2558243075877255
9.20000000000034,1.1141474741913346,0.2666107897008692
9.40000000000023,1.1584719948620434,0.27789092156252737
9.600000000000119,1.1911559856754625,0.28931260531235603
9.800000000000008,1.2184405287645466,0.2943274260024597
10.000999999999896,1.2451424270514617,0.30600373777650275
10.200999999999786,1.285587408770562,0.3139355397535235
10.400999999999675,1.3050974422581363,0.32524952357576464
10.600999999999564,1.3187472605717552,0.33998030046863764
10.800999999999453,1.333398915811756,0.35317647854349304
11.000999999999342,1.3597372738749853,0.36755705989574705
11.200999999999231,1.3866783690782543,0.3857095908003104
11.40099999999912,1.4182365542965016,0.3993397042532526
11.60099999999901,1.4567888098555866,0.4111055741126242
11.800999999998899,1.4977967134027843,0.4246462362243536
12.000999999998788,1.5308781939622145,0.44167786109093116
12.200999999998677,1.5596050758238078,0.46507138190686065
12.400999999998566,1.5876586598836182,0.4901459882332457
12.600999999998455,1.6229633447788567,0.513623558338911
12.800999999998345,1.6512448073871724,0.5343263112606008
13.000999999998234,1.6843653753174856,0.5515485244516326
13.200999999998123,1.7296890878008981,0.5681464105970718
13.400999999998012,1.7729487754601216,0.5774362331685967
13.600999999997901,1.8235645880029872,0.5820383280699483
13.80099999999779,1.8819592819083824,0.5814949501429973
14.00099999999768,1.921484326429643,0.5849171096276831
14.200999999997569,1.9465290902841814,0.5933198934695075
14.400999999997458,1.9731300552763416,0.6038426746096911
14.600999999997347,2.0029436532607665,0.6194350471077174
14.800999999997236,2.017139058076467,0.6405385471771495
15.000999999997125,2.0378359419670553,0.6678603865374092
15.200999999997014,2.0439541988973473,0.6977963237004183
15.400999999996904,2.079324031142171,0.7225128620396221
15.600999999996793,2.1400551087229283,0.7344094070225798
15.800999999996682,2.2011783184439353,0.7384995274228473
16.000999999996573,2.2443086414136766,0.7411105750373512
16.200999999996817,2.284934763371286,0.748976988924255
16.40099999999706,2.3410428760859427,0.7515131505229243
16.600999999997306,2.3836537701054206,0.7523086302345096
16.80099999999755,2.405896313861718,0.7647300491633825
17.000999999997795,2.4334393134148917,0.7797130105333148
17.20099999999804,2.4654299914270132,0.7985552581945841
17.400999999998284,2.491453189696234,0.8201271130203283
17.60099999999853,2.511395573739689,0.8441966487341609
17.800999999998773,2.544073613865956,0.8648167101263595
18.000999999999017,2.5787511572474298,0.8860152841006419
18.20099999999926,2.6023257009061234,0.9085118278258367
18.400999999999506,2.6133281257385077,0.9311204833281549
18.60099999999975,2.6500137077907673,0.9568926414615433
18.799999999999994,2.6775561537500727,0.9838698989739976
19.000000000000238,2.6855472702629024,1.0117937391132066
19.200000000000482,2.689461743812711,1.04508357770852
19.400000000000727,2.6974354858907374,1.082262048084874
19.60000000000097,2.7166768164218187,1.122016252672508
19.800000000001216,2.7455754593715547,1.1497265416004843
20.00000000000146,2.787413783589363,1.1716222504433886
