Time (s),X (m),Y (m)
0.001,0.0010146588340248276,-0.0008449350584490237
0.20000000000000015,0.0007036965320683956,0.00021271157301100128
0.4000000000000003,7.975865196695589e-05,2.8822283381564054e-05
0.6000000000000004,0.0014921296709563424,-0.006834382659867539
0.8000000000000006,0.0034229812376927087,-0.007936824404753691
1.0000000000000007,0.006783292104941219,-0.009088526466675661
1.2009999999999785,0.007968678113954733,-0.00633652097973078
1.4009999999999565,0.014434031977103278,-0.0061566376288091276
1.6009999999999345,0.019619462541338832,-0.0036788940283732415
1.8009999999999124,0.024312302457568002,-0.003570743405658831
2.0009999999998906,0.02734536172991758,-0.0024211493234043394
2.2009999999998686,0.031413326772232956,0.001852596965995004
2.4009999999998466,0.04759531755855212,0.0013843710033886534
2.6009999999998246,0.06203727205679305,-0.00027055792391062183
2.8009999999998025,0.07495881049239148,-4.626627748616462e-05
3.0009999999997805,0.0855291354177606,0.002666528377621497
3.2009999999997585,0.09083629389094257,0.0048915552876536575
3.4009999999997365,0.0930587552270213,0.017370899438057655
3.6009999999997144,0.09772354932655831,0.02958328519742433
3.8009999999996924,0.10907678104251661,0.031051555286066172
4.000999999999671,0.1216181417307606,0.029272807248208972
4.200999999999738,0.129336159579759,0.03495505417286247
4.400999999999804,0.1363908002249197,0.03842015130149703
4.600999999999871,0.1444845790135523,0.039405199291410814
4.800999999999938,0.15783538861106328,0.04099369847448876
5.000000000000004,0.16151383287981105,0.04940804606892956
5.200000000000071,0.17006987243712623,0.05703363093947195
5.400000000000138,0.17828719305309973,0.06112315321155881
5.600000000000205,0.18650844064746033,0.057721017049576
5.800000000000272,0.20264647483355638,0.0528153049647322
6.000000000000338,0.20844305826839718,0.05270487680420442
6.200000000000405,0.21259780754023408,0.0629753597506096
6.400000000000472,0.2258949694638483,0.07067415778486394
6.600000000000539,0.24723118237199512,0.07783186437060927
6.800000000000606,0.26695967886028077,0.08258937186324207
7.000000000000672,0.29097417045450935,0.08466038853562172
7.200000000000739,0.30643750812233994,0.08810026640926781
7.400000000000806,0.31539113614028447,0.09034499991527198
7.600000000000873,0.3229816443329564,0.09278820045355833
7.8000000000009395,0.34213592341243665,0.09412831933314714
8.000000000001005,0.3522427423828533,0.1009342307618971
8.200000000000895,0.365411473114378,0.10603933550241416
8.400000000000784,0.37092734505923547,0.11542047050639893
8.600000000000673,0.37374000213932107,0.12296972383752865
8.800000000000562,0.3791479730204106,0.13125241598323592
9.000000000000451,0.38410766582726685,0.1359241899706832
9.20000000000034,0.3863943627198427,0.145449494928654
9.40000000000023,0.3934053798064647,0.15707809873543774
9.600000000000119,0.39832512468229464,0.1691204897243691
9.800000000000008,0.4076231519997373,0.17687378603563544
10.000999999999896,0.41638365873663563,0.18569771623587486
10.200999999999786,0.42621226792644146,0.19974290063802547
10.400999999999675,0.43332868418909376,0.21542955942985328
10.600999999999564,0.4526802188074368,0.22398986656362216
10.800999999999453,0.4762304224149074,0.22972600154139458
11.000999999999342,0.489389941196132,0.23769434461460842
11.200999999999231,0.5081616132437293,0.24408642788748766
11.40099999999912,0.522155304123316,0.24595859909531786
11.60099999999901,0.5326160863370942,0.25058271427140977
11.800999999998899,0.5435648630508101,0.25738253033144276
12.000999999998788,0.5497618836612498,0.2635107959439448
12.200999999998677,0.5686911636116004,0.27706100440990244
12.400999999998566,0.5856633219272863,0.2893178644034686
12.600999999998455,0.5994319925164682,0.2974792341306684
12.800999999998345,0.6008477815613938,0.31215716666449617
13.000999999998234,0.6036040979795901,0.3263554291468675
13.200999999998123,0.6155529567022746,0.33356837344347573
13.400999999998012,0.6248293519852736,0.3421562780338113
13.600999999997901,0.641961871128218,0.34721077590250565
13.80099999999779,0.651882649258114,0.353837002763349
14.00099999999768,0.6544784659441125,0.36973389947355895
14.200999999997569,0.6640030607938839,0.3817332028804792
14.400999999997458,0.6750056533268387,0.38736741204725234
14.600999999997347,0.6817272812138563,0.39408936656353943
14.800999999997236,0.6818633358802398,0.3999680920608756
15.000999999997125,0.6794188280330962,0.4063043096332662
15.200999999997014,0.6765314063210348,0.4140009165826443
15.400999999996904,0.6798350561206775,0.4256079464213706
15.600999999996793,0.6845431731668791,0.4366498769919162
15.800999999996682,0.6930838714366718,0.44621133224277765
16.000999999996573,0.7021725415267941,0.4601453204860274
16.200999999996817,0.7132126804025996,0.4717137362298674
16.40099999999706,0.7191283613579947,0.48644752221592474
16.600999999997306,0.7223129947517847,0.5004288635245315
16.80099999999755,0.7319642684286857,0.506865639492211
17.000999999997795,0.7461806057675404,0.5193592471340106
17.20099999999804,0.7548517366737098,0.5292551310858662
17.400999999998284,0.7655758105939894,0.5379667294234509
17.60099999999853,0.7749512559311799,0.547458349454471
17.800999999998773,0.7899523434779007,0.5538667004406165
18.000999999999017,0.7945979525220532,0.5573726867085451
18.20099999999926,0.804794224641968,0.5575436513055615
18.400999999999506,0.8231493931657308,0.5546225740461919
18.60099999999975,0.8322208894264296,0.5512078357763674
18.799999999999994,0.8330093125628989,0.5581277232822677
19.000000000000238,0.83798243805617,0.5681470830390296
19.200000000000482,0.8449149592363698,0.5812954761032026
19.400000000000727,0.8561266736631438,0.5936214942644332
19.60000000000097,0.8689464165053515,0.6074270381712155
19.800000000001216,0.8830321553252888,0.6206607268119907
20.00000000000146,0.8911946830833504,0.6314287300949092
