Time (s),X (m),Y (m)
0.001,0.001086048446240603,0.0007901558823345071
0.20000000000000015,0.0009718258787195658,8.931011147082336e-05
0.4000000000000003,0.0018036317793557327,-0.00011909171037269182
0.6000000000000004,0.0037230863796931944,0.000363540218469017
0.8000000000000006,0.007215074941602505,0.000798620922614529
1.0000000000000007,0.013267805901562056,0.005426686703197804
1.2009999999999785,0.018705624528096022,0.010040478069564035
1.4009999999999565,0.02639884197255636,0.014089271538235023
1.6009999999999345,0.03470416326632377,0.017017055003630842
1.8009999999999124,0.04063900031180709,0.02250977389275684
2.0009999999998906,0.04950541955594131,0.02765016916283196
2.2009999999998686,0.06014613938778703,0.03610579528618031
2.4009999999998466,0.06812296093690244,0.03450922957083268
2.6009999999998246,0.07718272770411634,0.036069348493154345
2.8009999999998025,0.08708590926568742,0.045093746711102375
3.0009999999997805,0.09660925243574507,0.048999605586167984
3.2009999999997585,0.10467472520273337,0.055956240082300227
3.4009999999997365,0.1119234173288968,0.05721939131124229
3.6009999999997144,0.11837507582638333,0.06457987911918335
3.8009999999996924,0.12584640216473805,0.07708883948595514
4.000999999999671,0.13234159616330735,0.08642870353523113
4.200999999999738,0.1390063377548647,0.09383477545441564
4.400999999999804,0.1436769324906889,0.10408234890441828
4.600999999999871,0.1509086204903643,0.11545004689604992
4.800999999999938,0.1569128056546404,0.12258056032397982
5.000000000000004,0.1619361194882795,0.12830432989097013
5.200000000000071,0.16697215942146734,0.1376923697567165
5.400000000000138,0.17302003708907035,0.1477085665869556
5.600000000000205,0.1783965542200196,0.15609793536544112
5.800000000000272,0.18285985262317872,0.1632468106550329
6.000000000000338,0.18680951514677788,0.17441570447201793
6.200000000000405,0.19303404587062167,0.17834165635343052
6.400000000000472,0.1978826369521344,0.19138015913096973
6.600000000000539,0.20425691166739132,0.20058376495895208
6.800000000000606,0.2086625053944688,0.21109824160987162
7.000000000000672,0.21187062706892676,0.2239282187189801
7.200000000000739,0.21473524763720792,0.23464834930401254
7.400000000000806,0.21840352195968157,0.24429552812763777
7.600000000000873,0.2238635949931144,0.2474172268546456
7.8000000000009395,0.22673638310669017,0.25826151491861926
8.000000000001005,0.2290889407653943,0.2676479607927519
8.200000000000895,0.23137725818384475,0.2764228192312843
8.400000000000784,0.23373132668293672,0.28325674684512225
8.600000000000673,0.23483702238212367,0.2931906259294259
8.800000000000562,0.235785034092178,0.30733737995682775
9.000000000000451,0.23449521422875025,0.32093013120290553
9.20000000000034,0.23123359532122795,0.3372564971078634
9.40000000000023,0.23146996362313035,0.35053804516681464
9.600000000000119,0.22612707983477057,0.36905702364535614
9.800000000000008,0.22109185651527472,0.38678273537293656
10.000999999999896,0.21976597781733567,0.3995563545554017
10.200999999999786,0.21581463622851124,0.4143842121373021
10.400999999999675,0.2122043035007646,0.43196294514662886
10.600999999999564,0.20380339293678373,0.45293041163670306
10.800999999999453,0.19338093238950416,0.4748710198657116
11.000999999999342,0.1886546774063351,0.49222431814973117
11.200999999999231,0.18133405064691782,0.5094237804937134
11.40099999999912,0.168873620992992,0.5269067493798696
11.60099999999901,0.1620734263169471,0.5445591364841968
11.800999999998899,0.15863963527048372,0.5550255679150563
12.000999999998788,0.15081958194610082,0.5708367580507694
12.200999999998677,0.1378817076789063,0.5866547851086508
12.400999999998566,0.12219730326408197,0.6039770689726154
12.600999999998455,0.10962204283821585,0.6196350321815263
12.800999999998345,0.09648845331940197,0.6348207718180068
13.000999999998234,0.07541278614299189,0.6466374036430851
13.200999999998123,0.06147482112858943,0.6597442803840821
13.400999999998012,0.04496870705898851,0.6658948306776875
13.600999999997901,0.028610131619181297,0.6738933930548986
13.80099999999779,0.01459237003480012,0.6800545228599982
14.00099999999768,0.006956192543834149,0.6866358871469003
14.200999999997569,-0.005011688924957053,0.6883719841866325
14.400999999997458,-0.018548395853746135,0.6888477243636693
14.600999999997347,-0.028095221372569916,0.6896056405523849
14.800999999997236,-0.04309517165053772,0.6915065974977853
15.000999999997125,-0.05473548093637175,0.6953909992981852
15.200999999997014,-0.06851945108198239,0.69509166353589
15.400999999996904,-0.08284320692127319,0.693425275569679
15.600999999996793,-0.1002548406108504,0.6927224282352095
15.800999999996682,-0.12004454481419628,0.6869744963437964
16.000999999996573,-0.13547782431408123,0.684057731092744
16.200999999996817,-0.15562237010878452,0.6750854399165954
16.40099999999706,-0.17518229805296492,0.6661294170256864
16.600999999997306,-0.19396274748855707,0.6574170600705572
16.80099999999755,-0.21463733023093318,0.6461638223215229
17.000999999997795,-0.23489887974606782,0.6346163112940327
17.20099999999804,-0.25298695100047486,0.6233762478687712
17.400999999998284,-0.2702545920734441,0.6136192171986006
17.60099999999853,-0.2855500187680147,0.6020693962496623
17.800999999998773,-0.3034453116225912,0.5884641140434469
18.000999999999017,-0.3175766830333821,0.5774889993604587
18.20099999999926,-0.32975153891467995,0.5636412186280139
18.400999999999506,-0.3407780206528406,0.5466919780370735
18.60099999999975,-0.35198978499980715,0.5341140357474841
18.799999999999994,-0.3568541527445118,0.5152185863675277
19.000000000000238,-0.364270566949413,0.5054141711396647
19.200000000000482,-0.37137462001135907,0.4943214109287131
19.400000000000727,-0.37765039569967596,0.4785849414902024
19.60000000000097,-0.3829092880982812,0.4633132678356135
19.800000000001216,-0.3900548406017933,0.44976547487182017
20.00000000000146,-0.3965809994958572,0.43542541067391816
