Time (s),X (m),Y (m)
0.001,0.001086048446240603,0.0007901558823345071
0.20000000000000015,0.0010114011927647812,0.00017750130062733677
0.4000000000000003,0.0017181138475943869,0.0004293962769113118
0.6000000000000004,0.0035491960013170312,0.0011936460678447177
0.8000000000000006,0.006151358995458951,0.0027947972760326034
1.0000000000000007,0.00914599686172809,0.003882942080889029
1.2009999999999785,0.012852996818197227,0.004578473161995662
1.4009999999999565,0.01721097293298898,0.005576906402724596
1.6009999999999345,0.02127994386323593,0.00568224889642316
1.8009999999999124,0.02509502150012321,0.007697948402663045
2.0009999999998906,0.029429314841384252,0.007654584634971766
2.2009999999998686,0.03333435257819335,0.009806223439442503
2.4009999999998466,0.03757307507895628,0.011154692989440025
2.6009999999998246,0.04265617925002547,0.012755900250038376
2.8009999999998025,0.04740049693245342,0.01483074320695313
3.0009999999997805,0.052050426280048,0.017496563175725975
3.2009999999997585,0.05670807767830998,0.020629873927600954
3.4009999999997365,0.06212862203642808,0.024713131097934538
3.6009999999997144,0.06743297117470896,0.02680504613159908
3.8009999999996924,0.07202587564638689,0.028835348861637994
4.000999999999671,0.07626557034130207,0.0340476936477328
4.200999999999738,0.08100141480284877,0.03782465851440831
4.400999999999804,0.0856009487067039,0.04207562223780471
4.600999999999871,0.09017497846743665,0.04654194897664538
4.800999999999938,0.09387006400994932,0.050950651582897265
5.000000000000004,0.0978684207173658,0.055884564063988416
5.200000000000071,0.10175503020452054,0.06046798975807139
5.400000000000138,0.10537774934417499,0.06456563838100879
5.600000000000205,0.10929227034280463,0.0703449660217803
5.800000000000272,0.11156715348606094,0.07768502152930287
6.000000000000338,0.11493310949293228,0.081929712923126
6.200000000000405,0.11790098386310599,0.08689906680657333
6.400000000000472,0.11957079765055012,0.09387740195127602
6.600000000000539,0.12239228447696213,0.09903738414761837
6.800000000000606,0.1236806805475217,0.10593305422393064
7.000000000000672,0.12600874640895274,0.11151309578134563
7.200000000000739,0.12768406631176193,0.11806322823765787
7.400000000000806,0.12907004347257198,0.12515086812722062
7.600000000000873,0.12856011693952185,0.1320611080478163
7.8000000000009395,0.12864191175717646,0.13957636062628523
8.000000000001005,0.12938913586155004,0.14493053316386323
8.200000000000895,0.12709076105232128,0.15228694361298856
8.400000000000784,0.1280746001314201,0.15760578563909997
8.600000000000673,0.12796376044884847,0.1630146539879499
8.800000000000562,0.1264609506394915,0.16918889384588454
9.000000000000451,0.12510071013886087,0.17502292814484474
9.20000000000034,0.12302908785989,0.18093429058915952
9.40000000000023,0.12215037271805049,0.18717797781291112
9.600000000000119,0.1203878233373808,0.19368765788163597
9.800000000000008,0.11825364815798066,0.19979330027185446
10.000999999999896,0.11446434904308661,0.20659026772708813
10.200999999999786,0.1111975640639796,0.2134632829366431
10.400999999999675,0.10674854305662415,0.2214430999915112
10.600999999999564,0.102142074163433,0.22876506313187292
10.800999999999453,0.09985887744336583,0.23536756778552007
11.000999999999342,0.09697616350317802,0.24208491699049076
11.200999999999231,0.09109459080646784,0.24954667755431134
11.40099999999912,0.08518114769558174,0.2567927817195025
11.60099999999901,0.08218288075471514,0.2641787824490095
11.800999999998899,0.07803455202335136,0.2707971219180617
12.000999999998788,0.07216672844996358,0.27679525964035395
12.200999999998677,0.06738300476018931,0.28279090680388463
12.400999999998566,0.06344871578004015,0.2873085632182574
12.600999999998455,0.05709190169712091,0.2916915203479296
12.800999999998345,0.052191939124624255,0.2968820432288931
13.000999999998234,0.04697130797745736,0.3015134092978146
13.200999999998123,0.04147986457413494,0.3055219892452476
13.400999999998012,0.03355070326374571,0.3084923445797692
13.600999999997901,0.02581154805943836,0.31171166345538753
13.80099999999779,0.018277096448726386,0.3140551622707545
14.00099999999768,0.012118556959016119,0.3165430800998157
14.200999999997569,0.005553783778182075,0.31866707553102974
14.400999999997458,-0.0014962727346423258,0.320344046235664
14.600999999997347,-0.0080736463758542,0.3215478605889519
14.800999999997236,-0.014546013755733696,0.32198490732446106
15.000999999997125,-0.022439217122635618,0.32076004396908236
15.200999999997014,-0.030414084281313692,0.3201377507044803
15.400999999996904,-0.03755621945465821,0.320972933714908
15.600999999996793,-0.0438733268892219,0.3202251374764234
15.800999999996682,-0.05104700978189589,0.3182630383759131
16.000999999996573,-0.05819689171010209,0.3156415464343676
16.200999999996817,-0.0653281005596951,0.31415792586980634
16.40099999999706,-0.07295582440285348,0.31141779518218937
16.600999999997306,-0.08074613775033673,0.30713645539492934
16.80099999999755,-0.08833080030399,0.30383872356151037
17.000999999997795,-0.09574349630727144,0.3007650518112945
17.20099999999804,-0.1036321365716815,0.2977980590594885
17.400999999998284,-0.11076311011662462,0.2938526354362963
17.60099999999853,-0.11787382906160589,0.2907190499193205
17.800999999998773,-0.12604541412892284,0.28569344291451865
18.000999999999017,-0.1346194483166214,0.2806947394110733
18.20099999999926,-0.14277165552360133,0.2753221282040765
18.400999999999506,-0.15080929273935642,0.26865367903231857
18.60099999999975,-0.15806826760734166,0.2628356845092861
18.799999999999994,-0.1638572909103135,0.25699147688009455
19.000000000000238,-0.1701822103874421,0.25033484011845814
19.200000000000482,-0.17521231332146703,0.24346313148498216
19.400000000000727,-0.17999419451556184,0.236281315455551
19.60000000000097,-0.1848575115282021,0.23052021549398213
19.800000000001216,-0.18778260801239047,0.22284011571621717
20.00000000000146,-0.1912075341691932,0.2156923330751299
