Time (s),X (m),Y (m)
0.001,-0.0006084463117070853,3.3283562657668553e-19
0.20000000000000015,0.0005677107256717634,-7.771858458947515e-05
0.4000000000000003,0.0014414896667569786,-0.0001135047695940388
0.6000000000000004,0.0025237849948793957,6.032629286947206e-05
0.8000000000000006,0.0032173788258949483,0.0006064212657987404
1.0000000000000007,0.005146559934246153,0.001313124396550948
1.2009999999999785,0.007216953526914775,0.0019987232106806357
1.4009999999999565,0.009519198212153631,0.002839536829081043
1.6009999999999345,0.012251838970521681,0.003703982279647215
1.8009999999999124,0.0136432735286517,0.004509125701176646
2.0009999999998906,0.01460053208378842,0.005450890055484471
2.2009999999998686,0.015633008800630822,0.00650520289230253
2.4009999999998466,0.016898681354309997,0.007563465026947189
2.6009999999998246,0.017938990641081547,0.00865438652282132
2.8009999999998025,0.01910662649393499,0.009871213959905919
3.0009999999997805,0.02038257362400215,0.011076756586370159
3.2009999999997585,0.021910526958503568,0.012387581417892497
3.4009999999997365,0.023205342338653893,0.013733167785442195
3.6009999999997144,0.024626452588612433,0.01510867197067926
3.8009999999996924,0.026075883932718893,0.016460928771024657
4.000999999999671,0.027502153527120165,0.018007244299890205
4.200999999999738,0.028869414138572465,0.01951701868495109
4.400999999999804,0.030620973956653707,0.021217976326966745
4.600999999999871,0.03232664210571986,0.022988067825104836
4.800999999999938,0.0340119255495677,0.024930072979420934
5.000000000000004,0.03607169209875692,0.026732682217919808
5.200000000000071,0.03804906925318201,0.02870154241236125
5.400000000000138,0.04089340316676089,0.031190073764207085
5.600000000000205,0.04373087139788556,0.033567851925461
5.800000000000272,0.0462463949923238,0.037119046830319954
6.000000000000338,0.05149000949493777,0.040498481888808835
6.200000000000405,0.054004310705772336,0.044777400755791404
6.400000000000472,0.05805008809666471,0.04893569975266103
6.600000000000539,0.06059874813655123,0.05222479744060019
6.800000000000606,0.06404817862392724,0.05712333962398472
7.000000000000672,0.06890733503038239,0.061755400955495296
7.200000000000739,0.07111641270987658,0.0653974570640445
7.400000000000806,0.07493207522860663,0.06949846082184793
7.600000000000873,0.0796024433135636,0.0748981087447432
7.8000000000009395,0.08241412498373113,0.0784501197537277
8.000000000001005,0.08569901627025565,0.08325465025633001
8.200000000000895,0.09089554635791339,0.08900127195998453
8.400000000000784,0.09590641351473983,0.09306468712310134
8.600000000000673,0.10119723538185972,0.09926609187090758
8.800000000000562,0.10351899949522314,0.10360613080301394
9.000000000000451,0.10700890608639949,0.10792525407558713
9.20000000000034,0.10969863372891879,0.11292845399742636
9.40000000000023,0.11241338519759034,0.11779705092720603
9.600000000000119,0.11768351954813709,0.12411442146611408
9.800000000000008,0.1201640192385543,0.12872645380180142
10.000999999999896,0.12471141889841847,0.13468035017641045
10.200999999999786,0.12969943298643802,0.14143292690538065
10.400999999999675,0.1351519125835857,0.14694499409489914
10.600999999999564,0.14160961688010137,0.15194571527495543
10.800999999999453,0.14265259786748732,0.15490874841986102
11.000999999999342,0.14638138510466595,0.16069583834846593
11.200999999999231,0.1478377555480943,0.16365259172661673
11.40099999999912,0.15242979772715134,0.16941944954419821
11.60099999999901,0.1549686378603545,0.17438585216454652
11.800999999998899,0.1606345900052959,0.1826758593445878
12.000999999998788,0.164607167468454,0.18714262666488668
12.200999999998677,0.16883647866326465,0.19461822551259372
12.400999999998566,0.17526013752414069,0.2025619262444857
12.600999999998455,0.17751917281789528,0.20753988758796682
12.800999999998345,0.18239734679299927,0.21309713463844462
13.000999999998234,0.18718433758565187,0.2205538928367862
13.200999999998123,0.19062660132906503,0.22605479854811336
13.400999999998012,0.1948903712759725,0.23206728242755514
13.600999999997901,0.19825801894411604,0.2371674120562395
13.80099999999779,0.20036334098278558,0.242119950749713
14.00099999999768,0.20316386400384,0.2460089737094509
14.200999999997569,0.20628234641258944,0.25222679697622863
14.400999999997458,0.211690669368588,0.25874380233619837
14.600999999997347,0.21524209121632054,0.2626824936613013
14.800999999997236,0.21766888207792298,0.2674371176700091
15.000999999997125,0.2202141183631225,0.2731239054102823
15.200999999997014,0.22516103041376984,0.28078489879824764
15.400999999996904,0.22953722781424005,0.2861174282144761
15.600999999996793,0.23044382115444595,0.28904912494770024
15.800999999996682,0.2338096844900977,0.29577587410684636
16.000999999996573,0.23822375795468412,0.3030754471128164
16.200999999996817,0.24255534279914706,0.30901062411396174
16.40099999999706,0.24411594503551953,0.3123096410673885
16.600999999997306,0.24744128215922132,0.31953583243625655
16.80099999999755,0.25151906038934,0.3259422572045794
17.000999999997795,0.2554746030324243,0.3335976504706258
17.20099999999804,0.25934781035684884,0.3401246693805668
17.400999999998284,0.2627828879817092,0.347054139328388
17.60099999999853,0.2646084462073392,0.35151132573160926
17.800999999998773,0.26774384529525386,0.3578996004691596
18.000999999999017,0.2715319780853932,0.36450376388837985
18.20099999999926,0.2745831696777932,0.3698320941850044
18.400999999999506,0.277879315267012,0.3757364948144938
18.60099999999975,0.28033146034890455,0.3813099715677905
18.799999999999994,0.2832110198131303,0.38742675398043064
19.000000000000238,0.28839572207147834,0.39531522174953887
19.200000000000482,0.2911705800529029,0.4013632775065723
19.400000000000727,0.29357667712425356,0.4057015634945719
19.60000000000097,0.2963078702693651,0.41131589023399207
19.800000000001216,0.29868711197200615,0.4153588532672016
20.00000000000146,0.30091800441948346,0.4209361762060107
