Time (s),X (m),Y (m)
0.001,0.00015606349793537,-0.0009963285817120471
0.20000000000000015,0.0013620375303644188,0.0007742109449160433
0.4000000000000003,0.005176487224590568,0.00604042526791838
0.6000000000000004,0.01578607792550401,0.015472378026427936
0.8000000000000006,0.026330789647832874,0.018231380048244702
1.0000000000000007,0.030967803166050873,-0.0017214424588177827
1.2009999999999785,0.035240076374112445,-0.013929649433197463
1.4009999999999565,0.04285219071459199,-0.016492470053738637
1.6009999999999345,0.061978012434872116,-0.006064584990999911
1.8009999999999124,0.08543171807166472,0.006425973285447006
2.0009999999998906,0.10503243788967367,0.01589440852112735
2.2009999999998686,0.12408447136093166,0.01861806573471434
2.4009999999998466,0.13880722865817272,0.015412825583265293
2.6009999999998246,0.15508014885725724,0.014871711035380033
2.8009999999998025,0.17528933216958084,0.02118442122391662
3.0009999999997805,0.18399955338726176,0.02391039280558628
3.2009999999997585,0.2024191897046342,0.021324859746047677
3.4009999999997365,0.22678599684739192,0.014197887216876676
3.6009999999997144,0.23782480206877246,0.0010479645266156315
3.8009999999996924,0.25182217888435277,-0.02154603956028053
4.000999999999671,0.2588692089759163,-0.04653917004168244
4.200999999999738,0.2622206321733401,-0.06876362523366647
4.400999999999804,0.2699973673750004,-0.08934500397438531
4.600999999999871,0.27722122451776193,-0.1173033225364991
4.800999999999938,0.2855302082573346,-0.14829595852910174
5.000000000000004,0.2798217809651852,-0.17592711628638616
5.200000000000071,0.27713064282754024,-0.20123963803516037
5.400000000000138,0.2761110513030694,-0.2266796160666121
5.600000000000205,0.27732037544639093,-0.2618762325433306
5.800000000000272,0.2770705458353674,-0.29217565092600295
6.000000000000338,0.27971475834493986,-0.3233953242282249
6.200000000000405,0.28356492329629285,-0.35529602613679845
6.400000000000472,0.28049471792959485,-0.386828408071915
6.600000000000539,0.27699088849177345,-0.4229860690667319
6.800000000000606,0.26862291760652957,-0.4615929634734377
7.000000000000672,0.25374805484020374,-0.4823500524526617
7.200000000000739,0.23252337121096833,-0.4949285828837452
7.400000000000806,0.20539498646431015,-0.5042647075382402
7.600000000000873,0.17251146390787137,-0.5032470989675656
7.8000000000009395,0.1397109042659085,-0.5063404936319578
8.000000000001005,0.11181175094709261,-0.5062633482243718
8.200000000000895,0.08414598972188797,-0.5128236107330798
8.400000000000784,0.05076483306412251,-0.5160217389713871
8.600000000000673,0.012463434753527009,-0.519835410741735
8.800000000000562,-0.03154031356624109,-0.5279087776785173
9.000000000000451,-0.08105979805134733,-0.5476373201739687
9.20000000000034,-0.12966805771420412,-0.5532919410793307
9.40000000000023,-0.15808649412711093,-0.5486974994495482
9.600000000000119,-0.1764482048145823,-0.5362479421984337
9.800000000000008,-0.18652461583931387,-0.5167143756006882
10.000999999999896,-0.20505366993708016,-0.4847273157945293
10.200999999999786,-0.20638470894569796,-0.4520925220422705
10.400999999999675,-0.20657359718922147,-0.41532595246013987
10.600999999999564,-0.20023758931514477,-0.3804608942981493
10.800999999999453,-0.20455575695003161,-0.348027980828237
11.000999999999342,-0.2153745187781393,-0.3168483342349645
11.200999999999231,-0.21837015255946882,-0.28680339650697745
11.40099999999912,-0.2244158810831153,-0.24608818727137088
11.60099999999901,-0.22299375180945044,-0.20763199049852077
11.800999999998899,-0.21260773465479044,-0.1673904035393472
12.000999999998788,-0.20163365841591593,-0.14690974278520924
12.200999999998677,-0.18740883810769635,-0.11121787167529568
12.400999999998566,-0.16213074148168632,-0.08135231131046435
12.600999999998455,-0.12942452486162784,-0.06461099441604728
12.800999999998345,-0.08964675571877811,-0.0574114661053179
13.000999999998234,-0.05283769069349026,-0.05218549148048034
13.200999999998123,-0.016610846687216695,-0.04420809370541071
13.400999999998012,0.018036058172785127,-0.04891663202011877
13.600999999997901,0.05723806433515265,-0.045253649331585065
13.80099999999779,0.09779646992513433,-0.043302307877496185
14.00099999999768,0.13488458329696593,-0.03380748105454696
14.200999999997569,0.17155614704787886,-0.02298117037692512
14.400999999997458,0.21231382236896418,-0.00772803967606569
14.600999999997347,0.2484249363170952,-0.0030469626633638403
14.800999999997236,0.2796223336033766,-0.0022222131239363844
15.000999999997125,0.3097983817767428,0.004478929797019801
15.200999999997014,0.3567167848182458,0.03359651348437886
15.400999999996904,0.40793821769635197,0.05968879953572199
15.600999999996793,0.45767123748333083,0.07742352357459133
15.800999999996682,0.5136116652299109,0.09234958052860937
16.000999999996573,0.5674502712297307,0.09974669522847536
16.200999999996817,0.5995198933017768,0.09523569685420263
16.40099999999706,0.6247227261311751,0.08407383699458124
16.600999999997306,0.6443094105108337,0.06916688005608275
16.80099999999755,0.6677870763177594,0.049334156640868536
17.000999999997795,0.681217905528267,0.027401888433684934
17.20099999999804,0.6857374957611584,0.005069453033834509
17.400999999998284,0.6993894760449763,-0.020036370390200602
17.60099999999853,0.7154017657143332,-0.0482806843237902
17.800999999998773,0.7393809825853984,-0.07292322658750304
18.000999999999017,0.7685721251568465,-0.09988223348560653
18.20099999999926,0.7926301511075833,-0.12868912844323652
18.400999999999506,0.8083391903776749,-0.15991856338144117
18.60099999999975,0.8160401309276584,-0.19347224336989605
18.799999999999994,0.8288794146271536,-0.22518968208834378
19.000000000000238,0.8531885255754813,-0.2536807353678119
19.200000000000482,0.8767549064658456,-0.28309872064718294
19.400000000000727,0.8961538634451344,-0.3135945780846567
19.60000000000097,0.9126832696410292,-0.34322599262620007
19.800000000001216,0.9380065799397512,-0.3756098974351244
20.00000000000146,0.9431807429495254,-0.41286573876123694
