Time (s),X (m),Y (m)
0.001,-0.00016860096042250976,-0.0008449350584490231
0.20000000000000015,0.001270469733657058,0.0004071207263276539
0.4000000000000003,0.002970227827648333,0.0005472429910349344
0.6000000000000004,0.009988235608599114,0.004144042734510226
0.8000000000000006,0.019526115187595117,0.005316740228516595
1.0000000000000007,0.02961652893831941,0.009984180051444549
1.2009999999999785,0.038456041220452354,0.013708163730236814
1.4009999999999565,0.04234906655559252,0.017681191535254704
1.6009999999999345,0.04881603531412122,0.02118267376488451
1.8009999999999124,0.060985999363259887,0.01993845978234606
2.0009999999998906,0.07291338416922408,0.02538646252940603
2.2009999999998686,0.07817239240770105,0.028787154073255078
2.4009999999998466,0.08692819797348915,0.03239236196941808
2.6009999999998246,0.09791731042305213,0.03565821005996441
2.8009999999998025,0.10798335637399241,0.04051076946595364
3.0009999999997805,0.12498160439737278,0.05072325484508992
3.2009999999997585,0.14217832257674115,0.05605055289457877
3.4009999999997365,0.15485392282723204,0.06525877497664032
3.6009999999997144,0.16795523039954113,0.06999630713179703
3.8009999999996924,0.18124716701894225,0.0804430017200918
4.000999999999671,0.19053934905165887,0.0850526872270759
4.200999999999738,0.2008545495030845,0.10341255006027521
4.400999999999804,0.21458367949903714,0.11478522613491243
4.600999999999871,0.2281713628321499,0.11953256963677703
4.800999999999938,0.2421339653470399,0.13615417580098305
5.000000000000004,0.2557263580626613,0.14403200100799532
5.200000000000071,0.2677939883499427,0.15163907233276855
5.400000000000138,0.2762000256489225,0.15740996512975758
5.600000000000205,0.28721103339900383,0.17381525126583094
5.800000000000272,0.2993816606164644,0.18777948534871722
6.000000000000338,0.31255642623048335,0.19635412943765201
6.200000000000405,0.32209296201493376,0.19758258442478546
6.400000000000472,0.32905567809560105,0.2091620653168534
6.600000000000539,0.33805385141386324,0.2255369956981265
6.800000000000606,0.3507273489956984,0.2381272310504985
7.000000000000672,0.363656894272812,0.24601770781836974
7.200000000000739,0.3766458397730386,0.2638323880952678
7.400000000000806,0.39077783758380924,0.2862252858388177
7.600000000000873,0.40781036943691557,0.30283948354628043
7.8000000000009395,0.42479319836698454,0.31813371927712014
8.000000000001005,0.4388304553080113,0.3319260033588317
8.200000000000895,0.45590455484704956,0.3407044762033338
8.400000000000784,0.4750268008684536,0.35043416747545486
8.600000000000673,0.4917473306005504,0.36068402916541575
8.800000000000562,0.5067502511511585,0.3721998793232977
9.000000000000451,0.5219628643235812,0.381016999816502
9.20000000000034,0.5382286335660897,0.39319405516288125
9.40000000000023,0.5513235972475884,0.41635949051004106
9.600000000000119,0.5697503545829403,0.43311274157010815
9.800000000000008,0.5879894662250061,0.4382591902261561
10.000999999999896,0.605474147728219,0.4530468732297761
10.200999999999786,0.6196583913964405,0.4707189244473293
10.400999999999675,0.6339470403699298,0.4988524903653282
10.600999999999564,0.650817550540955,0.5239934839155195
10.800999999999453,0.6654725074506171,0.5402455311482124
11.000999999999342,0.6760451723414014,0.5620264674577649
11.200999999999231,0.6829164533207986,0.5784737882467994
11.40099999999912,0.6929210066079196,0.5979956316333799
11.60099999999901,0.7019957124076704,0.6176703758965753
11.800999999998899,0.708616776961006,0.6345391138072108
12.000999999998788,0.7199124117455385,0.6573556645924021
12.200999999998677,0.7314113059539177,0.6843998751090848
12.400999999998566,0.7398918280630669,0.7041132189054181
12.600999999998455,0.7488363613719308,0.7202197049818158
12.800999999998345,0.760714660247609,0.7388171181398322
13.000999999998234,0.7729090577651598,0.7533447065761661
13.200999999998123,0.7869539853965994,0.7719501709096634
13.400999999998012,0.801088882548166,0.7904164972191934
13.600999999997901,0.810738126821978,0.8108643706236575
13.80099999999779,0.8198341013509858,0.8294369475160229
14.00099999999768,0.8281458426023374,0.849896772397709
14.200999999997569,0.8320293157910452,0.8721811177794112
14.400999999997458,0.8359382497991926,0.8982352317112584
14.600999999997347,0.8366232380456292,0.9174713423417318
14.800999999997236,0.841234832090025,0.9420021503336597
15.000999999997125,0.8389383118614272,0.9682134433040448
15.200999999997014,0.8328012345931534,0.99552032235565
15.400999999996904,0.831252671975246,1.0233307152635203
15.600999999996793,0.8323858458170756,1.0429371733832098
15.800999999996682,0.8306015598909883,1.0691889755167712
16.000999999996573,0.828619391604834,1.0957426511145616
16.200999999996817,0.8213821746827035,1.126203896220281
16.40099999999706,0.7999201011169899,1.1628353666427746
16.600999999997306,0.7800989066583319,1.1948625100419104
16.80099999999755,0.7643824680971137,1.222728313230414
17.000999999997795,0.7562928721637979,1.2507340569986758
17.20099999999804,0.7441706227869357,1.2800187273005552
17.400999999998284,0.7282180189209809,1.3064837800935858
17.60099999999853,0.7106068456956512,1.328527777849965
17.800999999998773,0.6839213098596385,1.3461934854551698
18.000999999999017,0.6483173891842421,1.3626401129829666
18.20099999999926,0.6220610883864339,1.383366525592063
18.400999999999506,0.6085619232597597,1.4055156950863428
18.60099999999975,0.5919140444390267,1.4287878078039635
18.799999999999994,0.5630697776344402,1.4472618651589855
19.000000000000238,0.5298520966196434,1.4611771768095305
19.200000000000482,0.5047333252682205,1.478660529694758
19.400000000000727,0.47827491935331756,1.4945203796118038
19.60000000000097,0.4400075517033369,1.5079864728880124
19.800000000001216,0.41691205051300123,1.5191888103629885
20.00000000000146,0.39991417572054455,1.5290260583966926
