Time (s),X (m),Y (m)
0.001,0.0010146588340248276,0.000844935058449024
0.20000000000000015,0.0009128897282924397,7.565708936189627e-05
0.4000000000000003,0.0014452447472490476,0.00024057527773363772
0.6000000000000004,0.002283443230816749,0.0005672136230975816
0.8000000000000006,0.0033177010671657887,0.0009375142160000376
1.0000000000000007,0.004535926905123526,0.0012027269185007892
1.2009999999999785,0.006109000137109208,0.0018795868934938233
1.4009999999999565,0.007349875636145256,0.0024033777912673064
1.6009999999999345,0.00860694430093693,0.00297509482914773
1.8009999999999124,0.009974456039210603,0.0034895941674676382
2.0009999999998906,0.011330971407540746,0.003930143396990507
2.2009999999998686,0.012917203848058795,0.004886587674142141
2.4009999999998466,0.014478268392922456,0.005458015415693329
2.6009999999998246,0.01614777959681051,0.006294761076731127
2.8009999999998025,0.017795675250234812,0.007068828802856382
3.0009999999997805,0.019527822032041616,0.008015384951254825
3.2009999999997585,0.02136072254782305,0.009061683891563557
3.4009999999997365,0.023112785285535,0.009976730404797492
3.6009999999997144,0.02500266505558107,0.011105339765943892
3.8009999999996924,0.0268876637754709,0.012088862382644179
4.000999999999671,0.028795634648291997,0.01329650292404749
4.200999999999738,0.030747182316656605,0.014447013008495269
4.400999999999804,0.032600920216084316,0.01568509007645277
4.600999999999871,0.034470826693784776,0.016884258942858103
4.800999999999938,0.03633989576426536,0.01817179434231429
5.000000000000004,0.03809369206183798,0.01944546421901389
5.200000000000071,0.039798231644034454,0.02076494717126094
5.400000000000138,0.041454392896720774,0.022095958070058434
5.600000000000205,0.04307683782633237,0.02343840707790452
5.800000000000272,0.04466452421016589,0.024790190318498977
6.000000000000338,0.046187507637883846,0.026139293817955742
6.200000000000405,0.04763889960266445,0.027484626185298556
6.400000000000472,0.04901713399964753,0.028826690751698407
6.600000000000539,0.050286254184875055,0.03016777729054197
6.800000000000606,0.05138828018800264,0.031508114170589206
7.000000000000672,0.052326242756971626,0.03284707770575471
7.200000000000739,0.053108920848071346,0.0341842890710165
7.400000000000806,0.053739802363132444,0.035519430862759147
7.600000000000873,0.05422413617360521,0.036852095994250274
7.8000000000009395,0.05456814653254382,0.03818231985541646
8.000000000001005,0.05477781538923339,0.039510890745831445
8.200000000000895,0.054860398581082034,0.04083811488059905
8.400000000000784,0.05482429137922808,0.042164215319572027
8.600000000000673,0.05467447783606069,0.043489200644343265
8.800000000000562,0.05441540934456517,0.04481310212208574
9.000000000000451,0.054051276429204105,0.04613617555732006
9.20000000000034,0.0535932491856978,0.047460192059896524
9.40000000000023,0.05304883407925571,0.04878554625490908
9.600000000000119,0.05244528781076333,0.05011610428963128
9.800000000000008,0.051808314688911505,0.05145535314554561
10.000999999999896,0.051128757231268716,0.052831848222586325
10.200999999999786,0.05043084649956717,0.054187791449253855
10.400999999999675,0.049702829573917064,0.055551117000280564
10.600999999999564,0.048944720127742335,0.05692207266700632
10.800999999999453,0.04815672493924327,0.05830242590988595
11.000999999999342,0.04735107367172772,0.05969531950782738
11.200999999999231,0.046533118279474664,0.061101715192689844
11.40099999999912,0.0457029854348023,0.0625219849947758
11.60099999999901,0.044860264911644514,0.06395914616370992
11.800999999998899,0.0440058471170678,0.06541502884832495
12.000999999998788,0.043146319123689006,0.06688731592562085
12.200999999998677,0.042283645438651325,0.0683727311572528
12.400999999998566,0.041415706026047654,0.06987311135552714
12.600999999998455,0.04054318766088198,0.07138669879272173
12.800999999998345,0.039665656009719094,0.07291147483830593
13.000999999998234,0.03878228406377569,0.0744493384038367
13.200999999998123,0.037891957798430596,0.07600173152838166
13.400999999998012,0.0369939173096281,0.07756930037290566
13.600999999997901,0.036088443377350204,0.07915301776834607
13.80099999999779,0.03517425332302736,0.08075218830165064
14.00099999999768,0.034251878336257036,0.08236651677873669
14.200999999997569,0.03331812828620534,0.08399712970677252
14.400999999997458,0.03237609753620208,0.08567538125162985
14.600999999997347,0.031429113961942,0.08738554648068173
14.800999999997236,0.030538895918971843,0.08922524163540907
15.000999999997125,0.029533331523993497,0.09100859048876896
15.200999999997014,0.028641709856863342,0.09279776830652967
15.400999999996904,0.02765616747083899,0.09470082099359536
15.600999999996793,0.02668901716663437,0.09667496597655584
15.800999999996682,0.02556772688944883,0.09876795699290669
16.000999999996573,0.02442389374020234,0.10091940358453648
16.200999999996817,0.023348565260076577,0.10300793470422116
16.40099999999706,0.022348444102949703,0.10505511565159971
16.600999999997306,0.021322967174265444,0.10720478892179448
16.80099999999755,0.02034991220514087,0.1092775451512228
17.000999999997795,0.01929346021251326,0.11150608084023286
17.20099999999804,0.018152016549054392,0.11375263346564968
17.400999999998284,0.016991859797208027,0.1160789685936272
17.60099999999853,0.015787827128860784,0.11835590476649278
17.800999999998773,0.014444654298109216,0.12078309877477547
18.000999999999017,0.013247106104385384,0.12302710378998429
18.20099999999926,0.011990023933958559,0.1253567212834982
18.400999999999506,0.010487231888579482,0.1277926391860954
18.60099999999975,0.00896147839654092,0.13023673095380017
18.799999999999994,0.007365369686058769,0.13268731874399475
19.000000000000238,0.0059296427466501885,0.1349481464138217
19.200000000000482,0.004382868795889974,0.13735257329732442
19.400000000000727,0.0030755064746486676,0.13964804209138504
19.60000000000097,0.0016855256438846069,0.14201685026774435
19.800000000001216,0.00032596375391780164,0.1443050475922536
20.00000000000146,-0.001182299982042456,0.1465963405727679
