Time (s),X (m),Y (m)
0.001,0.0009387665610552813,-0.0008932837685830058
0.20000000000000015,0.0005780182325319412,0.0006680695601272543
0.4000000000000003,0.003965757354590684,0.001863781061925965
0.6000000000000004,0.006230784789021083,0.006775715501343801
0.8000000000000006,0.014994840960174331,0.00576822713771471
1.0000000000000007,0.023977471351395437,0.006755257807212365
1.2009999999999785,0.030519431586473446,0.001558444533292406
1.4009999999999565,0.036056654320698885,-0.015268973098664306
1.6009999999999345,0.040191183817290164,-0.040024922558954304
1.8009999999999124,0.04515854885106879,-0.0513681133125377
2.0009999999998906,0.055203213336268264,-0.06597919572561818
2.2009999999998686,0.06012668042476194,-0.09109540809300129
2.4009999999998466,0.06976423039392649,-0.1061805622675957
2.6009999999998246,0.07918540385912418,-0.11878495953367621
2.8009999999998025,0.09180517716135789,-0.13606725746291115
3.0009999999997805,0.10255735824733712,-0.16624784295419426
3.2009999999997585,0.11135355066220448,-0.20221025365158338
3.4009999999997365,0.11971699806697228,-0.2215594837217563
3.6009999999997144,0.13349092063174553,-0.23758340515510823
3.8009999999996924,0.1467392626764353,-0.24478438967300978
4.000999999999671,0.1610187769049074,-0.250977004146736
4.200999999999738,0.18199703400822775,-0.25896245617000285
4.400999999999804,0.20175350519169602,-0.28651416002965024
4.600999999999871,0.22172583806848672,-0.30943355589967886
4.800999999999938,0.2413789522685163,-0.34177578803594566
5.000000000000004,0.26342581626269546,-0.36985520257160215
5.200000000000071,0.2889927582845171,-0.38182056466278685
5.400000000000138,0.31534861978021306,-0.40249421764101284
5.600000000000205,0.3393518923903316,-0.42255589754483414
5.800000000000272,0.36180658808802874,-0.4381517981423825
6.000000000000338,0.3831173339861196,-0.4486037477223791
6.200000000000405,0.4031113048632943,-0.45759919954449824
6.400000000000472,0.42442432371344274,-0.46976961306828885
6.600000000000539,0.4425999003081938,-0.479044315710112
6.800000000000606,0.45860643287658004,-0.48947586316522923
7.000000000000672,0.4764745947050549,-0.5093199976874578
7.200000000000739,0.49663192298849645,-0.5224943144683071
7.400000000000806,0.5173633797144913,-0.5400158480175692
7.600000000000873,0.5376384626470309,-0.566950230829548
7.8000000000009395,0.5548419390109587,-0.5917631909123666
8.000000000001005,0.5707313822565979,-0.611673234959759
8.200000000000895,0.5832241383323219,-0.6377308781039773
8.400000000000784,0.596167651433349,-0.6593004173198952
8.600000000000673,0.6132215044961767,-0.686651097611388
8.800000000000562,0.6341313060702084,-0.7140559208380649
9.000000000000451,0.6546916607280749,-0.7311621887259918
9.20000000000034,0.6735084106495779,-0.7489123711447422
9.40000000000023,0.6896010674168188,-0.774665666777334
9.600000000000119,0.7096869545656141,-0.7842015990793425
9.800000000000008,0.7284820897226914,-0.7916262931510953
10.000999999999896,0.7459439434304888,-0.8108005445028482
10.200999999999786,0.7671837727463423,-0.827352214360966
10.400999999999675,0.7927351325831568,-0.8334137075802202
10.600999999999564,0.8185532281783737,-0.8433638821939853
10.800999999999453,0.8484616503225393,-0.8522601915201159
11.000999999999342,0.8716231776469247,-0.8567922976472078
11.200999999999231,0.886942171280168,-0.8853510129411147
11.40099999999912,0.9008003834411602,-0.9068635522756026
11.60099999999901,0.9166712489550535,-0.9228464975232725
11.800999999998899,0.9353076811909672,-0.9404628736623345
12.000999999998788,0.9576886226458915,-0.9506282410774551
12.200999999998677,0.9851235764262714,-0.9605021717012284
12.400999999998566,1.012638271684066,-0.967773874005701
12.600999999998455,1.041157501371106,-0.972218881241811
12.800999999998345,1.0697430774118921,-0.9703324334916372
13.000999999998234,1.0980776231929992,-0.9821273270242056
13.200999999998123,1.1267598775807737,-0.9978323702459314
13.400999999998012,1.1534940476089375,-1.015271595427677
13.600999999997901,1.1821019732808768,-1.037881678556087
13.80099999999779,1.210291626781155,-1.0602002890737474
14.00099999999768,1.2360941378124968,-1.0738206312437792
14.200999999997569,1.2599852879494768,-1.0844063440249014
14.400999999997458,1.286865420964651,-1.093070603060965
14.600999999997347,1.3087774472494054,-1.1100795979694054
14.800999999997236,1.3267035966559775,-1.1327977585368458
15.000999999997125,1.3455482234072027,-1.1544265913118803
15.200999999997014,1.365425309450472,-1.1688915169212575
15.400999999996904,1.385687740593496,-1.185628443060628
15.600999999996793,1.4066287016441057,-1.2131223169697598
15.800999999996682,1.4263500667687181,-1.2517755628950535
16.000999999996573,1.444041355084297,-1.2858862014198134
16.200999999996817,1.4641717376356675,-1.3135266981608829
16.40099999999706,1.4815466408054545,-1.3450944006923793
16.600999999997306,1.4972046899455649,-1.3798602596601723
16.80099999999755,1.5119871479998879,-1.4151060475798245
17.000999999997795,1.5285264640635925,-1.45055002186532
17.20099999999804,1.5442572286936467,-1.48675839162593
17.400999999998284,1.5605891950059085,-1.518846297909142
17.60099999999853,1.581423425075119,-1.5316537679481839
17.800999999998773,1.6057731965675728,-1.5428098060577844
18.000999999999017,1.6355393638278466,-1.561191653978223
18.20099999999926,1.6676998998485375,-1.5933412486503218
18.400999999999506,1.694437037214688,-1.6343092415752105
18.60099999999975,1.7206523419610311,-1.6621821506471464
18.799999999999994,1.7473810280353708,-1.681005042837096
19.000000000000238,1.7722572058793191,-1.7044766026952727
19.200000000000482,1.797251573412502,-1.7283731101040805
19.400000000000727,1.823113379930973,-1.7429351536914592
19.60000000000097,1.8494666543198215,-1.7510256157356647
19.800000000001216,1.8810995195687037,-1.762513324589908
20.00000000000146,1.9185117067709472,-1.7924071294097688
