Time (s),X (m),Y (m)
0.001,-0.0004702548317818469,0.0005157376242541224
0.20000000000000015,0.0008999544377149231,-0.00019287511928192354
0.4000000000000003,0.001385847538936976,-0.0002735594849375573
0.6000000000000004,0.0021735112720147947,-0.0007051570083638219
0.8000000000000006,0.0031607919792350204,-0.001377267780934785
1.0000000000000007,0.0044639864663209025,-0.002250486566440463
1.2009999999999785,0.005735850858534096,-0.0033576646115171804
1.4009999999999565,0.006824066027230996,-0.004191872496883737
1.6009999999999345,0.008462280153634288,-0.005127606003923727
1.8009999999999124,0.01010598141546209,-0.006171562000733209
2.0009999999998906,0.012018586076709407,-0.007200900865048372
2.2009999999998686,0.013943065608884241,-0.008343703249711114
2.4009999999998466,0.015953863006044625,-0.009410514210614014
2.6009999999998246,0.018070797819220937,-0.01048570778397666
2.8009999999998025,0.020308242218510485,-0.011686582237140376
3.0009999999997805,0.022892306044497927,-0.013024781461412165
3.2009999999997585,0.02534195395647507,-0.014279836500519293
3.4009999999997365,0.027821476528655298,-0.015595097263435807
3.6009999999997144,0.030111557283573117,-0.016748483155159952
3.8009999999996924,0.03242119872045585,-0.017851224176230647
4.000999999999671,0.03485767324285437,-0.018954593111044398
4.200999999999738,0.03746386105357288,-0.02009999374769436
4.400999999999804,0.04011738090300027,-0.02116370252591862
4.600999999999871,0.042355231178978804,-0.022010713732685587
4.800999999999938,0.044684153462189576,-0.02285464903670987
5.000000000000004,0.046900096352542386,-0.023564600729334913
5.200000000000071,0.04960795973791593,-0.02429496555027928
5.400000000000138,0.05224892308288279,-0.024939729848829077
5.600000000000205,0.05477017055070822,-0.02542795515318322
5.800000000000272,0.05733334880480584,-0.025789421565691636
6.000000000000338,0.059896738764838045,-0.025929384305752517
6.200000000000405,0.06244502437391582,-0.02589409834110739
6.400000000000472,0.06502814867465405,-0.02564489475797926
6.600000000000539,0.06723138644989815,-0.025236159198550448
6.800000000000606,0.06923584756402514,-0.024588019427490584
7.000000000000672,0.07155422468204937,-0.02387428187021967
7.200000000000739,0.07385796788312528,-0.02298330252517224
7.400000000000806,0.07635813519431493,-0.022016839623515503
7.600000000000873,0.07872399475322271,-0.020832284323400587
7.8000000000009395,0.08091874296569881,-0.01958372529990751
8.000000000001005,0.0834030631285148,-0.01813690026122555
8.200000000000895,0.08591355817307783,-0.016663644646546558
8.400000000000784,0.08797991617308194,-0.01498181298238791
8.600000000000673,0.09000670137838157,-0.013269796662107917
8.800000000000562,0.0920716335954919,-0.011390663577422204
9.000000000000451,0.09411924374913899,-0.009461586593070516
9.20000000000034,0.09601836213440157,-0.007404130003205374
9.40000000000023,0.09809921151666456,-0.005354139321391671
9.600000000000119,0.099851102775388,-0.0030776285323944794
9.800000000000008,0.10142446924501024,-0.0007533433055094484
10.000999999999896,0.10313054268352868,0.0019329148968445504
10.200999999999786,0.10499816461989255,0.004373639434475806
10.400999999999675,0.10684342871144224,0.007207485292618097
10.600999999999564,0.10843788921940581,0.010090084624247642
10.800999999999453,0.11020067126493056,0.01325243415619902
11.000999999999342,0.11186341083154785,0.01636848750402947
11.200999999999231,0.11326803853237664,0.019726771800161014
11.40099999999912,0.11496831321958913,0.02340104577472759
11.60099999999901,0.11660371343746817,0.026929707312598018
11.800999999998899,0.11827044989853422,0.030350688805926763
12.000999999998788,0.12005822230862107,0.03418895456249882
12.200999999998677,0.12156287228159786,0.03817439442668119
12.400999999998566,0.12298132943693997,0.0425481570307194
12.600999999998455,0.1245462850464467,0.04708781471194787
12.800999999998345,0.12606008020397935,0.052057841502123316
13.000999999998234,0.12733464962052324,0.05710479655984518
13.200999999998123,0.12904253009836492,0.06298766813173667
13.400999999998012,0.13063204104466983,0.06953939482502108
13.600999999997901,0.13237555926748304,0.07545298986145181
13.80099999999779,0.1340320562606706,0.08161196785449892
14.00099999999768,0.13541653677908888,0.08792209011118997
14.200999999997569,0.13718477777573818,0.09518325686072654
14.400999999997458,0.1389977059545271,0.10130826837102656
14.600999999997347,0.14055568477764757,0.10803629140145804
14.800999999997236,0.14196147798843275,0.1155771149840698
15.000999999997125,0.1435903674463513,0.12165942307678357
15.200999999997014,0.1446530185913291,0.12964540902876476
15.400999999996904,0.1455794545269649,0.13678637310130462
15.600999999996793,0.14689188571160652,0.14439008116610308
15.800999999996682,0.1482664180370417,0.15127874537985003
16.000999999996573,0.14947779234789657,0.15880715080113697
16.200999999996817,0.15059749674073844,0.16556790812639796
16.40099999999706,0.15248740033436098,0.17412180709965605
16.600999999997306,0.15355910193490394,0.18135145369103872
16.80099999999755,0.1546524214712847,0.1889861391981708
17.000999999997795,0.15594030117627253,0.196326725385838
17.20099999999804,0.15699243486476402,0.2045742331340286
17.400999999998284,0.15784312740409695,0.2124719007066289
17.60099999999853,0.15848870336360818,0.22066405793039937
17.800999999998773,0.15949992046904676,0.22940395477534595
18.000999999999017,0.1600748341835991,0.23750205706828892
18.20099999999926,0.16063559281387965,0.24599254856276082
18.400999999999506,0.1605548034489806,0.25367922097532686
18.60099999999975,0.16104929348208347,0.26115957308927945
18.799999999999994,0.16114951402148683,0.27006148882639747
19.000000000000238,0.16114243463730848,0.27788740664739764
19.200000000000482,0.16065633605574303,0.28627624877995794
19.400000000000727,0.16016133324307244,0.29462684691636215
19.60000000000097,0.159749085450881,0.3021412915477681
19.800000000001216,0.15921853905594083,0.3095395867410259
20.00000000000146,0.15812837355536105,0.31778365320938906
