Time (s),X (m),Y (m)
0.001,0.0014193575185132074,-0.0002669654388657889
0.20000000000000015,0.0002990738113193696,8.060011360317649e-05
0.4000000000000003,0.005620437977552263,-0.001766788446874005
0.6000000000000004,0.013942365211238594,-0.006077653640188814
0.8000000000000006,0.018276013831588566,-0.009551996141161204
1.0000000000000007,0.02369999468296416,-0.008959850375692073
1.2009999999999785,0.037706458238293945,-0.013703766279257274
1.4009999999999565,0.06059272059149547,-0.025190521798681857
1.6009999999999345,0.09242438284929635,-0.04470535956686797
1.8009999999999124,0.11303098288933464,-0.059044792661476615
2.0009999999998906,0.131864600823647,-0.0814929713103157
2.2009999999998686,0.14363253302532403,-0.10022034105950761
2.4009999999998466,0.1432609895928172,-0.11220616398577614
2.6009999999998246,0.13701666764729595,-0.12897741400571752
2.8009999999998025,0.12829556092424904,-0.15221615501484376
3.0009999999997805,0.11396754342087441,-0.1776831821958046
3.2009999999997585,0.10624854270866405,-0.19278873608742136
3.4009999999997365,0.09543451881514166,-0.21553677773532243
3.6009999999997144,0.08816652269971513,-0.22753416301614265
3.8009999999996924,0.09004945715178073,-0.22740955495464066
4.000999999999671,0.0839425017221634,-0.25065211087137246
4.200999999999738,0.07119803428704376,-0.27598723442626233
4.400999999999804,0.057186764452388954,-0.3018988078431086
4.600999999999871,0.04819293895258357,-0.32835684529671966
4.800999999999938,0.03804206912557357,-0.3507288314857463
5.000000000000004,0.026047155815264733,-0.3786383718131301
5.200000000000071,0.015113543087868884,-0.407037582802458
5.400000000000138,0.0034991502940879037,-0.43429345009919407
5.600000000000205,-0.0029218425482870902,-0.45753541787610774
5.800000000000272,-0.017128201445586435,-0.4838092772343236
6.000000000000338,-0.03475067254475626,-0.5121080063473881
6.200000000000405,-0.051713667149548496,-0.5381599155169978
6.400000000000472,-0.06582264806754701,-0.5599696957978891
6.600000000000539,-0.07644113072459126,-0.583808885209487
6.800000000000606,-0.09127199800765072,-0.6078665772271035
7.000000000000672,-0.10327198686576632,-0.636144125382578
7.200000000000739,-0.11737913019794431,-0.6685784650704765
7.400000000000806,-0.1330005534510606,-0.7019498981201193
7.600000000000873,-0.15673084945275678,-0.7466743128830298
7.8000000000009395,-0.1799229328892898,-0.7900040353375967
8.000000000001005,-0.1968132708739553,-0.8301424317864912
8.200000000000895,-0.21515390996765033,-0.866276835822893
8.400000000000784,-0.2294769025544255,-0.9000530501203835
8.600000000000673,-0.2474483586697617,-0.9321393509124792
8.800000000000562,-0.2703615481126525,-0.9630537291983812
9.000000000000451,-0.2923251909631971,-0.9800474815173836
9.20000000000034,-0.3102822460089148,-0.9853833287062784
9.40000000000023,-0.3264503856629474,-0.9843919491498464
9.600000000000119,-0.3402597412396836,-0.9834459136240178
9.800000000000008,-0.3602500857158937,-0.9774402378035447
10.000999999999896,-0.37860126308910813,-0.9699211454416348
10.200999999999786,-0.3937643793511389,-0.9648184306353732
10.400999999999675,-0.42900976531729035,-0.9603445903828507
10.600999999999564,-0.4564027795971097,-0.9572048153211934
10.800999999999453,-0.4793765307895581,-0.9522573811216603
11.000999999999342,-0.5067453461966129,-0.944698471558467
11.200999999999231,-0.547590235602134,-0.9241220403377131
11.40099999999912,-0.5927736594434315,-0.8998259331554659
11.60099999999901,-0.6382110315635396,-0.8654072427440933
11.800999999998899,-0.6806318849215681,-0.8240137733543146
12.000999999998788,-0.7099628120785442,-0.7956716345296541
12.200999999998677,-0.7343245561817928,-0.7678317682920222
12.400999999998566,-0.7553240582572487,-0.7473803005853802
12.600999999998455,-0.7665541069993861,-0.7302174200298445
12.800999999998345,-0.7781607685641906,-0.7032145956436765
13.000999999998234,-0.78799268823447,-0.6771767715336627
13.200999999998123,-0.7948783796614564,-0.6529747631190853
13.400999999998012,-0.7968200610830474,-0.618985183362176
13.600999999997901,-0.789968131269537,-0.5901727860031124
13.80099999999779,-0.7830177152114127,-0.5602345734445318
14.00099999999768,-0.7757268669074153,-0.5317800701004606
14.200999999997569,-0.7621752337688086,-0.49033038664508305
14.400999999997458,-0.7408049549420425,-0.4495914861322592
14.600999999997347,-0.7238870913660735,-0.4086752264927984
14.800999999997236,-0.7081332573784559,-0.3716606226674005
15.000999999997125,-0.6929966279226328,-0.3352878869923641
15.200999999997014,-0.6778412717035996,-0.29167369598518234
15.400999999996904,-0.6532626238756702,-0.24449300294141485
15.600999999996793,-0.6326974019861663,-0.1996218251852739
15.800999999996682,-0.6137609139709119,-0.15952354382654155
16.000999999996573,-0.5983026632254265,-0.12081171476209947
16.200999999996817,-0.5857598488213102,-0.08310085511810278
16.40099999999706,-0.5712371127707702,-0.04572455033259538
16.600999999997306,-0.5591311483334294,-0.009762027409456758
16.80099999999755,-0.5457700903017492,0.02725622658970406
17.000999999997795,-0.5233711563577755,0.07083759121465698
17.20099999999804,-0.49467589073907725,0.12488051540653251
17.400999999998284,-0.45831958904004544,0.17805011622350897
17.60099999999853,-0.42966440866535416,0.2192932677511755
17.800999999998773,-0.40851455858581054,0.2482565503899768
18.000999999999017,-0.37850666561251195,0.26576729230909996
18.20099999999926,-0.35286981448815685,0.2665763394245063
18.400999999999506,-0.31143294341887967,0.2557292625212849
18.60099999999975,-0.2676476579164329,0.23896564931278907
18.799999999999994,-0.23581799157607974,0.22334635760853216
19.000000000000238,-0.19355305961859953,0.20850064332086196
19.200000000000482,-0.14787904610011998,0.19119601506747136
19.400000000000727,-0.1139218710951416,0.1806311488618304
19.60000000000097,-0.077867664911491,0.1650187604437386
19.800000000001216,-0.03129490799250028,0.14392192209907698
20.00000000000146,0.01582284064400911,0.12326549318968164
