Time (s),X (m),Y (m)
0.001,0.0012131848191356664,-0.000663019509439443
0.20000000000000015,0.0008779839498559512,-0.00013482533274362102
0.4000000000000003,0.0014790288621773337,-0.0004305633490117567
0.6000000000000004,0.002235209614655994,-0.0008583045554719227
0.8000000000000006,0.004294971257751258,-0.002211768607763073
1.0000000000000007,0.00592052873159702,-0.0022802220118851744
1.2009999999999785,0.008234713890952271,-0.0035331992732567943
1.4009999999999565,0.007282493962750116,-0.0011876576074319964
1.6009999999999345,0.008153311532451897,-0.0013211303911713152
1.8009999999999124,0.009082094533951724,-0.0004842952584503686
2.0009999999998906,0.010784200292310354,-0.000430043319072136
2.2009999999998686,0.013281503127454148,-0.0006169990389553009
2.4009999999998466,0.016447345347037755,-0.0004317098007072479
2.6009999999998246,0.018912568278524906,-0.0008861739607125945
2.8009999999998025,0.02092955285766648,-0.0006722790673662726
3.0009999999997805,0.023458442354753428,-0.000275397967188697
3.2009999999997585,0.026397226205905174,0.0003980620599518672
3.4009999999997365,0.02890150148979968,0.0007516868059115327
3.6009999999997144,0.031404168267275295,0.0009633070014390714
3.8009999999996924,0.03320394075778329,0.0016450681502527772
4.000999999999671,0.03525835653211295,0.002453905264296256
4.200999999999738,0.037642905990414824,0.002982498091197946
4.400999999999804,0.04019641338643647,0.004753157849182929
4.600999999999871,0.04245598565351358,0.006437674260367765
4.800999999999938,0.043903837954498134,0.00776341035800519
5.000000000000004,0.04595333136362843,0.009555693389307276
5.200000000000071,0.04761329249433792,0.012739559747967148
5.400000000000138,0.04917454251669793,0.015939100114628728
5.600000000000205,0.05093534659511732,0.01847198827173669
5.800000000000272,0.05230939546612596,0.021207497569651963
6.000000000000338,0.0535220655090376,0.02410393768573607
6.200000000000405,0.05467906838965687,0.027937923707067165
6.400000000000472,0.05567824480309028,0.03169997014960621
6.600000000000539,0.05664605561710329,0.03542489411428076
6.800000000000606,0.057559075551521295,0.03879715365671919
7.000000000000672,0.0581662888399647,0.042188460753265385
7.200000000000739,0.059087799243883514,0.0466115141874378
7.400000000000806,0.05961941803472752,0.05004216896838269
7.600000000000873,0.059605834692801736,0.054098783231802755
7.8000000000009395,0.05990336098374022,0.058269873302635666
8.000000000001005,0.060023178364729014,0.06173648848926718
8.200000000000895,0.06001816476566859,0.06575844603016619
8.400000000000784,0.060681249580493854,0.0698439940964126
8.600000000000673,0.06058673045889019,0.07336404488085435
8.800000000000562,0.06054455463895177,0.07618989132655156
9.000000000000451,0.060217821695902646,0.07989014894263283
9.20000000000034,0.06019739945792185,0.08257608957633443
9.40000000000023,0.06037542276207947,0.08663139127284977
9.600000000000119,0.060096233870677584,0.0902878528842482
9.800000000000008,0.059338153190087534,0.0937442960503504
10.000999999999896,0.05882718756447708,0.09681584590459255
10.200999999999786,0.05763897596098796,0.1003212749625319
10.400999999999675,0.05587022939915979,0.10385159533343129
10.600999999999564,0.05417994680379973,0.10677324965873584
10.800999999999453,0.051757077833429595,0.1106439842929789
11.000999999999342,0.04941247380662688,0.11343597959690627
11.200999999999231,0.0467884015440789,0.11643935881160346
11.40099999999912,0.04343699996835502,0.11897028431014703
11.60099999999901,0.03995948341154391,0.12113092840333359
11.800999999998899,0.035896916532572605,0.12337891842820567
12.000999999998788,0.03143500840287659,0.1254770261610321
12.200999999998677,0.026739942890059255,0.12816380121346377
12.400999999998566,0.02175391967960213,0.13085124455734196
12.600999999998455,0.01702180326215772,0.13221699528059458
12.800999999998345,0.011768478182009146,0.1338052231464205
13.000999999998234,0.006348262113279305,0.13597431461993517
13.200999999998123,0.001219905122511297,0.13747038012307602
13.400999999998012,-0.004767476766564135,0.13924684568912707
13.600999999997901,-0.010796398748604026,0.1408793065485289
13.80099999999779,-0.016846548863757162,0.1419546491083009
14.00099999999768,-0.023073758544389204,0.14311262716188494
14.200999999997569,-0.029450447503663175,0.1438014259588938
14.400999999997458,-0.03554424925338477,0.1448041961113183
14.600999999997347,-0.041942437379606845,0.1457509205729919
14.800999999997236,-0.0478513571778639,0.14693512428910444
15.000999999997125,-0.05396609225627743,0.14734628980274397
15.200999999997014,-0.05991293213072225,0.1475022811939486
15.400999999996904,-0.06662008082030961,0.14772663441322897
15.600999999996793,-0.07229975551292435,0.1480016964619807
15.800999999996682,-0.07753798888146393,0.1481021113436057
16.000999999996573,-0.08308699532338062,0.14799182344649475
16.200999999996817,-0.08872201039286509,0.147801066335215
16.40099999999706,-0.09394690395597156,0.14763335827282575
16.600999999997306,-0.09929985043072219,0.1473091518358039
16.80099999999755,-0.10446044051352596,0.14700184745195807
17.000999999997795,-0.10998690085298267,0.14650459753240422
17.20099999999804,-0.11598105572318873,0.14626730697872725
17.400999999998284,-0.11970979133573278,0.14573427030840302
17.60099999999853,-0.12383462611432565,0.1453079062010408
17.800999999998773,-0.12857046367421723,0.14462268144220755
18.000999999999017,-0.13274400618452467,0.1434743636664217
18.20099999999926,-0.13753054404648124,0.14190857204847437
18.400999999999506,-0.14194245152949986,0.14035917439900353
18.60099999999975,-0.14648959918972645,0.13812852465778305
18.799999999999994,-0.150434285239505,0.1362230509388694
19.000000000000238,-0.15429471890987814,0.13347202246745624
19.200000000000482,-0.15890030551295414,0.13034599114123918
19.400000000000727,-0.16230705680721438,0.12696779818163972
19.60000000000097,-0.16652688021640405,0.12333970481126237
19.800000000001216,-0.17015225781036802,0.11933223992996429
20.00000000000146,-0.17372373053534038,0.115212987056139
