Time (s),X (m),Y (m)
0.001,0.0010146588340248276,-0.0008449350584490237
0.20000000000000015,0.0008768208616496845,-0.00017040838543501996
0.4000000000000003,0.0013049010532644406,-0.0003615724867654822
0.6000000000000004,0.001888123457883439,-0.0006265681353640685
0.8000000000000006,0.002610282529352519,-0.0010108192686938305
1.0000000000000007,0.0035785010644555446,-0.0014758021510292648
1.2009999999999785,0.004650712610062514,-0.0021960793980029996
1.4009999999999565,0.0056252773691782935,-0.0028486660027463077
1.6009999999999345,0.006594868566747262,-0.0035065506084428445
1.8009999999999124,0.007612855091507327,-0.004195589274203023
2.0009999999998906,0.00870369283159981,-0.004944930149652977
2.2009999999998686,0.009863657053979178,-0.005741495155075323
2.4009999999998466,0.01111366491103643,-0.006610893700616709
2.6009999999998246,0.012395698752785298,-0.007492408634619857
2.8009999999998025,0.013580198102297894,-0.008473937222457595
3.0009999999997805,0.01472992727655042,-0.009580504408612444
3.2009999999997585,0.01580274440284802,-0.010768072358134479
3.4009999999997365,0.017004381084141318,-0.012046856490211094
3.6009999999997144,0.01809896430068789,-0.013317399855092145
3.8009999999996924,0.019444503674042678,-0.014818215335987052
4.000999999999671,0.020653098278606834,-0.016197604490353797
4.200999999999738,0.021893469173028403,-0.017590941796705156
4.400999999999804,0.02311876413681803,-0.01897048579110678
4.600999999999871,0.02443617397119208,-0.020422995014787556
4.800999999999938,0.025897201317529175,-0.021995128240521918
5.000000000000004,0.02731251479974295,-0.023496747065249242
5.200000000000071,0.02871277953427391,-0.024986645992576866
5.400000000000138,0.03011617951739792,-0.02645859921455429
5.600000000000205,0.03151956609686434,-0.027907762057894813
5.800000000000272,0.032962224788365524,-0.02936233706019233
6.000000000000338,0.03460312708226618,-0.030916906326024545
6.200000000000405,0.03627565471136619,-0.03246117643836685
6.400000000000472,0.03787545520108826,-0.03391443500930289
6.600000000000539,0.039483480000862985,-0.03533801594158759
6.800000000000606,0.041085679823156446,-0.03671796795373276
7.000000000000672,0.04268981553118218,-0.03805569562178091
7.200000000000739,0.04430794909475961,-0.03935424676227025
7.400000000000806,0.04593580313121257,-0.040604731609082484
7.600000000000873,0.04757881869714746,-0.04178926050910598
7.8000000000009395,0.04924022504504609,-0.042891333347177735
8.000000000001005,0.050914031132437663,-0.043907341642053795
8.200000000000895,0.05259629855556679,-0.04483506641459183
8.400000000000784,0.05428574207662445,-0.04567320015349122
8.600000000000673,0.05598659339980039,-0.046397718201839355
8.800000000000562,0.05766547782824036,-0.04695424877215794
9.000000000000451,0.059048791082904444,-0.04722854597486418
9.20000000000034,0.060505564962393225,-0.04739559196570044
9.40000000000023,0.06183009273166155,-0.0473595983784143
9.600000000000119,0.06353893423284981,-0.04725738373558717
9.800000000000008,0.06512691101711279,-0.04704611707304732
10.000999999999896,0.06664605352306692,-0.046677223438433856
10.200999999999786,0.06821979571399997,-0.046223999996265856
10.400999999999675,0.06965483003011147,-0.04564561881567509
10.600999999999564,0.07108392136606544,-0.04498717212545873
10.800999999999453,0.07266972755253934,-0.044242967883172044
11.000999999999342,0.07417928398283848,-0.043469491503865525
11.200999999999231,0.07572767634148042,-0.0426095389494437
11.40099999999912,0.07730253464770538,-0.04168910340100717
11.60099999999901,0.07889009922181515,-0.040708591152338394
11.800999999998899,0.08049132982350715,-0.03966884947419861
12.000999999998788,0.08211335500994413,-0.03857157311197582
12.200999999998677,0.08376157580582745,-0.037418382940204706
12.400999999998566,0.08543740752843261,-0.03621143735716136
12.600999999998455,0.08713864696205997,-0.034951204924803796
12.800999999998345,0.08886229009127093,-0.033636987443701215
13.000999999998234,0.09060485572955305,-0.03226962468565308
13.200999999998123,0.09236365335949252,-0.030851783173051994
13.400999999998012,0.09413705911271689,-0.029384655103487027
13.600999999997901,0.09592514977986544,-0.02786807335299021
13.80099999999779,0.09772841605518102,-0.026302859237024294
14.00099999999768,0.09954717284740792,-0.024691285666464297
14.200999999997569,0.10137983666277084,-0.023034373828637142
14.400999999997458,0.10322605465583705,-0.02133255448971393
14.600999999997347,0.1050861813203551,-0.019588808897414663
14.800999999997236,0.10695927834234538,-0.017804399100455143
15.000999999997125,0.10884370474953968,-0.015982828203588102
15.200999999997014,0.1107361530254682,-0.014136657864025539
15.400999999996904,0.1125970419096611,-0.01201758269427211
15.600999999996793,0.11424207253525376,-0.008203049667620251
15.800999999996682,0.11572222198003884,-0.004345512082785788
16.000999999996573,0.1172633310418102,-0.0007803463956614425
16.200999999996817,0.11868550636362023,0.0027225119634131227
16.40099999999706,0.11989055218290201,0.006740883242643692
16.600999999997306,0.12107923899395057,0.010127661750601943
16.80099999999755,0.12226333639412089,0.014094916708282047
17.000999999997795,0.12308420170115367,0.017965206842520526
17.20099999999804,0.12401725791031575,0.021414130333413092
17.400999999998284,0.12468302712629495,0.025295302904039432
17.60099999999853,0.1251754899938671,0.029063280742621156
17.800999999998773,0.12596465911958704,0.03316029789695521
18.000999999999017,0.12650114843973528,0.037042733766603456
18.20099999999926,0.12676773145087508,0.040756462524145796
18.400999999999506,0.12760745615971852,0.04448690035654068
18.60099999999975,0.12813517122989362,0.048260313470462106
18.799999999999994,0.128297639385688,0.05190628796635424
19.000000000000238,0.12851387775044068,0.05549100041923529
19.200000000000482,0.12881492178815085,0.05858733803297424
19.400000000000727,0.12860005839568,0.061685653951338154
19.60000000000097,0.12916640688517203,0.06458985272212657
19.800000000001216,0.12967599695564908,0.06679806236290776
20.00000000000146,0.13035377493424619,0.06976245107498089
