Time (s),X (m),Y (m)
0.001,0.00015606349793537,-0.0009963285817120471
0.20000000000000015,0.0008200784666854726,-0.00010393243194116233
0.4000000000000003,0.0015250483271736356,-0.0002928529138045401
0.6000000000000004,0.0032452298575996416,0.0026108705484438072
0.8000000000000006,0.007412788380131343,0.003160129957324751
1.0000000000000007,0.012019767462909763,0.0019180567134928538
1.2009999999999785,0.01187982346068799,-0.0035378906267632335
1.4009999999999565,0.015825837975856735,-0.0006413264137189147
1.6009999999999345,0.024245878082164586,0.003480771517896626
1.8009999999999124,0.0322415046709353,0.010170452271068433
2.0009999999998906,0.03908388594188226,0.016719730182836137
2.2009999999998686,0.04416142888038324,0.01833045474335258
2.4009999999998466,0.051286909098417294,0.020965461760868734
2.6009999999998246,0.05581827593944452,0.017808210355853615
2.8009999999998025,0.06272680716947936,0.02166742355979483
3.0009999999997805,0.07009911728928844,0.021339737529329533
3.2009999999997585,0.07596371399730097,0.022007425867968885
3.4009999999997365,0.08553647722464247,0.02486910632749717
3.6009999999997144,0.08953019799121538,0.02516283154607003
3.8009999999996924,0.09216000927213297,0.022213080223719133
4.000999999999671,0.09542604036670244,0.024136244211237615
4.200999999999738,0.09957089279188622,0.02726311459259326
4.400999999999804,0.10375497966089907,0.03063249868211585
4.600999999999871,0.11064685859735202,0.03081073929538143
4.800999999999938,0.11493446046243104,0.02868049484979065
5.000000000000004,0.12347391411923292,0.03185512420374085
5.200000000000071,0.1291545742266354,0.03492229467712797
5.400000000000138,0.13955726539997404,0.03675575480254513
5.600000000000205,0.14825094994547644,0.03602077280252611
5.800000000000272,0.15299725426543445,0.03657930786531911
6.000000000000338,0.15642271007941355,0.03746482474709996
6.200000000000405,0.16239014703381918,0.04115583300596957
6.400000000000472,0.1705638710380373,0.038695787601671326
6.600000000000539,0.17930857678931136,0.03664093455286131
6.800000000000606,0.19085738020179147,0.042989530128923606
7.000000000000672,0.19991552934186374,0.04565706181048895
7.200000000000739,0.21493990958468837,0.05184673156793388
7.400000000000806,0.2229779022013145,0.04914560961473574
7.600000000000873,0.23313299013771677,0.05119964413914728
7.8000000000009395,0.2491568189651995,0.05374420237782039
8.000000000001005,0.2631096576831345,0.059155785978942554
8.200000000000895,0.2771501814872914,0.06211270388774677
8.400000000000784,0.2907841831821276,0.06291121267894591
8.600000000000673,0.30042297590343203,0.0698988000386944
8.800000000000562,0.3091688548502283,0.07339382074240791
9.000000000000451,0.3240850181763189,0.0809382482898085
9.20000000000034,0.3398238442437211,0.09144493610474963
9.40000000000023,0.35487131973344627,0.09805025525724234
9.600000000000119,0.3656756646167785,0.10257820011731146
9.800000000000008,0.38117055598205984,0.11314224958521088
10.000999999999896,0.39736436425674276,0.12364939551294854
10.200999999999786,0.408606906796111,0.12251356682363287
10.400999999999675,0.4215330586776131,0.12347057223599124
10.600999999999564,0.4345239772905913,0.12764729576717548
10.800999999999453,0.4462656122890886,0.13323618767546422
11.000999999999342,0.46145771171247474,0.14046011062485902
11.200999999999231,0.4726147780664678,0.14177340400777824
11.40099999999912,0.4797022255012162,0.1446544115045228
11.60099999999901,0.4880595588403136,0.15094819112083557
11.800999999998899,0.49898699784021044,0.1551475810718693
12.000999999998788,0.5113843281423582,0.16515188994333305
12.200999999998677,0.5234921845941352,0.169572705860997
12.400999999998566,0.535564151521518,0.1761347067004749
12.600999999998455,0.5449941096917369,0.17806419657408395
12.800999999998345,0.5553904665578268,0.18022954386869464
13.000999999998234,0.5666627324708645,0.1778260623662786
13.200999999998123,0.5769819629827743,0.17798816044783325
13.400999999998012,0.5839758015629894,0.18103957218707836
13.600999999997901,0.5957905905995298,0.18201460058883792
13.80099999999779,0.6018317494262323,0.17782603491030666
14.00099999999768,0.6076731621176207,0.17924058153629824
14.200999999997569,0.6188190662260526,0.19080227885092543
14.400999999997458,0.6343458510045116,0.20094383601240973
14.600999999997347,0.6472496550756764,0.20581123192526213
14.800999999997236,0.6622932853300432,0.21232361453836898
15.000999999997125,0.6746035259391089,0.22033643673005582
15.200999999997014,0.6882484144755656,0.2255763296341287
15.400999999996904,0.6994368422964183,0.2322066978846594
15.600999999996793,0.7137571070919291,0.2402562856390096
15.800999999996682,0.7282277980437097,0.24375724905230553
16.000999999996573,0.7388945068782756,0.24721301037745863
16.200999999996817,0.7506735552800833,0.25481685668807236
16.40099999999706,0.7607169511833314,0.2545027142569325
16.600999999997306,0.7668562176207804,0.25421847379156853
16.80099999999755,0.7764165198350423,0.2657330989803149
17.000999999997795,0.787028850201252,0.2808030641827245
17.20099999999804,0.7987263067636924,0.29684008002778456
17.400999999998284,0.8081462649089693,0.30219400307584215
17.60099999999853,0.8175621248299173,0.31051311163290624
17.800999999998773,0.8292470488369178,0.3257265453684881
18.000999999999017,0.8383306614399311,0.33162891109266596
18.20099999999926,0.8466987303605319,0.34412597276150586
18.400999999999506,0.8571402251341388,0.34921854695348553
18.60099999999975,0.865862272078181,0.34948557175571104
18.799999999999994,0.8738703692620513,0.3522768158750056
19.000000000000238,0.8812811033575791,0.3587307416790685
19.200000000000482,0.8909510926023331,0.37008773870080897
19.400000000000727,0.8991972655406186,0.379950224250144
19.60000000000097,0.9091343874061781,0.3916992889868059
19.800000000001216,0.9202115848327556,0.3957984690732248
20.00000000000146,0.9265752485072658,0.4099924164432509
