Time (s),X (m),Y (m)
0.001,-0.00030633420604510037,-0.000729363142846258
0.20000000000000015,0.0007011961457756769,-0.00016982005828748895
0.4000000000000003,0.0017967102792842732,0.0003203100038176191
0.6000000000000004,0.003020711175693384,3.5935902104722324e-05
0.8000000000000006,0.00491068061955264,-0.001335262305373858
1.0000000000000007,0.00927349728993539,-0.0006522909667197058
1.2009999999999785,0.013993866432609789,-0.0003769722282300024
1.4009999999999565,0.019596480750972547,0.00048585082556377166
1.6009999999999345,0.023868072242691944,0.001698773241354205
1.8009999999999124,0.027695285434027692,0.0028856770183524165
2.0009999999998906,0.0331074321225331,0.005463468421688448
2.2009999999998686,0.037118060045300334,0.007168106905795338
2.4009999999998466,0.042201331955200025,0.009737861895911196
2.6009999999998246,0.04673639030015004,0.013539121060101987
2.8009999999998025,0.05150381956628503,0.01738627279312066
3.0009999999997805,0.05708676534757487,0.022388761236142633
3.2009999999997585,0.06349608567664129,0.025088971448775872
3.4009999999997365,0.06900215452222001,0.02970912074243925
3.6009999999997144,0.07542694438329779,0.034550559837184414
3.8009999999996924,0.081137705432134,0.03832059303274577
4.000999999999671,0.08652019524876439,0.0428607923486307
4.200999999999738,0.092206537119644,0.0499705561512842
4.400999999999804,0.09677379021282982,0.054559027297500756
4.600999999999871,0.10038730419222687,0.05979538880336273
4.800999999999938,0.10342041355309471,0.06502431369763662
5.000000000000004,0.10743977328633968,0.06985956092917536
5.200000000000071,0.11101472565757117,0.07611104583015492
5.400000000000138,0.11433835804194832,0.08443873081472661
5.600000000000205,0.11716210163131249,0.09182069203013232
5.800000000000272,0.11845856923854792,0.09777822535781239
6.000000000000338,0.12019486753550512,0.10387003437293356
6.200000000000405,0.12176853814230748,0.10831262234802969
6.400000000000472,0.1225418357353434,0.11715789548086686
6.600000000000539,0.12240176252482686,0.1226103935049089
6.800000000000606,0.12081539810793272,0.13145342791842907
7.000000000000672,0.11954569438336947,0.13780692723460433
7.200000000000739,0.11946670535725142,0.14332164773878622
7.400000000000806,0.11839620003052613,0.14952607616775526
7.600000000000873,0.11791041617363233,0.1576825565159274
7.8000000000009395,0.1168513746486721,0.1645479406564608
8.000000000001005,0.11429297985067022,0.17353488559824226
8.200000000000895,0.1116906174148548,0.1828356658054322
8.400000000000784,0.10932210588372622,0.19017046657854722
8.600000000000673,0.1079638875849324,0.19699598916178052
8.800000000000562,0.1063331655186234,0.20376429016353734
9.000000000000451,0.10219586389884622,0.21327314682381796
9.20000000000034,0.09852558730795972,0.2213276923507666
9.40000000000023,0.09421066023145935,0.2295403895407605
9.600000000000119,0.08857867264962718,0.23817721017220225
9.800000000000008,0.08615868094129393,0.24559101370146286
10.000999999999896,0.07994536441165753,0.2542250637172561
10.200999999999786,0.07345089788986153,0.2625893219826382
10.400999999999675,0.06709577472615136,0.27166541481891415
10.600999999999564,0.06099478056697215,0.28076372289495466
10.800999999999453,0.056367722883532353,0.2874841489202409
11.000999999999342,0.051057883745388645,0.2946769475396677
11.200999999999231,0.04238672353478365,0.30067030311266496
11.40099999999912,0.03483353156478987,0.3063932338318885
11.60099999999901,0.027990696576442563,0.3111398099568825
11.800999999998899,0.0220178452980327,0.3146251107745305
12.000999999998788,0.017822374975252298,0.3190160641074271
12.200999999998677,0.007949105229158603,0.3212873099844787
12.400999999998566,0.0014609248478574383,0.32390411335879893
12.600999999998455,-0.005175734636414625,0.32605252187004086
12.800999999998345,-0.012530919702130293,0.3265968761369809
13.000999999998234,-0.019954840936988728,0.32732533648104656
13.200999999998123,-0.028004861989224753,0.32739307338431856
13.400999999998012,-0.036207616203679995,0.32659083947787654
13.600999999997901,-0.04390079236282871,0.32599832502575743
13.80099999999779,-0.050610996166058624,0.3278621264863545
14.00099999999768,-0.05918533179751063,0.3288612186784509
14.200999999997569,-0.0682685030983049,0.32738781178548165
14.400999999997458,-0.07508377287258239,0.32869867077106013
14.600999999997347,-0.08380926374743473,0.32724971135375325
14.800999999997236,-0.09105452504843195,0.3263881988916352
15.000999999997125,-0.09975784487572545,0.32227896880797746
15.200999999997014,-0.1082210674067839,0.3195956085834479
15.400999999996904,-0.11594615799704877,0.3188248453798385
15.600999999996793,-0.12490948296686646,0.3162735754981947
15.800999999996682,-0.13349001285710077,0.31192621332691206
16.000999999996573,-0.1427630025441216,0.3056981393842657
16.200999999996817,-0.15172798288892353,0.30131118620925407
16.40099999999706,-0.1611799268303147,0.2943527848996555
16.600999999997306,-0.17031343816682853,0.2888892843489809
16.80099999999755,-0.1793658289916969,0.2817619507966393
17.000999999997795,-0.18865516411104027,0.27522449263220705
17.20099999999804,-0.1968533707444342,0.2686288926996791
17.400999999998284,-0.2049813586452846,0.26227602365267627
17.60099999999853,-0.21188043204077628,0.256668571646122
17.800999999998773,-0.2178514757941983,0.25034385494225664
18.000999999999017,-0.22447831192485723,0.2435141949824083
18.20099999999926,-0.23020378208666786,0.23876448186835322
18.400999999999506,-0.23520797651185177,0.2298089875949714
18.60099999999975,-0.24039900610251747,0.22347406569337097
18.799999999999994,-0.24421421451011982,0.21715835892264518
19.000000000000238,-0.24727190829342138,0.20795219733085582
19.200000000000482,-0.25010390613497635,0.2012555700496878
19.400000000000727,-0.2503627517775662,0.1916462503435512
19.60000000000097,-0.25096783398679473,0.18430516845672704
19.800000000001216,-0.25188116532871163,0.17690247698259312
20.00000000000146,-0.25193159969337264,0.1683782155062721
