Time (s),X (m),Y (m)
0.001,-0.00023999057263828476,-0.0007901558823345064
0.20000000000000015,0.0013697467152861415,0.00040973496850116287
0.4000000000000003,0.0032079494287196317,0.0009339161511481913
0.6000000000000004,0.009890601678595371,0.002353369654170599
0.8000000000000006,0.013804174799905618,-0.002609152269954124
1.0000000000000007,0.02134258727160988,-0.0016642973890965995
1.2009999999999785,0.02723901193702707,-0.003921130799982567
1.4009999999999565,0.036635193581292975,-0.0006518352047788358
1.6009999999999345,0.0447780058180537,-0.005817623273912245
1.8009999999999124,0.055338673594297116,0.002588004707182269
2.0009999999998906,0.07587469916042924,0.01709004906200823
2.2009999999998686,0.08795991793995367,0.022481914382459615
2.4009999999998466,0.09555247440201724,0.021730814113074363
2.6009999999998246,0.10837521824478268,0.021434889354757545
2.8009999999998025,0.11419813710291578,0.021011028262378433
3.0009999999997805,0.1256162335985553,0.028110859571155528
3.2009999999997585,0.13770576019013747,0.028324693145253772
3.4009999999997365,0.1471501135360254,0.029265826607559154
3.6009999999997144,0.16133541732077694,0.03849492102107418
3.8009999999996924,0.17375315648640738,0.048053949081873645
4.000999999999671,0.18588223108349236,0.06575643890520971
4.200999999999738,0.1988154428322624,0.07093764624765089
4.400999999999804,0.21343771454893615,0.07675969912644409
4.600999999999871,0.22913613559229773,0.08659843495967676
4.800999999999938,0.24676586674344309,0.10055687612920652
5.000000000000004,0.26357201498213684,0.10918670327311061
5.200000000000071,0.28064652561761905,0.11732818573098995
5.400000000000138,0.29394534237297504,0.1379810441597724
5.600000000000205,0.3070423251301551,0.15190591323285346
5.800000000000272,0.3235275959602628,0.16432890884893117
6.000000000000338,0.3352831386995422,0.17744365257658953
6.200000000000405,0.3498114444839844,0.18580458695542362
6.400000000000472,0.36124306012652574,0.20023142285421197
6.600000000000539,0.3741283241992107,0.22422911816753222
6.800000000000606,0.38421994888652916,0.23921568487726047
7.000000000000672,0.3943806400751181,0.260616694230656
7.200000000000739,0.4003120741600211,0.275980517335279
7.400000000000806,0.406736252382642,0.2847727817447865
7.600000000000873,0.4153636632010537,0.29962075857090775
7.8000000000009395,0.42884195397625546,0.3239161959100335
8.000000000001005,0.44435825732326717,0.33628220688786853
8.200000000000895,0.4597377327633083,0.3444323283180608
8.400000000000784,0.46898413117467813,0.3649478051787774
8.600000000000673,0.4782128552495177,0.3812630658314464
8.800000000000562,0.48745792804101395,0.39961932580690257
9.000000000000451,0.49301840430816973,0.42042824369758225
9.20000000000034,0.498853702200756,0.4421664984778363
9.40000000000023,0.5067650385323847,0.45511410486674553
9.600000000000119,0.5120178140949317,0.47426286413629304
9.800000000000008,0.5192639299198604,0.4921079866468614
10.000999999999896,0.5265221319536393,0.5123817929639108
10.200999999999786,0.5351484883672073,0.5348888247459507
10.400999999999675,0.5470429977677674,0.5559209563549262
10.600999999999564,0.562409683231201,0.5649691790243178
10.800999999999453,0.5734885040679841,0.5815097239455146
11.000999999999342,0.5864991672806535,0.6073769364315599
11.200999999999231,0.5944345915750584,0.6373240424243933
11.40099999999912,0.6026311429074912,0.661134605881187
11.60099999999901,0.6121544135559522,0.682753710848687
11.800999999998899,0.628045404050011,0.7050069387805943
12.000999999998788,0.6449090962384048,0.731383315854368
12.200999999998677,0.6593529979546593,0.758934304990132
12.400999999998566,0.6720476356326917,0.7827722408557738
12.600999999998455,0.6789724430826165,0.8086754926686274
12.800999999998345,0.6868953157880614,0.8305201777864301
13.000999999998234,0.6963589654192542,0.8554586734364478
13.200999999998123,0.7037561718349437,0.8803848185541351
13.400999999998012,0.7104468306490033,0.9053169376704272
13.600999999997901,0.7163965899422515,0.939353096837252
13.80099999999779,0.718076259668081,0.9678006411734044
14.00099999999768,0.7220683619818017,0.9905912747734341
14.200999999997569,0.7251066990303945,1.015275277603911
14.400999999997458,0.7229885913612216,1.0456735304964722
14.600999999997347,0.724215378387365,1.0770936589524087
14.800999999997236,0.7259426147489519,1.1010745755664544
15.000999999997125,0.725155451145591,1.124738993808368
15.200999999997014,0.7220880640861168,1.1522965496606383
15.400999999996904,0.7260802414232461,1.179174329415128
15.600999999996793,0.7249437269363495,1.212444853216102
15.800999999996682,0.7233321378519039,1.2387628005912756
16.000999999996573,0.7262165333055584,1.2621146433233317
16.200999999996817,0.7278201502639505,1.2929970228536758
16.40099999999706,0.7279312796203675,1.3130177767164855
16.600999999997306,0.7321521208353895,1.3415738522930378
16.80099999999755,0.7454489804920437,1.3689642446900179
17.000999999997795,0.7585027249738375,1.3924881013502226
17.20099999999804,0.7703916397670606,1.4259331834911835
17.400999999998284,0.7794092608178811,1.4605113760356199
17.60099999999853,0.7846166790070166,1.490425129733595
17.800999999998773,0.795846529453655,1.5148162132045535
18.000999999999017,0.800980563955724,1.5470809831876473
18.20099999999926,0.8025885296370051,1.5739680760700474
18.400999999999506,0.80457839705892,1.604337705125068
18.60099999999975,0.8034365793974932,1.6317512380736974
18.799999999999994,0.7957484442396283,1.6675278068557244
19.000000000000238,0.788376299855883,1.7007782521827453
19.200000000000482,0.7883612313407978,1.723303366123002
19.400000000000727,0.7875797383351194,1.753830171291405
19.60000000000097,0.7852204140074993,1.785532318924231
19.800000000001216,0.7744592987871968,1.8160129866488999
20.00000000000146,0.7599554776078713,1.8522367844758667
