Time (s),X (m),Y (m)
0.001,0.001392298616347667,-0.0003527853123316693
0.20000000000000015,0.0008821757150427708,-0.00010065158839018266
0.4000000000000003,0.001449858838388487,-0.000283212098847031
0.6000000000000004,0.002103321634805188,-0.0005634083329324
0.8000000000000006,0.003109966883691891,-0.0011366977912888518
1.0000000000000007,0.004309316170924903,-0.0018755194288954844
1.2009999999999785,0.005397928220339559,-0.0025672200228837065
1.4009999999999565,0.006622532379880156,-0.0033185365147249276
1.6009999999999345,0.00791465380124798,-0.0040790054172031446
1.8009999999999124,0.009278985627852501,-0.004879369193678273
2.0009999999998906,0.010706547074908134,-0.005730170123043823
2.2009999999998686,0.012198345787743398,-0.00662823673015872
2.4009999999998466,0.013751508632449465,-0.00755400413346554
2.6009999999998246,0.015366863272627162,-0.008506426257239564
2.8009999999998025,0.01705716039987451,-0.009493216852497313
3.0009999999997805,0.0188147192138425,-0.010510189164314194
3.2009999999997585,0.020633724064800792,-0.011549126808394043
3.4009999999997365,0.022513094503069927,-0.0126123919222109
3.6009999999997144,0.024460849311052173,-0.013697059482027336
3.8009999999996924,0.026485712092553952,-0.01478388404773124
4.000999999999671,0.028577318824911522,-0.015860399021412674
4.200999999999738,0.03072126886771901,-0.01690533906223346
4.400999999999804,0.03303514243478788,-0.017879102477467514
4.600999999999871,0.03531400348155165,-0.018825672856907054
4.800999999999938,0.03777110641651638,-0.01972258630186707
5.000000000000004,0.0404858519045491,-0.020621569370431327
5.200000000000071,0.04312985928594496,-0.02145954455866806
5.400000000000138,0.04583312882190007,-0.02226386032122617
5.600000000000205,0.04871460094315591,-0.023081899301810396
5.800000000000272,0.05151184759374318,-0.023812414984712097
6.000000000000338,0.05438016879066657,-0.02449938878665954
6.200000000000405,0.057455040362761244,-0.025191265475947747
6.400000000000472,0.06056969564688132,-0.025827764170128914
6.600000000000539,0.06363420996678221,-0.02638984904290697
6.800000000000606,0.06675031291289815,-0.02692072293962892
7.000000000000672,0.06992114231684164,-0.02741299707859441
7.200000000000739,0.07305090604007124,-0.027851847292941573
7.400000000000806,0.07604792564913614,-0.028156327180097862
7.600000000000873,0.07928171583872595,-0.028449840014060417
7.8000000000009395,0.08195553096090906,-0.02856196380043065
8.000000000001005,0.08471384163719707,-0.028619929125069183
8.200000000000895,0.08768100018703995,-0.02859934490851961
8.400000000000784,0.09083691325891823,-0.0285176004787742
8.600000000000673,0.09384907305632094,-0.028360783899504152
8.800000000000562,0.09667926236913807,-0.028088071666457503
9.000000000000451,0.09948501129506217,-0.027723473476498152
9.20000000000034,0.10229036020357467,-0.02726950773430273
9.40000000000023,0.10519437705866098,-0.02671562656110643
9.600000000000119,0.10849023044431526,-0.02605859103238606
9.800000000000008,0.11116553551128934,-0.02525592204535419
10.000999999999896,0.11368149418306603,-0.02435540370634968
10.200999999999786,0.11653989017533517,-0.023385519173009805
10.400999999999675,0.11949514292274512,-0.02229073780582148
10.600999999999564,0.12264439616494836,-0.021090239034433786
10.800999999999453,0.12574406627237897,-0.01977196108396512
11.000999999999342,0.12852793891912617,-0.01812346273985209
11.200999999999231,0.13141863738787524,-0.016339309341524586
11.40099999999912,0.13416094958932548,-0.01441016969741476
11.60099999999901,0.13715535465690942,-0.01233519165491333
11.800999999998899,0.13992774928836238,-0.009878738826163658
12.000999999998788,0.1426970155241399,-0.007309650272811159
12.200999999998677,0.1454241797088592,-0.0049439078706943595
12.400999999998566,0.1481268593935334,-0.0025011188329858024
12.600999999998455,0.15097762087121025,9.073771110530975e-05
12.800999999998345,0.1538966562699382,0.0027741684693980933
13.000999999998234,0.15674222014114325,0.005963722368034082
13.200999999998123,0.15958919660056656,0.008889974224977056
13.400999999998012,0.16252240616647015,0.01235291883051702
13.600999999997901,0.16533143673848513,0.016056306082109346
13.80099999999779,0.16820270593561382,0.01989139206963827
14.00099999999768,0.17114958967152233,0.02382280362743552
14.200999999997569,0.17390692532327393,0.028510047570946842
14.400999999997458,0.17675786129165144,0.03249237786674318
14.600999999997347,0.1793200323731098,0.037370921291553984
14.800999999997236,0.18217042235753825,0.04236813848950711
15.000999999997125,0.18516520699560002,0.04766583587128724
15.200999999997014,0.18827044555285213,0.05298076549294745
15.400999999996904,0.19113878342398907,0.058302912323617576
15.600999999996793,0.1942101847844181,0.06430010362862314
15.800999999996682,0.19706910164729705,0.07063027651041165
16.000999999996573,0.20050198778647357,0.0761705861141631
16.200999999996817,0.2038358118180995,0.0829741689115806
16.40099999999706,0.207497157578918,0.08985866396133993
16.600999999997306,0.21125418692139655,0.09627907378889486
16.80099999999755,0.21577744841530358,0.1039087608520624
17.000999999997795,0.2190715350491722,0.11047298488205032
17.20099999999804,0.22283796092272246,0.11684178886759083
17.400999999998284,0.22703558105766591,0.12456823769305764
17.60099999999853,0.23124167829143516,0.13173845383933735
17.800999999998773,0.23649764435735066,0.14095893025086192
18.000999999999017,0.24019790023970417,0.14746247754841874
18.20099999999926,0.24469305728245555,0.1565992630300945
18.400999999999506,0.24829454130340411,0.16346322614936054
18.60099999999975,0.25270105357816014,0.17269089823492978
18.799999999999994,0.25727434952011624,0.18077777935091774
19.000000000000238,0.26213003008527763,0.18880854371666095
19.200000000000482,0.2665525660251287,0.19651826984996007
19.400000000000727,0.2703051395544995,0.20546220814511934
19.60000000000097,0.2750812267187117,0.2140547493120488
19.800000000001216,0.27948221610689633,0.22367540878235034
20.00000000000146,0.2832573251951995,0.23228235378943596
