Time (s),X (m),Y (m)
0.001,-0.00042190612164786544,-0.0005916298972236683
0.20000000000000015,0.0006895928659880138,-0.00014704521995577768
0.4000000000000003,0.001780593471789144,0.00045326954685432616
0.6000000000000004,0.003677381408985253,0.0018573316181854963
0.8000000000000006,0.0072713691477700165,0.003806898928649644
1.0000000000000007,0.011640143930301397,0.006200109485679694
1.2009999999999785,0.016167611409120996,0.009186117182216423
1.4009999999999565,0.020288955076227206,0.011876625022049357
1.6009999999999345,0.023272555243764967,0.014082946241986973
1.8009999999999124,0.027977696074799406,0.018151841358231682
2.0009999999998906,0.03149669772884271,0.022076466378915534
2.2009999999998686,0.03462651776454577,0.02495056405547776
2.4009999999998466,0.038558857155751684,0.029462678690364986
2.6009999999998246,0.04200174086740768,0.03189135496803525
2.8009999999998025,0.04532718014311015,0.03461306527880963
3.0009999999997805,0.04855138382331079,0.0385632059061219
3.2009999999997585,0.053247784014166695,0.04196554387612215
3.4009999999997365,0.05636103486009286,0.045667362086437444
3.6009999999997144,0.0600854274009645,0.05293546463809906
3.8009999999996924,0.06429017312821872,0.05856158777126601
4.000999999999671,0.06809978942136394,0.06398439346090991
4.200999999999738,0.07119861000909944,0.06869926400018138
4.400999999999804,0.07488623693496513,0.07342132364955574
4.600999999999871,0.07737350317610238,0.0779630680927898
4.800999999999938,0.08018178968210102,0.08297626573835025
5.000000000000004,0.08305774384174104,0.0895471854921261
5.200000000000071,0.08457320989983232,0.0937187092521419
5.400000000000138,0.08673076478711089,0.10096878561090199
5.600000000000205,0.08886295268414997,0.10688509107077074
5.800000000000272,0.09126236179479177,0.11198067907748895
6.000000000000338,0.09160101299064272,0.11898463163692793
6.200000000000405,0.09311590394002159,0.12426302849226377
6.400000000000472,0.09453822546158676,0.13001547155282842
6.600000000000539,0.09438512825349943,0.13689255183562943
6.800000000000606,0.09499162250813055,0.14247619525266825
7.000000000000672,0.09496303833860485,0.14828260724991005
7.200000000000739,0.09465275415275969,0.15383895478268786
7.400000000000806,0.09420399565331349,0.16146481400972626
7.600000000000873,0.09462434103059048,0.16697453936752826
7.8000000000009395,0.09414298433371097,0.1713404262916092
8.000000000001005,0.09326623697373967,0.17932053615566404
8.200000000000895,0.09092727148718142,0.1875982495704783
8.400000000000784,0.08989618872817921,0.1944554547506424
8.600000000000673,0.08934969938270669,0.201243010425748
8.800000000000562,0.0879374283993809,0.20640663988414673
9.000000000000451,0.08592111132823169,0.2144934153757537
9.20000000000034,0.08294365406245696,0.22177203315080388
9.40000000000023,0.08116304134855432,0.22801908117545341
9.600000000000119,0.0793612346144623,0.2351351705307547
9.800000000000008,0.07675914038668967,0.24394701126957552
10.000999999999896,0.07262249556065911,0.25191579643397793
10.200999999999786,0.06932419222311448,0.25804004130762304
10.400999999999675,0.06693342540056428,0.2653281274921514
10.600999999999564,0.06273635718732577,0.27176892752562504
10.800999999999453,0.0587055464054131,0.2789464736204685
11.000999999999342,0.054135599801385624,0.2864236052018049
11.200999999999231,0.0491831429917534,0.2940412338237678
11.40099999999912,0.04396195590706334,0.30097810443672374
11.60099999999901,0.04025041047260573,0.30783321166463024
11.800999999998899,0.03352492344074937,0.3145386038376487
12.000999999998788,0.028835415376972824,0.32146194361485503
12.200999999998677,0.023206632746871243,0.32805645283531926
12.400999999998566,0.017062981063225575,0.33443605216629013
12.600999999998455,0.01211242611353543,0.3410597799711023
12.800999999998345,0.005683146557264188,0.3487615180652999
13.000999999998234,0.001043481368704899,0.35475383218376016
13.200999999998123,-0.00549025601615943,0.36130870522279795
13.400999999998012,-0.011407104228679302,0.36736023558980463
13.600999999997901,-0.01945071663240311,0.37289123086985754
13.80099999999779,-0.026839794642919072,0.3781487203110127
14.00099999999768,-0.033054722137013624,0.38249237152419846
14.200999999997569,-0.03847632019438191,0.38654088364990397
14.400999999997458,-0.045910665130154384,0.3904146683117372
14.600999999997347,-0.05297022528290769,0.3940851286219322
14.800999999997236,-0.059262681926296946,0.3977708535885733
15.000999999997125,-0.0673868168304271,0.40017843191119545
15.200999999997014,-0.07463940951578195,0.4024125464611605
15.400999999996904,-0.08168582615784804,0.4045881956090727
15.600999999996793,-0.08797336890273671,0.40724569343865286
15.800999999996682,-0.09588602765543422,0.4076718440090095
16.000999999996573,-0.10456235468225622,0.40816600048638757
16.200999999996817,-0.11206542469981798,0.4089003428894409
16.40099999999706,-0.1200150915081217,0.40974066912563345
16.600999999997306,-0.1270167645980809,0.409695888181451
16.80099999999755,-0.13334250877674886,0.41023583323105495
17.000999999997795,-0.14140878237868568,0.4086142785402919
17.20099999999804,-0.14838472781836795,0.4075367566780906
17.400999999998284,-0.15910434457148148,0.4046930850727672
17.60099999999853,-0.1646920715088993,0.4046222965873485
17.800999999998773,-0.17211685360333379,0.4040355998258326
18.000999999999017,-0.18100206371705987,0.4013681371084374
18.20099999999926,-0.18919605291021419,0.3992116496522708
18.400999999999506,-0.19839535154838966,0.39585647315911937
18.60099999999975,-0.20663670639133774,0.39315636457624537
18.799999999999994,-0.214587320367679,0.39000905800218794
19.000000000000238,-0.2232901974518091,0.3853079803658337
19.200000000000482,-0.23079864336802083,0.38172613186989435
19.400000000000727,-0.2374213221225844,0.37840374959682355
19.60000000000097,-0.2456465274530639,0.3729378752505264
19.800000000001216,-0.2528377227493948,0.3698576868004486
20.00000000000146,-0.2604480161527635,0.36482464562804706
