Time (s),X (m),Y (m)
0.001,0.0013163127053841656,-0.0005157376242541218
0.20000000000000015,0.0008862656579924577,-0.00011741245254982988
0.4000000000000003,0.0014227721146988321,-0.0003369153817915724
0.6000000000000004,0.0020511882051461603,-0.0006022112113618926
0.8000000000000006,0.0029570951020416116,-0.001150308230835074
1.0000000000000007,0.0040937036740454945,-0.0019199250099946987
1.2009999999999785,0.0051435811694789165,-0.002596679083281538
1.4009999999999565,0.00631834439532363,-0.003367938749056511
1.6009999999999345,0.007600264798727591,-0.004223875191359749
1.8009999999999124,0.008963184952008351,-0.005140668462195179
2.0009999999998906,0.010403462373078388,-0.0061200419933339955
2.2009999999998686,0.011929894265620482,-0.007168621334858278
2.4009999999998466,0.013527508162111325,-0.008268723255376434
2.6009999999998246,0.015215171055898199,-0.009432218931004186
2.8009999999998025,0.016978705325719396,-0.010644042744483086
3.0009999999997805,0.018820818848464132,-0.011909194385741461
3.2009999999997585,0.020725694533003408,-0.013210296024477942
3.4009999999997365,0.022693629840820746,-0.014546791737496515
3.6009999999997144,0.024723298379342742,-0.015918483356540686
3.8009999999996924,0.02681552844966404,-0.017328564725621005
4.000999999999671,0.028969536356175878,-0.018772817965412702
4.200999999999738,0.03118126751061602,-0.020243636377712888
4.400999999999804,0.03344325020710443,-0.02173252956338001
4.600999999999871,0.03574136907290713,-0.023221108669911106
4.800999999999938,0.03807300750458677,-0.02470714895347998
5.000000000000004,0.040439776034330174,-0.026187229339252636
5.200000000000071,0.04283377418265389,-0.02766250444271854
5.400000000000138,0.045264670016839016,-0.02910839253316066
5.600000000000205,0.04774145282859209,-0.030505701848878512
5.800000000000272,0.050417238124678486,-0.03174450428165899
6.000000000000338,0.05320671344713649,-0.0329616954727309
6.200000000000405,0.055910150757765585,-0.03427679226423139
6.400000000000472,0.05876732798838306,-0.035255096005128855
6.600000000000539,0.061665643617850964,-0.03621460984104906
6.800000000000606,0.06456704634403636,-0.0371070179032159
7.000000000000672,0.06711660799478202,-0.03781061410813818
7.200000000000739,0.0699284985019717,-0.03855745582316243
7.400000000000806,0.07305878745517268,-0.03928422813958627
7.600000000000873,0.07591531783701119,-0.03991264434423038
7.8000000000009395,0.07891577419559319,-0.040491507068527
8.000000000001005,0.08183723709862696,-0.041013521696562666
8.200000000000895,0.08474823246912942,-0.04145645860196617
8.400000000000784,0.08766387816055203,-0.04183064608060538
8.600000000000673,0.09064840206674464,-0.04209896787543238
8.800000000000562,0.09374249480280276,-0.042251327974660344
9.000000000000451,0.096243074053251,-0.04221651572802748
9.20000000000034,0.09857209564594671,-0.042043484365299304
9.40000000000023,0.1008086489617325,-0.04175443691994143
9.600000000000119,0.10304872729227876,-0.041371724931631375
9.800000000000008,0.10539125651115287,-0.04091433877384268
10.000999999999896,0.1078932000717383,-0.040382766820746964
10.200999999999786,0.11055217180278072,-0.039776126782613094
10.400999999999675,0.1127882817983556,-0.03901829333431433
10.600999999999564,0.11470030398256252,-0.038116785839884315
10.800999999999453,0.1166508388658556,-0.03714288894537493
11.000999999999342,0.11897153110264404,-0.036113240692369965
11.200999999999231,0.12133045531992377,-0.034985700092247975
11.40099999999912,0.12358818584138694,-0.033809760296643655
11.60099999999901,0.1259722884557478,-0.03258984932345957
11.800999999998899,0.12830293132422374,-0.031273522098896896
12.000999999998788,0.13026189932279106,-0.029839252768109746
12.200999999998677,0.13215698243660315,-0.028297411586106238
12.400999999998566,0.1341954061257807,-0.026696948743826117
12.600999999998455,0.13616858989986094,-0.025013998990272596
12.800999999998345,0.13823732316573212,-0.023293771090555873
13.000999999998234,0.14054088685550914,-0.021516058666161547
13.200999999998123,0.14249513175197817,-0.01963204296316539
13.400999999998012,0.14419965130675536,-0.017643527603176366
13.600999999997901,0.14589972051023745,-0.015593791934333322
13.80099999999779,0.1476229504688863,-0.013500176212918177
14.00099999999768,0.14947575096389398,-0.01134253531556088
14.200999999997569,0.15144076441160176,-0.008825905277554185
14.400999999997458,0.1530223944135215,-0.005961489862825454
14.600999999997347,0.15454814723472576,-0.0029868875260925755
14.800999999997236,0.15591921071494746,0.00036042207528170914
15.000999999997125,0.15746403969317638,0.0035467208600036943
15.200999999997014,0.15907067495131805,0.006845334128554177
15.400999999996904,0.16060108994515596,0.01071232886860436
15.600999999996793,0.16241736524677447,0.0144489327938506
15.800999999996682,0.16380782173863007,0.01922156322426094
16.000999999996573,0.16541457988513236,0.023424932233729004
16.200999999996817,0.16684794134535216,0.028211886526346104
16.40099999999706,0.16841452620433323,0.03282331754963377
16.600999999997306,0.16981436880564052,0.038100868912620454
16.80099999999755,0.17141885065577936,0.043420296368263694
17.000999999997795,0.17288414206935485,0.04956506768114525
17.20099999999804,0.17401213277109506,0.056218591071207295
17.400999999998284,0.17554400066534812,0.06182665521503106
17.60099999999853,0.1766941898963489,0.0686078159348569
17.800999999998773,0.17904229109321046,0.07598229834967601
18.000999999999017,0.18133563461892255,0.08357501449868883
18.20099999999926,0.1837245926665448,0.09133235238126329
18.400999999999506,0.18707778070101885,0.09869282800656891
18.60099999999975,0.18951448451827485,0.10683318752570932
18.799999999999994,0.1932701399880674,0.11511231694298411
19.000000000000238,0.19680281357186744,0.12360855590423514
19.200000000000482,0.19924424934430834,0.13044860193412275
19.400000000000727,0.20165592336908778,0.13828724499814374
19.60000000000097,0.20524836355470394,0.14690230282896471
19.800000000001216,0.209026542288552,0.1557526096140432
20.00000000000146,0.2123329045457305,0.16482457306725148
