Time (s),X (m),Y (m)
0.001,0.0014505791105779379,-8.989899140956135e-05
0.20000000000000015,0.00046584199109947,7.445153288957876e-05
0.4000000000000003,0.007985278015645466,-0.0034853585711217623
0.6000000000000004,0.011656018662591036,-0.004651570296244577
0.8000000000000006,0.0057777473364837365,-0.0037295386578195876
1.0000000000000007,0.012511707779125043,-0.00310413691375332
1.2009999999999785,0.023946652263163944,-0.010363796526505114
1.4009999999999565,0.032477008157018684,-0.015218707778571542
1.6009999999999345,0.05489849012567465,-0.023922341096389754
1.8009999999999124,0.07560827166296112,-0.02808352618223092
2.0009999999998906,0.10023233675868369,-0.04926563588429621
2.2009999999998686,0.12317255525886214,-0.06808235484017207
2.4009999999998466,0.14068180060237837,-0.07641541449841523
2.6009999999998246,0.16151854832234266,-0.09585369120007707
2.8009999999998025,0.18355214215085203,-0.12429374237066947
3.0009999999997805,0.19878377392619534,-0.13863857895491588
3.2009999999997585,0.1985027886713537,-0.15920292275183734
3.4009999999997365,0.18288872007554613,-0.17929414543049288
3.6009999999997144,0.16865352230356626,-0.19835488265890924
3.8009999999996924,0.15122308492316544,-0.22483506119181368
4.000999999999671,0.13333570838709427,-0.24584795375462926
4.200999999999738,0.11414756578647411,-0.2681529096972515
4.400999999999804,0.09201420650009774,-0.3017321262992379
4.600999999999871,0.07179641193983757,-0.33398315220497315
4.800999999999938,0.05326738416665013,-0.35758328957705415
5.000000000000004,0.0367711164541555,-0.3904093528429186
5.200000000000071,0.02127512011383471,-0.41924311307284995
5.400000000000138,-0.00240975883715998,-0.46008144382153465
5.600000000000205,-0.02769112346379375,-0.4990163321195426
5.800000000000272,-0.051456926294484596,-0.5402819707790122
6.000000000000338,-0.08439177141855661,-0.5902808864021216
6.200000000000405,-0.11382272708840231,-0.6363851541792359
6.400000000000472,-0.13381256863222246,-0.6727402826215322
6.600000000000539,-0.16736811971790183,-0.7000859461080454
6.800000000000606,-0.20650488834031663,-0.7302990501095086
7.000000000000672,-0.23984921152149127,-0.7608003679561368
7.200000000000739,-0.27327603124794175,-0.7907118530916128
7.400000000000806,-0.3081849100459491,-0.81587404643041
7.600000000000873,-0.3452560621669293,-0.8336271427372085
7.8000000000009395,-0.37076469825606084,-0.8455029942617747
8.000000000001005,-0.4007282763817616,-0.8517136850126029
8.200000000000895,-0.43095208744995867,-0.8493082984396596
8.400000000000784,-0.4616533607954794,-0.8419676501783924
8.600000000000673,-0.5011063685914606,-0.826251576260204
8.800000000000562,-0.5389406363761957,-0.806346952971663
9.000000000000451,-0.5884893541405761,-0.7793439047055322
9.20000000000034,-0.6383262432358099,-0.750023872531182
9.40000000000023,-0.6859148589298033,-0.7171665078250572
9.600000000000119,-0.7350337002755518,-0.6850545027006744
9.800000000000008,-0.7894041278051748,-0.6475290526711817
10.000999999999896,-0.8514333492278884,-0.604740978892341
10.200999999999786,-0.9054914025637825,-0.5685248726983919
10.400999999999675,-0.9628192580802538,-0.5263274765483702
10.600999999999564,-1.019733815634224,-0.4707359700292203
10.800999999999453,-1.060534253499027,-0.41990021942865974
11.000999999999342,-1.0874714338287914,-0.3738507298874073
11.200999999999231,-1.1026603143341207,-0.3568702930085193
11.40099999999912,-1.1122598177538654,-0.32770380291159595
11.60099999999901,-1.1160601450158272,-0.2938931547170308
11.800999999998899,-1.1158087660352123,-0.2576985838976826
12.000999999998788,-1.1092881897473097,-0.22045377024467247
12.200999999998677,-1.0984114948880908,-0.182179671492359
12.400999999998566,-1.0806197297391138,-0.13969968892166443
12.600999999998455,-1.0570172423475979,-0.09093259238093593
12.800999999998345,-1.0317746754296335,-0.03786499440466669
13.000999999998234,-0.9998976313617421,0.020048895868844254
13.200999999998123,-0.9628699527251433,0.0733140471216977
13.400999999998012,-0.9211970500617762,0.11691485393227508
13.600999999997901,-0.8721349961194774,0.13391959552254085
13.80099999999779,-0.817445783824819,0.12928133148411688
14.00099999999768,-0.7653085220548708,0.11339068764979418
14.200999999997569,-0.7202485538599191,0.0905080209217353
14.400999999997458,-0.6753467342422987,0.0657908566923043
14.600999999997347,-0.625333901904771,0.036132505361847395
14.800999999997236,-0.5785682017104791,0.005767938251657759
15.000999999997125,-0.535734453796588,-0.022063802230967013
15.200999999997014,-0.4914001049490624,-0.06062980597740272
15.400999999996904,-0.4593087836851141,-0.10748388091342763
15.600999999996793,-0.4480020481224991,-0.14352502786324428
15.800999999996682,-0.451243879422363,-0.18872880771609546
16.000999999996573,-0.46437605765826095,-0.2287488962177278
16.200999999996817,-0.49104500546153584,-0.28066370452902
16.40099999999706,-0.528435852530618,-0.3397045587210347
16.600999999997306,-0.5661558022344768,-0.3987912129364736
16.80099999999755,-0.5904627939527861,-0.4501259524395794
17.000999999997795,-0.618471181081421,-0.4958743331740896
17.20099999999804,-0.6414278053130541,-0.5328389242930586
17.400999999998284,-0.6747491716702381,-0.5576102258582809
17.60099999999853,-0.7120687278557313,-0.5747324964711227
17.800999999998773,-0.7583967847003132,-0.5844854853793123
18.000999999999017,-0.8103517160418676,-0.5719719251011328
18.20099999999926,-0.8588389819050253,-0.5508210187247757
18.400999999999506,-0.9093992043908317,-0.522989383756621
18.60099999999975,-0.954786238198644,-0.49789368626932073
18.799999999999994,-0.998837344766237,-0.47236535162923815
19.000000000000238,-1.0404973612419794,-0.45047298728232066
19.200000000000482,-1.0783980039712784,-0.42292118364626613
19.400000000000727,-1.1013149965514761,-0.379630654922121
19.60000000000097,-1.1048850170108335,-0.3240083492319352
19.800000000001216,-1.090554279089567,-0.27105334996890956
20.00000000000146,-1.0533176070602563,-0.21971261155710603
