Time (s),X (m),Y (m)
0.001,7.024362446948994e-05,-0.0009692696795465074
0.20000000000000015,0.001026602205594883,0.00027438931819706634
0.4000000000000003,0.0027621132530601163,0.000910359404089661
0.6000000000000004,0.0067363588175956704,0.0015510525604659356
0.8000000000000006,0.012669583559960547,0.005025228041407161
1.0000000000000007,0.016851524533099363,0.007752788740518892
1.2009999999999785,0.02579175199931277,0.013206996593795253
1.4009999999999565,0.03540734488759508,0.021659797969291232
1.6009999999999345,0.045185923905307505,0.023112422644388175
1.8009999999999124,0.052009023906537166,0.018178601233104115
2.0009999999998906,0.056627468573045306,0.016960631094340275
2.2009999999998686,0.061856031407597795,0.013236782956507175
2.4009999999998466,0.06981090398118256,0.006404001877957428
2.6009999999998246,0.07844464980787753,0.0036758628794629307
2.8009999999998025,0.08481721099595252,0.0003475136978323095
3.0009999999997805,0.09764804387915155,0.008150032023218822
3.2009999999997585,0.10931087373204086,0.01933599472714298
3.4009999999997365,0.1150691277952794,0.0169055802321506
3.6009999999997144,0.12406157466270389,0.01774962346960757
3.8009999999996924,0.13125615640921448,0.012738033909367112
4.000999999999671,0.14329880481026527,0.0137072790711817
4.200999999999738,0.15406016661766925,0.013489838051095063
4.400999999999804,0.16975070429309985,0.01800937605046517
4.600999999999871,0.1835204632967438,0.0197111031750147
4.800999999999938,0.1953830614123137,0.021845992732114322
5.000000000000004,0.20418981169204778,0.0214426128172614
5.200000000000071,0.21726892200541842,0.02523444091804354
5.400000000000138,0.23563921133772683,0.03055268656485754
5.600000000000205,0.2528923243408292,0.04068498661403042
5.800000000000272,0.2698197547938156,0.046448265887369375
6.000000000000338,0.29141758239909943,0.052385429250006124
6.200000000000405,0.3068907347560899,0.053338599212335365
6.400000000000472,0.32475414948666875,0.057527237552367966
6.600000000000539,0.3415641354724543,0.061590036880396166
6.800000000000606,0.35668768558754194,0.059075645244203424
7.000000000000672,0.37729536529238383,0.06247278755998193
7.200000000000739,0.39804903678474585,0.06831369099676476
7.400000000000806,0.41402941207557575,0.07007676529300508
7.600000000000873,0.430987019432596,0.07842357019797255
7.8000000000009395,0.4469226852745044,0.08145954571111913
8.000000000001005,0.4610425713943409,0.08884654523332945
8.200000000000895,0.477104554619535,0.09662918128491318
8.400000000000784,0.49544625842417606,0.10645912782421187
8.600000000000673,0.5086640027204746,0.10899283324078747
8.800000000000562,0.5264801151503693,0.1161687889402837
9.000000000000451,0.5455883751186489,0.12384037449487018
9.20000000000034,0.563842076964905,0.13125668822779835
9.40000000000023,0.5803551672432266,0.13354606851950027
9.600000000000119,0.6014461615596647,0.13817936658353583
9.800000000000008,0.6230473064998081,0.14539601549427386
10.000999999999896,0.6455245074318834,0.1576168133751139
10.200999999999786,0.6656906029225909,0.16263536411305735
10.400999999999675,0.6846741878148362,0.16589693757240656
10.600999999999564,0.7021977127753602,0.17255911603167748
10.800999999999453,0.7211074948654194,0.17581071016771055
11.000999999999342,0.737170116099105,0.18109197618020495
11.200999999999231,0.7532030368102371,0.1848682197542734
11.40099999999912,0.7727402566625654,0.19079219929260147
11.60099999999901,0.7934300833226808,0.1974034833053816
11.800999999998899,0.8177296232307665,0.2054093432397885
12.000999999998788,0.8449471761386184,0.22099444053176862
12.200999999998677,0.8666776501017756,0.22734840855828894
12.400999999998566,0.8864176800701943,0.23155786882090543
12.600999999998455,0.90475801226928,0.2377038219009994
12.800999999998345,0.9266360601333794,0.247699520615455
13.000999999998234,0.9466799972478084,0.257577201559104
13.200999999998123,0.9693283610783806,0.2683865785226522
13.400999999998012,0.9942827678709898,0.2791165153829827
13.600999999997901,1.018739621443061,0.2863597722543954
13.80099999999779,1.041777915572114,0.29776894521411434
14.00099999999768,1.0611541861372717,0.3067393408592362
14.200999999997569,1.0807984815434073,0.3122234793509364
14.400999999997458,1.099391476917682,0.31630603450313555
14.600999999997347,1.1153115078942928,0.323902312504593
14.800999999997236,1.1328770428970458,0.33847240301903153
15.000999999997125,1.149247526519134,0.34943944817364897
15.200999999997014,1.1679506022108594,0.3637119245861143
15.400999999996904,1.1846679818573687,0.3789287611211229
15.600999999996793,1.2054237294825558,0.3947813974999116
15.800999999996682,1.2257108341629457,0.412826624240124
16.000999999996573,1.2428996048623895,0.4220686939557874
16.200999999996817,1.2593232407760138,0.4349607504334534
16.40099999999706,1.2771750734765936,0.43447731661197897
16.600999999997306,1.2922635310999384,0.4345328778263368
16.80099999999755,1.3085033697644852,0.447204433579539
17.000999999997795,1.3261341520673164,0.45613353675737794
17.20099999999804,1.3421027442273952,0.4572307135810481
17.400999999998284,1.3573443490873713,0.4654999148257368
17.60099999999853,1.3747812085059603,0.4742837413873353
17.800999999998773,1.3872999377749529,0.4833248753729899
18.000999999999017,1.4035919172700901,0.4975477767812704
18.20099999999926,1.4172491412632642,0.5115507657422248
18.400999999999506,1.4326488129129304,0.519094343555022
18.60099999999975,1.447657987742108,0.5209251895626071
18.799999999999994,1.4650053060611938,0.5361266352740897
19.000000000000238,1.4872126409021529,0.554605701514351
19.200000000000482,1.5045117699251966,0.5619371906930556
19.400000000000727,1.5217605360103537,0.5737384782691541
19.60000000000097,1.5419686508378312,0.5827159382039662
19.800000000001216,1.5611957145580362,0.5919836965107135
20.00000000000146,1.5815956211030022,0.6071028385420639
