Time (s),X (m),Y (m)
0.001,0.0014388337585722719,-0.0001791137972120003
0.20000000000000015,0.0008763985887615096,-7.995128434104879e-05
0.4000000000000003,0.001402482365197177,-0.00012848566618632918
0.6000000000000004,0.0020143664406550897,-0.0002923646434417357
0.8000000000000006,0.003058013449920103,-0.0007173464825563074
1.0000000000000007,0.004211560913868278,-0.0012130589606019022
1.2009999999999785,0.005195218896277707,-0.0016197851193287824
1.4009999999999565,0.006279098627698924,-0.0020082101771751225
1.6009999999999345,0.007437027029051749,-0.002404308956605694
1.8009999999999124,0.008683593638344306,-0.002821625680777069
2.0009999999998906,0.009998455129276388,-0.003249469263357702
2.2009999999998686,0.011382006848223396,-0.003683458632684539
2.4009999999998466,0.012846171862308346,-0.00412135555537244
2.6009999999998246,0.014374523206122035,-0.004551115988675875
2.8009999999998025,0.01599963663081742,-0.005004100959692637
3.0009999999997805,0.017689517807840362,-0.005456837387888183
3.2009999999997585,0.019434039395950845,-0.005903659999015129
3.4009999999997365,0.0212380886120833,-0.006350924793966119
3.6009999999997144,0.023109585090024077,-0.0067457335491529
3.8009999999996924,0.025074802636189227,-0.007146585702244721
4.000999999999671,0.02715779718324724,-0.00751167815576028
4.200999999999738,0.029454914149994404,-0.00788506746044703
4.400999999999804,0.031708674041138224,-0.008244571825543905
4.600999999999871,0.0340046836790019,-0.008552932376421435
4.800999999999938,0.036316470863331125,-0.008843222016879086
5.000000000000004,0.03877089335521644,-0.009129017915432469
5.200000000000071,0.04139295799114148,-0.009426726579626734
5.400000000000138,0.04393444301743452,-0.009660783983425325
5.600000000000205,0.0463791940329154,-0.009840436632914226
5.800000000000272,0.048877193396067026,-0.009997741700207842
6.000000000000338,0.05141642553265132,-0.010137256332599855
6.200000000000405,0.05405564696633625,-0.010239917939693744
6.400000000000472,0.05676125362585176,-0.01030696179967881
6.600000000000539,0.05952828707870947,-0.010340286542114236
6.800000000000606,0.06235716768665937,-0.010339534576751803
7.000000000000672,0.06515812633877878,-0.010301179491209725
7.200000000000739,0.06777102734102744,-0.010157528775388176
7.400000000000806,0.0704511262740638,-0.009978277170814964
7.600000000000873,0.07319821813077032,-0.009760242079563526
7.8000000000009395,0.07602979767628724,-0.009503233910592882
8.000000000001005,0.07895246293774165,-0.009199077839751576
8.200000000000895,0.08167445516883069,-0.00881061620903419
8.400000000000784,0.08438638111965396,-0.008324277593786502
8.600000000000673,0.08716329755597352,-0.007771373079822379
8.800000000000562,0.09006259567580151,-0.007154825303809776
9.000000000000451,0.09306340319375765,-0.006452053661342292
9.20000000000034,0.09615491287734598,-0.00565928794587158
9.40000000000023,0.09933640125849164,-0.0047698043508305095
9.600000000000119,0.10251048584112099,-0.0038045759849809953
9.800000000000008,0.10581476681028075,-0.002475356515508493
10.000999999999896,0.10907948258702843,-0.001057734863572176
10.200999999999786,0.11243775398005867,0.00048434687420257445
10.400999999999675,0.11576884155567199,0.0021235256850670402
10.600999999999564,0.11918951015603377,0.0039314170582812145
10.800999999999453,0.12253175671189034,0.005603914008878224
11.000999999999342,0.12604187372724104,0.0076137815287577555
11.200999999999231,0.12963023256717068,0.009739375320103168
11.40099999999912,0.13318956357482714,0.012005705748795137
11.60099999999901,0.13688201105453887,0.01459390827256449
11.800999999998899,0.14055379452610092,0.017339200201403605
12.000999999998788,0.14432818048918528,0.02026987573615292
12.200999999998677,0.14809105166129374,0.023272458783195282
12.400999999998566,0.1516041791118592,0.025717224112283308
12.600999999998455,0.15519652908766104,0.02844479074077515
12.800999999998345,0.158758081493373,0.03125336403032842
13.000999999998234,0.16246452675927925,0.03428231803353437
13.200999999998123,0.16608737620722294,0.03706307777186293
13.400999999998012,0.1692810555582855,0.03970044356172447
13.600999999997901,0.1726718914791179,0.04249433813902977
13.80099999999779,0.1760254101742027,0.04532919077066039
14.00099999999768,0.17968470601862258,0.048925451344066076
14.200999999997569,0.18396816983437714,0.05314598012364063
14.400999999997458,0.1876518221135378,0.05735749461606689
14.600999999997347,0.19146313783865163,0.061854241638022486
14.800999999997236,0.19529994415034535,0.06644153954472183
15.000999999997125,0.19894803677995826,0.07166089522218219
15.200999999997014,0.20300344445515367,0.07631857868179255
15.400999999996904,0.2071416627717392,0.08164074137481117
15.600999999996793,0.21152158923255798,0.08724660459378733
15.800999999996682,0.21588703888361122,0.09399408373977185
16.000999999996573,0.22032802787730152,0.10028854397412172
16.200999999996817,0.22441251978016868,0.10522136594088304
16.40099999999706,0.2289933079151917,0.11187587913230188
16.600999999997306,0.2334320504080026,0.11789817828934863
16.80099999999755,0.23804210302148657,0.12487241560937544
17.000999999997795,0.24313356699868124,0.13167942930564258
17.20099999999804,0.24766256472180184,0.13919299823995998
17.400999999998284,0.25230491695912727,0.145889551146911
17.60099999999853,0.25684632968152243,0.15368840703366646
17.800999999998773,0.26137143926491646,0.16100544994415497
18.000999999999017,0.26688717039440735,0.16903329750965615
18.20099999999926,0.2718290659804402,0.17648126019123658
18.400999999999506,0.2772482946084442,0.1858063312836706
18.60099999999975,0.282274335066552,0.19407175064924553
18.799999999999994,0.2862848208690114,0.2007950810618255
19.000000000000238,0.2903671587707838,0.20771113137647296
19.200000000000482,0.29458153002739806,0.21640293656426013
19.400000000000727,0.2993776512213283,0.22528867512164907
19.60000000000097,0.3039657179070455,0.23465054537076405
19.800000000001216,0.3085643647649991,0.24367216255698243
20.00000000000146,0.31295209919161643,0.2532637702289063
