Time (s),X (m),Y (m)
0.001,-0.00030633420604509907,0.0007293631428462583
0.20000000000000015,0.0016192263059497016,-0.0010043481333015436
0.4000000000000003,0.0031988779650295985,-0.0018690261510786934
0.6000000000000004,0.005321752412470947,-0.003393168970307741
0.8000000000000006,0.015237797087008832,-0.006151544227185839
1.0000000000000007,0.026465211070146637,-0.016274670827061678
1.2009999999999785,0.031229476275973424,-0.019229113103254394
1.4009999999999565,0.040381182967005574,-0.026604004818082783
1.6009999999999345,0.05255823652281497,-0.03548068787810517
1.8009999999999124,0.06747536485272387,-0.044434998613372495
2.0009999999998906,0.08534380403896172,-0.05520747457718309
2.2009999999998686,0.11152906432100101,-0.06234597737813885
2.4009999999998466,0.12739754102784528,-0.06758535900475718
2.6009999999998246,0.1453266746188437,-0.0706021489493381
2.8009999999998025,0.1680558723504716,-0.07297304307170524
3.0009999999997805,0.19076226850690742,-0.073904768320798
3.2009999999997585,0.22038328980251062,-0.07572854924971444
3.4009999999997365,0.2420431279726419,-0.07799774465363872
3.6009999999997144,0.25945454437064375,-0.08514457347576054
3.8009999999996924,0.279816970287696,-0.09454055253025719
4.000999999999671,0.30464546740977566,-0.10157140441250158
4.200999999999738,0.31010464920644465,-0.1020487124942787
4.400999999999804,0.32160883965521614,-0.10222447682237931
4.600999999999871,0.3437888440461856,-0.1007450970776724
4.800999999999938,0.3645232160914307,-0.10124289643659792
5.000000000000004,0.39200881520423236,-0.100134650775621
5.200000000000071,0.41904967735989007,-0.0976581628417048
5.400000000000138,0.43531175571378716,-0.09166744497819239
5.600000000000205,0.46011025069826006,-0.08930107686025966
5.800000000000272,0.48329875790691135,-0.08927394845718647
6.000000000000338,0.5046145717836246,-0.0937323597407736
6.200000000000405,0.5247303980532644,-0.09234913409717457
6.400000000000472,0.5526815334863765,-0.09387660207780495
6.600000000000539,0.5888632890280374,-0.10073001641473651
6.800000000000606,0.6223339866463453,-0.10838855077324279
7.000000000000672,0.6560918732549886,-0.111677281156291
7.200000000000739,0.6880945312118123,-0.11234078007087527
7.400000000000806,0.726622893279803,-0.1127669882761336
7.600000000000873,0.7539327025317484,-0.10542369378834651
7.8000000000009395,0.7802398541986797,-0.10600480939784618
8.000000000001005,0.8084671777646376,-0.10181666725684464
8.200000000000895,0.8383159993328803,-0.10360521324168798
8.400000000000784,0.8630257230102804,-0.11567996182573576
8.600000000000673,0.8736280401784827,-0.1384009019078479
8.800000000000562,0.8790322703397883,-0.15518207181994081
9.000000000000451,0.8848997808398097,-0.18250706422125865
9.20000000000034,0.8899753204436378,-0.20746164746246223
9.40000000000023,0.8936036887816867,-0.2340341078284861
9.600000000000119,0.8927727248280034,-0.26539536426033283
9.800000000000008,0.8971555555757721,-0.29438819114299125
10.000999999999896,0.8942218325172736,-0.3341411605406311
10.200999999999786,0.885040331583729,-0.3719861342672143
10.400999999999675,0.883832128063234,-0.40068176482877155
10.600999999999564,0.8878172835559296,-0.4187768787488457
10.800999999999453,0.8849115834421593,-0.44618068063544886
11.000999999999342,0.8787626073759114,-0.4733548558824725
11.200999999999231,0.8738010462205049,-0.5059638948053534
11.40099999999912,0.8632062487465747,-0.5526898383005071
11.60099999999901,0.8513217867931834,-0.5842526911168392
11.800999999998899,0.8492222122386714,-0.6169663271107308
12.000999999998788,0.8474624113095333,-0.6592804428486737
12.200999999998677,0.8479534591675327,-0.6911123857184175
12.400999999998566,0.8412229070537526,-0.7309594992547013
12.600999999998455,0.8211200164698939,-0.7799282912187231
12.800999999998345,0.8000804351022722,-0.8276448121184977
13.000999999998234,0.7858680570641577,-0.8762758836587787
13.200999999998123,0.7746955592930151,-0.9227467276901545
13.400999999998012,0.7609574969634966,-0.9638727251542195
13.600999999997901,0.7659572457938231,-0.9969719469790983
13.80099999999779,0.7631180002662378,-1.028777224645004
14.00099999999768,0.7566689410046015,-1.0664556891274486
14.200999999997569,0.7513770190445329,-1.1004953906030015
14.400999999997458,0.7302861716736763,-1.1291335022041586
14.600999999997347,0.7074551330105765,-1.152020149435774
14.800999999997236,0.6679592998382005,-1.1647628198878714
15.000999999997125,0.6136849434093401,-1.1663394937428608
15.200999999997014,0.5742309855855993,-1.1680608376188382
15.400999999996904,0.5431334643991735,-1.1679304716683565
15.600999999996793,0.5091947802661303,-1.1623017187097529
15.800999999996682,0.4919899840902445,-1.1608405784016855
16.000999999996573,0.46092762091814254,-1.1637628043191237
16.200999999996817,0.42581792324022094,-1.1673464653022632
16.40099999999706,0.3967026144122117,-1.1764034798406005
16.600999999997306,0.35386419024110993,-1.1777771265634027
16.80099999999755,0.30162661879241437,-1.1672269003947322
17.000999999997795,0.2527769084208021,-1.1588003879097104
17.20099999999804,0.2114782362212425,-1.1628729146787653
17.400999999998284,0.1739258222897024,-1.1618875798110555
17.60099999999853,0.13642167142234293,-1.1607358102558856
17.800999999998773,0.10411365526895777,-1.1510299763897303
18.000999999999017,0.07807731996354897,-1.1273233021802493
18.20099999999926,0.05901080298062204,-1.0794314201311375
18.400999999999506,0.05276645809561787,-1.037265979332858
18.60099999999975,0.05069880490702499,-0.9947522899572369
18.799999999999994,0.05279885035746641,-0.9536543064775101
19.000000000000238,0.06192729706288439,-0.9084121627256074
19.200000000000482,0.07199397370095964,-0.8627629065561218
19.400000000000727,0.091458379589798,-0.8203153987056351
19.60000000000097,0.10022540927276195,-0.7825203193478956
19.800000000001216,0.11135478275547935,-0.7517308513107267
20.00000000000146,0.12345038015042184,-0.7166947268395905
