Time (s),X (m),Y (m)
0.001,-0.00030633420604510037,-0.000729363142846258
0.20000000000000015,0.0028540421019823564,0.0013388604429291268
0.4000000000000003,0.008486212487341004,0.002142518442036337
0.6000000000000004,0.01962425985335295,0.006450152851763507
0.8000000000000006,0.02661227710878794,0.006414357298390483
1.0000000000000007,0.029463114918012394,0.0006737895127434346
1.2009999999999785,0.031462251697227134,-0.0039131312444917864
1.4009999999999565,0.03788508275660725,-0.003167008022002229
1.6009999999999345,0.049526642888316194,0.0006519085661705127
1.8009999999999124,0.06097244473180304,0.016044953369922673
2.0009999999998906,0.07148192625456698,0.034712618928766634
2.2009999999998686,0.08794576654158813,0.05675747344224187
2.4009999999998466,0.10729099521102148,0.08608555960168071
2.6009999999998246,0.1307359869794703,0.1210325203365333
2.8009999999998025,0.15421569465259316,0.1476782472789111
3.0009999999997805,0.17373231360969651,0.1634313116441472
3.2009999999997585,0.18651491464716632,0.18637529479502113
3.4009999999997365,0.19333981049148555,0.208763997687523
3.6009999999997144,0.19761729706259148,0.2325232261875545
3.8009999999996924,0.20187881311279773,0.26037053557060086
4.000999999999671,0.21336898668737558,0.2822534685120992
4.200999999999738,0.23330000064904233,0.3019580963267828
4.400999999999804,0.25604872001446777,0.33185238056821625
4.600999999999871,0.2709681521073112,0.36037172637087844
4.800999999999938,0.2797924244309893,0.3757189207954451
5.000000000000004,0.28673627845804234,0.39272042402449536
5.200000000000071,0.2939434229108339,0.4114987793056622
5.400000000000138,0.31241548791699547,0.4219908226193881
5.600000000000205,0.34239312043549364,0.4394811190404175
5.800000000000272,0.37743132834951193,0.4533673134353048
6.000000000000338,0.4121242044469078,0.46893407210292154
6.200000000000405,0.45052966324295685,0.4914370009895878
6.400000000000472,0.4934296948887797,0.5260610923273862
6.600000000000539,0.5356506316801237,0.5556575139065524
6.800000000000606,0.5680406452139998,0.5868743402550191
7.000000000000672,0.5905447630608565,0.6210576083167773
7.200000000000739,0.6113733317267496,0.6559769931048879
7.400000000000806,0.6244242516389035,0.7029846989308655
7.600000000000873,0.6356361805836949,0.7495677268442942
7.8000000000009395,0.649770794441157,0.7866588453265891
8.000000000001005,0.6695909823401108,0.8156751313987853
8.200000000000895,0.6980183973403545,0.8264036591127834
8.400000000000784,0.7281970180952015,0.8413498338450447
8.600000000000673,0.7573751106070816,0.856579391388475
8.800000000000562,0.7806652403628979,0.8910557064367951
9.000000000000451,0.8035399440248551,0.9257940646200299
9.20000000000034,0.8296862592756583,0.9547028796530999
9.40000000000023,0.8489618837566637,0.992270258498783
9.600000000000119,0.8672151950633974,1.0195628932092238
9.800000000000008,0.8928452476589773,1.0470266500212049
10.000999999999896,0.9333193607800252,1.0726034641626205
10.200999999999786,0.9758749875893603,1.095560303615625
10.400999999999675,1.0220276093893994,1.1226019623189711
10.600999999999564,1.0670433624338327,1.1539592635371785
10.800999999999453,1.1120843321417082,1.1931006094108625
11.000999999999342,1.152287947994657,1.2333474016118335
11.200999999999231,1.1842108961511042,1.2805346650049452
11.40099999999912,1.2163158402109475,1.3336445305739237
11.60099999999901,1.2544581048372632,1.3815552696510014
11.800999999998899,1.2856180041846603,1.4300766428954037
12.000999999998788,1.3086924136453502,1.4818360618079305
12.200999999998677,1.335380941621824,1.5333709703439333
12.400999999998566,1.3551206155783582,1.591563102366766
12.600999999998455,1.3631348459109154,1.651054031796887
12.800999999998345,1.375169254789767,1.7062923894438082
13.000999999998234,1.3918955518943694,1.7519054692901872
13.200999999998123,1.4053273859301292,1.7978364604180326
13.400999999998012,1.4072445052462514,1.8405297880044622
13.600999999997901,1.4013130010926291,1.8848470979899823
13.80099999999779,1.3897447133809846,1.9312343091145738
14.00099999999768,1.3707542059679014,1.9811289297441603
14.200999999997569,1.3445963381707107,2.0422294848708016
14.400999999997458,1.312958153729909,2.10914542778337
14.600999999997347,1.284702613488735,2.168654345172065
14.800999999997236,1.25102353727059,2.2190621056517963
15.000999999997125,1.2206625446500996,2.264683090445268
15.200999999997014,1.1773792575612754,2.306589924362888
15.400999999996904,1.1303643026600274,2.3330091330048064
15.600999999996793,1.071684598654912,2.349912193216095
15.800999999996682,1.0179168874378193,2.366848401630085
16.000999999996573,0.9574082492948857,2.381848422379941
16.200999999996817,0.8873535642717041,2.404718123827251
16.40099999999706,0.8227570324613707,2.433504843739898
16.600999999997306,0.7676471410991916,2.469234440320179
16.80099999999755,0.7192970633846486,2.522468816766813
17.000999999997795,0.6731454171146303,2.5796101466629064
17.20099999999804,0.6273581012164305,2.6319015207034324
17.400999999998284,0.5765021838928631,2.676436268751158
17.60099999999853,0.5246118399447044,2.709596098790265
17.800999999998773,0.47448462788567364,2.7286901956115672
18.000999999999017,0.41542348890405023,2.7383038425903927
18.20099999999926,0.3648729132584734,2.7435242533592863
18.400999999999506,0.3151620344192933,2.756183857542475
18.60099999999975,0.2583862646967325,2.7666130892586818
18.799999999999994,0.20642590218059767,2.778266192953074
19.000000000000238,0.1496394474238588,2.79179437643797
19.200000000000482,0.09429567333914536,2.8020369238682266
19.400000000000727,0.022418457224643088,2.8101346336901702
19.60000000000097,-0.044332739038425606,2.811128076395857
19.800000000001216,-0.11472056484977676,2.7984916457343676
20.00000000000146,-0.18888160768435389,2.7870189140742867
