Time (s),X (m),Y (m)
0.001,-0.00023999057263828476,0.0007901558823345071
0.20000000000000015,0.0009425040717036535,-0.00043229632085562753
0.4000000000000003,0.0012357004679899328,-0.00016640053353922165
0.6000000000000004,0.0017706198986558491,-0.00039774400863475096
0.8000000000000006,0.002540915814917175,-0.0009845655668651045
1.0000000000000007,0.003159114220425157,-0.0012576958663046698
1.2009999999999785,0.00383407284471855,-0.0016417902173053456
1.4009999999999565,0.004555286518389915,-0.0021170781073612884
1.6009999999999345,0.005319191773120506,-0.0026773129216251233
1.8009999999999124,0.006106998411287502,-0.003263073741641413
2.0009999999998906,0.006906315416428658,-0.003838638194806049
2.2009999999998686,0.0077245731618028855,-0.00442587501667533
2.4009999999998466,0.008562498562588965,-0.005042864109028746
2.6009999999998246,0.00942131107541291,-0.005694616893807998
2.8009999999998025,0.010302180984871196,-0.006377195270081522
3.0009999999997805,0.011201981812197406,-0.0070836960407507496
3.2009999999997585,0.012119259158896016,-0.007808702308523019
3.4009999999997365,0.013053923575822843,-0.008551285541070878
3.6009999999997144,0.014003603722922444,-0.00931001024828408
3.8009999999996924,0.01496636628195811,-0.010083586936002134
4.000999999999671,0.015941819413719218,-0.010870565986849373
4.200999999999738,0.016930247795278377,-0.011669876735287446
4.400999999999804,0.017931771970990443,-0.012478927136780026
4.600999999999871,0.018946427046259984,-0.013296409947748253
4.800999999999938,0.01997417001982143,-0.014121903083735265
5.000000000000004,0.021024151568118474,-0.014971982566870426
5.200000000000071,0.022077953200065108,-0.015812812186628736
5.400000000000138,0.0231450170538709,-0.016661456459778946
5.600000000000205,0.024225312183422984,-0.01751749407997489
5.800000000000272,0.025318753861147313,-0.018380376435734102
6.000000000000338,0.026425358217235222,-0.01924973913245224
6.200000000000405,0.027544985785447746,-0.020125181780055575
6.400000000000472,0.02867759774036683,-0.021006442379886824
6.600000000000539,0.02982369450796148,-0.021893637667419016
6.800000000000606,0.03098323964247668,-0.02278669791185782
7.000000000000672,0.03215622050099587,-0.023685352543096408
7.200000000000739,0.03334252764949639,-0.024589200194534463
7.400000000000806,0.034542112153969885,-0.02549779804456417
7.600000000000873,0.035755042689584265,-0.02641071429869399
7.8000000000009395,0.036981674129515675,-0.027327805032335856
8.000000000001005,0.038222106764328564,-0.028248973852599384
8.200000000000895,0.03947624776904854,-0.029173974940229552
8.400000000000784,0.04074425905661788,-0.03010256582289775
8.600000000000673,0.04202599218774411,-0.031034578477316967
8.800000000000562,0.04332126431348288,-0.03196975868569586
9.000000000000451,0.044629893989179145,-0.032907768832839426
9.20000000000034,0.04595186934576935,-0.03384835439639424
9.40000000000023,0.04728730154980804,-0.03479127839719837
9.600000000000119,0.04863614708212886,-0.03573616034376134
9.800000000000008,0.04999820823689238,-0.03668269229419861
10.000999999999896,0.05136349475849823,-0.03761858705443336
10.200999999999786,0.05275163775621387,-0.03856770673606608
10.400999999999675,0.05415255117354414,-0.0395176161598522
10.600999999999564,0.05556602003059673,-0.04046815900978095
10.800999999999453,0.05699181853337719,-0.04141908389690979
11.000999999999342,0.058429763733542056,-0.04237009287603159
11.200999999999231,0.05987985542150134,-0.043320880331252254
11.40099999999912,0.06134207452879461,-0.044271264534180246
11.60099999999901,0.0628164104193977,-0.045221192473076474
11.800999999998899,0.06430300158959795,-0.046170217706062826
12.000999999998788,0.06580183265428845,-0.04711795652461626
12.200999999998677,0.06731266921872668,-0.048064172867036
12.400999999998566,0.06887056445511738,-0.049080585435450845
12.600999999998455,0.07041816573334735,-0.05010591674344348
12.800999999998345,0.071994801488528,-0.05111705369805293
13.000999999998234,0.07362705472254434,-0.052149002205838166
13.200999999998123,0.07523983701298205,-0.05315033023678994
13.400999999998012,0.07688971095426403,-0.0542406419949658
13.600999999997901,0.07856410981232267,-0.05531361358742349
13.80099999999779,0.0802924113630711,-0.05639976385187113
14.00099999999768,0.08200935451293544,-0.057510751193326805
14.200999999997569,0.08374793511621706,-0.058618589120735365
14.400999999997458,0.08553530728099096,-0.05973860343691547
14.600999999997347,0.08736951390517002,-0.0608615336081231
14.800999999997236,0.08923306799239668,-0.06197649827968528
15.000999999997125,0.09109240935810325,-0.06307039228330119
15.200999999997014,0.0929317960485687,-0.06414885079842506
15.400999999996904,0.09478798849585006,-0.06521154875356575
15.600999999996793,0.09667103567668694,-0.06626246852554567
15.800999999996682,0.09854780769933313,-0.06729517901213923
16.000999999996573,0.1004748659819813,-0.0683214147812413
16.200999999996817,0.10239378030529486,-0.06932269730655548
16.40099999999706,0.10434730549358814,-0.07031036782069347
16.600999999997306,0.10623480903909033,-0.0712472312736783
16.80099999999755,0.10816456959372021,-0.07219535764654607
17.000999999997795,0.1100874595565113,-0.07311879918335999
17.20099999999804,0.11201070236595131,-0.07402355297298581
17.400999999998284,0.1139336755263478,-0.07487325520590318
17.60099999999853,0.11595278910577818,-0.07575159431147395
17.800999999998773,0.1179177474127156,-0.07656947240111689
18.000999999999017,0.11989030901420998,-0.07737716059594993
18.20099999999926,0.12184686117465682,-0.07816157721204912
18.400999999999506,0.12374510369322253,-0.07890104033713259
18.60099999999975,0.12576116025161035,-0.0796472544962674
18.799999999999994,0.12778614003193808,-0.08037056782820626
19.000000000000238,0.12977521166147038,-0.08105089790082616
19.200000000000482,0.13176965346508315,-0.08171505166122903
19.400000000000727,0.13376780306019867,-0.08232453726169356
19.60000000000097,0.13571273490391284,-0.0828873965489497
19.800000000001216,0.13774435708058458,-0.08340343208309572
20.00000000000146,0.13986109578313224,-0.08390237171327515
