Time (s),X (m),Y (m)
0.001,-0.0004702548317818469,0.0005157376242541224
0.20000000000000015,0.0007182141753127321,-6.521345115199165e-05
0.4000000000000003,0.0014950638696142804,-0.0004335333595658248
0.6000000000000004,0.003175035790865816,-0.0014430924186060114
0.8000000000000006,0.006823993297974322,-0.002776330634107084
1.0000000000000007,0.008310695210779576,-0.0040134305270239186
1.2009999999999785,0.010614468374887085,-0.005286716481670278
1.4009999999999565,0.019003360136950136,-0.010624411913597203
1.6009999999999345,0.02334658743350328,-0.012516462980545366
1.8009999999999124,0.02984824211319537,-0.015427416748969981
2.0009999999998906,0.03299305212211502,-0.016095436650603888
2.2009999999998686,0.03598087310372239,-0.018597121458053725
2.4009999999998466,0.03982425594835267,-0.020809977449515356
2.6009999999998246,0.043755551578862094,-0.023199129354995383
2.8009999999998025,0.04746139463969118,-0.024709825469548523
3.0009999999997805,0.05101341761412615,-0.026607525027173597
3.2009999999997585,0.05290441690421161,-0.027773803139550943
3.4009999999997365,0.05728563098464577,-0.030007653824145712
3.6009999999997144,0.06035533835943091,-0.03147674648067748
3.8009999999996924,0.06838528773313146,-0.034854429892277425
4.000999999999671,0.07308104887511477,-0.03668497575305942
4.200999999999738,0.07933792287893424,-0.03886266552594201
4.400999999999804,0.08557429533101273,-0.04045989601587216
4.600999999999871,0.08834085032649827,-0.04122711088959286
4.800999999999938,0.09366267187365063,-0.04151600226352235
5.000000000000004,0.09460654346834248,-0.0415018051389193
5.200000000000071,0.09827569018334144,-0.04276177028688385
5.400000000000138,0.10300256211512243,-0.04351079301996854
5.600000000000205,0.10704028120837979,-0.04315259945509894
5.800000000000272,0.11017723887211334,-0.04322837764953077
6.000000000000338,0.11368317051631767,-0.04231783788296013
6.200000000000405,0.11752904367318898,-0.0432144830272578
6.400000000000472,0.12163756395104951,-0.04388874669756473
6.600000000000539,0.12351389045088154,-0.04419001161702629
6.800000000000606,0.12924705925990895,-0.04351087381968395
7.000000000000672,0.13274827403567213,-0.042286124254283304
7.200000000000739,0.1401740822056299,-0.04183505680578716
7.400000000000806,0.14482215166893575,-0.04033504880901085
7.600000000000873,0.1509786611434699,-0.039302678039528784
7.8000000000009395,0.15513176102126675,-0.0374391438350975
8.000000000001005,0.1578042826026881,-0.03503179451145617
8.200000000000895,0.15988473375157675,-0.032802234871541734
8.400000000000784,0.16507978008407181,-0.0315589559791089
8.600000000000673,0.16850674750612424,-0.028834135340329553
8.800000000000562,0.17657159844131595,-0.026979732640230288
9.000000000000451,0.18191542074793002,-0.024295660186798948
9.20000000000034,0.18597803663009563,-0.02100382806369333
9.40000000000023,0.18922076246629901,-0.017251705627482426
9.600000000000119,0.19216261781299002,-0.013037642434069775
9.800000000000008,0.19619084001179693,-0.00924416348126192
10.000999999999896,0.198456203181915,-0.005182689205444599
10.200999999999786,0.2000005249551818,-0.0023931098478341614
10.400999999999675,0.20295714550288024,0.0017156427641532028
10.600999999999564,0.20588994787767698,0.004841028586838898
10.800999999999453,0.21037605011931154,0.0091990572297062
11.000999999999342,0.21127883790916485,0.013392311184238944
11.200999999999231,0.21713711137221645,0.018117966987428076
11.40099999999912,0.22279615586365759,0.023000678659559425
11.60099999999901,0.22815770831247806,0.028043962717767715
11.800999999998899,0.22844451469782803,0.032635837057723036
12.000999999998788,0.23047462939486718,0.03808486590953042
12.200999999998677,0.2366635358711341,0.043244750222999964
12.400999999998566,0.24489300122089014,0.04879575526110714
12.600999999998455,0.2502599404764593,0.053159971521531825
12.800999999998345,0.2606500267423045,0.0564499242766496
13.000999999998234,0.26665488709700436,0.06180758265365839
13.200999999998123,0.2673789471913802,0.06848752589377131
13.400999999998012,0.27137078364880524,0.07320215158012035
13.600999999997901,0.273541602574684,0.07812427838512088
13.80099999999779,0.2808756472895801,0.08400077290512727
14.00099999999768,0.28432125727246643,0.08964187753996569
14.200999999997569,0.2909057383457688,0.09509610885081976
14.400999999997458,0.29403071276905324,0.10160758879957439
14.600999999997347,0.29838378571270213,0.10713811559831568
14.800999999997236,0.3008390739282246,0.11294676619587168
15.000999999997125,0.305245926409567,0.11848309785359874
15.200999999997014,0.30833432688118645,0.12453370316540108
15.400999999996904,0.30938374696402504,0.1309111268767452
15.600999999996793,0.3128759628338792,0.1369660098995747
15.800999999996682,0.3175430664511031,0.14296315023727635
16.000999999996573,0.3208052023320266,0.14863239241385823
16.200999999996817,0.32353471177091225,0.15505363685868964
16.40099999999706,0.3272948867589537,0.16184789022480772
16.600999999997306,0.33147507781049795,0.1688812269871508
16.80099999999755,0.3355847100634888,0.17432104956560493
17.000999999997795,0.33944735036639034,0.18040588889426556
17.20099999999804,0.3436130138692868,0.18628907306373368
17.400999999998284,0.34746046396590374,0.19339170489280605
17.60099999999853,0.3499474443687867,0.20030117402440106
17.800999999998773,0.3523324249402281,0.2075270689062371
18.000999999999017,0.35553410399165514,0.21329648051501238
18.20099999999926,0.3599306421393544,0.22012868886463205
18.400999999999506,0.3615020071144534,0.22670246605301334
18.60099999999975,0.36686825923322003,0.23263758314263272
18.799999999999994,0.372313671433596,0.2385892342124968
19.000000000000238,0.3767665718373221,0.24572533936890104
19.200000000000482,0.38301167394062885,0.2523496001872554
19.400000000000727,0.3904064256422111,0.2593404237904618
19.60000000000097,0.3938531584151853,0.2654839228672398
19.800000000001216,0.39440149615169523,0.27351202382186257
20.00000000000146,0.39687145110176403,0.2816911897587139
