Time (s),X (m),Y (m)
0.001,-0.0005732996449108882,0.0002669654388657892
0.20000000000000015,0.0012117014113761006,-0.00025567373706363315
0.4000000000000003,0.004287066224499319,-0.0013317946470948541
0.6000000000000004,0.011953609749825731,-0.003631037895742979
0.8000000000000006,0.02353353108261444,-0.006124331469433961
1.0000000000000007,0.02990220592159518,-0.011997746651910111
1.2009999999999785,0.032740734394427366,-0.01457969484427079
1.4009999999999565,0.03551385036266255,-0.013901277349491469
1.6009999999999345,0.04110634227182266,-0.016987990399572012
1.8009999999999124,0.05112473114205498,-0.024342547295150018
2.0009999999998906,0.06322877354862981,-0.032617413112171985
2.2009999999998686,0.07439909564059666,-0.040289248501864154
2.4009999999998466,0.0898012738009813,-0.049960460418055956
2.6009999999998246,0.10204919873431935,-0.05703373217715338
2.8009999999998025,0.11568321661841734,-0.05788600490902624
3.0009999999997805,0.1369784909675168,-0.06991504831275958
3.2009999999997585,0.16297245459379503,-0.07915685956366232
3.4009999999997365,0.17832962086012455,-0.08640184892973325
3.6009999999997144,0.1896957516170746,-0.09044652465822511
3.8009999999996924,0.19822641100605579,-0.09401656886242096
4.000999999999671,0.2123859056382244,-0.09949417368767488
4.200999999999738,0.2318251003162785,-0.11052658830538964
4.400999999999804,0.2530141350261585,-0.12053310668748614
4.600999999999871,0.2680145590455962,-0.13391584255587893
4.800999999999938,0.28481598429116994,-0.14926745847139597
5.000000000000004,0.2998599823468905,-0.15778219365971724
5.200000000000071,0.32108214755333725,-0.16986166536315908
5.400000000000138,0.34249151032287134,-0.1767123033638909
5.600000000000205,0.3652472123638662,-0.1876176596105693
5.800000000000272,0.3838746437456333,-0.20021417523331442
6.000000000000338,0.40209071419089126,-0.21532955041502153
6.200000000000405,0.42157363328764885,-0.22579079131803587
6.400000000000472,0.44192905716171665,-0.22946760909445169
6.600000000000539,0.46643578687178433,-0.24585505726151924
6.800000000000606,0.4919604560468039,-0.26553579472311356
7.000000000000672,0.5072179821728386,-0.27137023332708776
7.200000000000739,0.5220625243871957,-0.2892096671416782
7.400000000000806,0.5380623367506893,-0.3098451900373308
7.600000000000873,0.5443716836367509,-0.3330242625774369
7.8000000000009395,0.5444385401545025,-0.3568636776977084
8.000000000001005,0.5348579070855001,-0.38446813688013587
8.200000000000895,0.52232463329967,-0.412657539796823
8.400000000000784,0.503059057510594,-0.44203630922334874
8.600000000000673,0.4806215147953145,-0.4745191262416249
8.800000000000562,0.46139388030533485,-0.5029561438399645
9.000000000000451,0.45522326650930434,-0.5182978189231077
9.20000000000034,0.4511949434501701,-0.5383449232358661
9.40000000000023,0.44075230057547327,-0.5627391219245025
9.600000000000119,0.4283061452770197,-0.5850183060791232
9.800000000000008,0.4112863963506267,-0.613865858209523
10.000999999999896,0.4019926474526931,-0.6378683819326674
10.200999999999786,0.39072529199142514,-0.6609639604226348
10.400999999999675,0.3713046184187458,-0.6963202671626347
10.600999999999564,0.35635480012653714,-0.7259180266491382
10.800999999999453,0.3443300414666236,-0.7475609160308527
11.000999999999342,0.33341098942261227,-0.7696942322355587
11.200999999999231,0.3209375263695497,-0.7959990518856725
11.40099999999912,0.3016902928590038,-0.8203092213214358
11.60099999999901,0.2881842841675961,-0.8448030490116114
11.800999999998899,0.2772326796733927,-0.8692407246430988
12.000999999998788,0.26026590495894003,-0.8987532757159197
12.200999999998677,0.23205635370348449,-0.9329817954501317
12.400999999998566,0.20810875697562597,-0.9621360095988868
12.600999999998455,0.18525683003857124,-0.9864541559042163
12.800999999998345,0.16129762099716616,-1.006023261137784
13.000999999998234,0.1414947232609341,-1.023597754689515
13.200999999998123,0.11884648905423494,-1.0385509554236965
13.400999999998012,0.0946644081427356,-1.0458873413580305
13.600999999997901,0.0669130189925663,-1.0546761580268424
13.80099999999779,0.0297117323685674,-1.0546829134581377
14.00099999999768,-0.001930164185347443,-1.0474568277178646
14.200999999997569,-0.03918881486745703,-1.028272779901886
14.400999999997458,-0.07024500047720457,-1.013219977754643
14.600999999997347,-0.09985839922737043,-0.9997592150316923
14.800999999997236,-0.12557984782820183,-0.9851631614841262
15.000999999997125,-0.15363762622284596,-0.9665604411962527
15.200999999997014,-0.18403331405086923,-0.9449480782027655
15.400999999996904,-0.21360094505131555,-0.9243122801684969
15.600999999996793,-0.24007377179030567,-0.9014995776301858
15.800999999996682,-0.26904572450145386,-0.870202410505754
16.000999999996573,-0.2972749936105706,-0.851066446182167
16.200999999996817,-0.32683864481122804,-0.8310841633617528
16.40099999999706,-0.3547154195067875,-0.8141617454129775
16.600999999997306,-0.37725501742370343,-0.7991452342922634
16.80099999999755,-0.3995523323139849,-0.7915332474933735
17.000999999997795,-0.4192570787827522,-0.7840992520574028
17.20099999999804,-0.44319621078298227,-0.7742190820805934
17.400999999998284,-0.4783866826236176,-0.7458862137779911
17.60099999999853,-0.5093222558070253,-0.7306223121252056
17.800999999998773,-0.5372632973972166,-0.7017836804178232
18.000999999999017,-0.5648932423595293,-0.6766278921544812
18.20099999999926,-0.5852782371439584,-0.6607935209033291
18.400999999999506,-0.6043767527293699,-0.6376702505995379
18.60099999999975,-0.6225053410465107,-0.6147718762844951
18.799999999999994,-0.6430382077017734,-0.5888191442584743
19.000000000000238,-0.6626311794024682,-0.5668372149546256
19.200000000000482,-0.6738709762958806,-0.5471053887495373
19.400000000000727,-0.6824003610727086,-0.528285148706574
19.60000000000097,-0.6895943058330739,-0.4993545647174839
19.800000000001216,-0.6909345355647462,-0.46391361143549975
20.00000000000146,-0.684859892866077,-0.4314440613687996
