Time (s),X (m),Y (m)
0.001,0.00015606349793537,-0.0009963285817120471
0.20000000000000015,0.0014993821415063403,0.0009740729295967609
0.4000000000000003,0.004508563671433664,-0.00039086191704037365
0.6000000000000004,0.00935979760192418,0.001398898490473857
0.8000000000000006,0.02252913683180653,0.021921165887666152
1.0000000000000007,0.042784584064121486,0.04085985710453678
1.2009999999999785,0.06478818577224264,0.05765657068418477
1.4009999999999565,0.08338421503299313,0.06313721369541368
1.6009999999999345,0.09780037080283939,0.0655626396243145
1.8009999999999124,0.1341768684220717,0.06563793622988007
2.0009999999998906,0.16558364142415108,0.06420407795092618
2.2009999999998686,0.18166513367384113,0.05591213231936151
2.4009999999998466,0.20052344066545774,0.035762561845548865
2.6009999999998246,0.21672244875974855,0.009040332222924448
2.8009999999998025,0.21797142774303932,-0.0033224314739735087
3.0009999999997805,0.20736306969208848,-0.02266463053416161
3.2009999999997585,0.18967996921512328,-0.03237247285947023
3.4009999999997365,0.16691539203436423,-0.043321983713469486
3.6009999999997144,0.13626259407767075,-0.06281039486633486
3.8009999999996924,0.10451242831027668,-0.07923132314066263
4.000999999999671,0.07512161434839125,-0.10225730702148791
4.200999999999738,0.04412879499751145,-0.10941863239788098
4.400999999999804,0.013406744519462,-0.11613158014669646
4.600999999999871,-0.017561999267178087,-0.11963489542662077
4.800999999999938,-0.05171992865034799,-0.12925177775682894
5.000000000000004,-0.08490660991353438,-0.14221672549799053
5.200000000000071,-0.12552145335715417,-0.16127616425251562
5.400000000000138,-0.17434423498995774,-0.17682217183451443
5.600000000000205,-0.2064280449919125,-0.184514355816902
5.800000000000272,-0.2378073580054177,-0.18805286622993334
6.000000000000338,-0.275000460158266,-0.18159045139100508
6.200000000000405,-0.3156430324547437,-0.17738673386038672
6.400000000000472,-0.3484254171309942,-0.17706254470545857
6.600000000000539,-0.3959266888676688,-0.1800025100757581
6.800000000000606,-0.43354351577493044,-0.1838208391836153
7.000000000000672,-0.4717264200529234,-0.17311413470877193
7.200000000000739,-0.48605775597858425,-0.16166211667657043
7.400000000000806,-0.4853499474956735,-0.15145235722524295
7.600000000000873,-0.47923970952148026,-0.12377711840847225
7.8000000000009395,-0.47130531404580056,-0.09049960639660773
8.000000000001005,-0.46437456041250535,-0.05384089512612178
8.200000000000895,-0.4474661289561282,-0.029078759227028177
8.400000000000784,-0.41406692991106486,0.009487114264656121
8.600000000000673,-0.37162981785779176,0.036855215227701216
8.800000000000562,-0.32441488020632064,0.059013634997081
9.000000000000451,-0.26757698798211055,0.08549957292159552
9.20000000000034,-0.20684387376260568,0.10068111861937944
9.40000000000023,-0.1628105677860547,0.0957270459299563
9.600000000000119,-0.15010502179767052,0.07572312409536869
9.800000000000008,-0.14971008157084034,0.05189465874290869
10.000999999999896,-0.15329837403800028,0.02196160311693055
10.200999999999786,-0.15247844360835805,-0.01100653353667565
10.400999999999675,-0.152707664577237,-0.04463709388989437
10.600999999999564,-0.16279438640917174,-0.07099865960834191
10.800999999999453,-0.16335430388322147,-0.10910283307739718
11.000999999999342,-0.16122479065801673,-0.14934209466068837
11.200999999999231,-0.1690172898967102,-0.1702641295194832
11.40099999999912,-0.1785470533415776,-0.1970992825758208
11.60099999999901,-0.20117173582227366,-0.22555336015639116
11.800999999998899,-0.23613521230951917,-0.2507126039206804
12.000999999998788,-0.2744702957447235,-0.28168523230994374
12.200999999998677,-0.31152515408345965,-0.2960699235331101
12.400999999998566,-0.35840060400889323,-0.3148131037996509
12.600999999998455,-0.40562717945490606,-0.3351494482191729
12.800999999998345,-0.4542212675833748,-0.35700713961881575
13.000999999998234,-0.5102180240066678,-0.38132930875979903
13.200999999998123,-0.5586820194496742,-0.39675517875256544
13.400999999998012,-0.6071655075036072,-0.40539291575123554
13.600999999997901,-0.6520111282431006,-0.4085166795753405
13.80099999999779,-0.6976761720597612,-0.41621909153428566
14.00099999999768,-0.7464877319655795,-0.43013258317310094
14.200999999997569,-0.8023413731507275,-0.44490555490770695
14.400999999997458,-0.8580464290621524,-0.4507403125043066
14.600999999997347,-0.9126140769240559,-0.45437566671874957
14.800999999997236,-0.9853198831541712,-0.4717818928660301
15.000999999997125,-1.0546442168583572,-0.48354893795954035
15.200999999997014,-1.1010761924867043,-0.48466104643045815
15.400999999996904,-1.143434121199436,-0.4693261066287908
15.600999999996793,-1.1644392921726632,-0.44246478391218286
15.800999999996682,-1.1704276749341367,-0.4083053005127189
16.000999999996573,-1.1720185495857165,-0.3729836162349115
16.200999999996817,-1.1753197746286088,-0.33585754628217723
16.40099999999706,-1.1811916010469985,-0.3026710698837737
16.600999999997306,-1.180121712145521,-0.2716820760171935
16.80099999999755,-1.1696068604334653,-0.23862242095729133
17.000999999997795,-1.148240279904987,-0.22608712293505684
17.20099999999804,-1.1211887104817526,-0.23651766388949602
17.400999999998284,-1.092182345168445,-0.24350740364920956
17.60099999999853,-1.054589166947859,-0.23356347655084483
17.800999999998773,-1.0129601339251864,-0.21928373948578658
18.000999999999017,-0.9719676613148505,-0.18563023873448303
18.20099999999926,-0.9270378370948397,-0.15448902005486256
18.400999999999506,-0.8790887916190756,-0.13762429753985772
18.60099999999975,-0.8346811400932588,-0.12904945008828123
18.799999999999994,-0.7965160921116491,-0.1297400053461566
19.000000000000238,-0.7466380884685963,-0.130422927554954
19.200000000000482,-0.6977405920459678,-0.13332302767566354
19.400000000000727,-0.6572668953003125,-0.14448678428414422
19.60000000000097,-0.6298867734989226,-0.16138498762494405
19.800000000001216,-0.6236155887686583,-0.18699475455724487
20.00000000000146,-0.61870879584752,-0.22519217603827638
