Time (s),X (m),Y (m)
0.001,-1.2891339751951317e-05,0.0009348340498585851
0.20000000000000015,0.001336751373641627,-0.0011748398588029179
0.4000000000000003,0.0031140693186254404,-0.0022037069992453103
0.6000000000000004,0.011313523748240035,0.0011926258728922254
0.8000000000000006,0.01918135099665169,-0.006186967830049113
1.0000000000000007,0.031080685625223335,-0.006997879322984347
1.2009999999999785,0.041609294854372814,-0.01080837446639448
1.4009999999999565,0.05751320031093235,-0.020983204945128633
1.6009999999999345,0.07518355184732192,-0.0018625306461347408
1.8009999999999124,0.09674571711666817,0.0043727008566921445
2.0009999999998906,0.1174112865816198,-0.006859748978643218
2.2009999999998686,0.13564783190427698,-0.027136144407693165
2.4009999999998466,0.15631066299944116,-0.045081954293286694
2.6009999999998246,0.17891283777079556,-0.047541438622130915
2.8009999999998025,0.20573456073539106,-0.0348333390557962
3.0009999999997805,0.23344451050387835,-0.028041246508563506
3.2009999999997585,0.25577165733195223,-0.029078059719630855
3.4009999999997365,0.27817429591634313,-0.049374531416575815
3.6009999999997144,0.29764203498342806,-0.06101331644511174
3.8009999999996924,0.31712940521312544,-0.07389351393811776
4.000999999999671,0.3405976107064519,-0.08215206868754843
4.200999999999738,0.36266672678877954,-0.09890287912263512
4.400999999999804,0.38343221236545316,-0.10107587655942848
4.600999999999871,0.40655588794829517,-0.11325065707155249
4.800999999999938,0.4296888346934518,-0.12451305370804315
5.000000000000004,0.4549135961619514,-0.13752236281414704
5.200000000000071,0.47623158041213964,-0.15554176190464278
5.400000000000138,0.4961856607612549,-0.1872914781425658
5.600000000000205,0.5197117771755191,-0.21498457049604675
5.800000000000272,0.5483976155522594,-0.21977241569522593
6.000000000000338,0.5775598161423211,-0.21964840491764356
6.200000000000405,0.6023548149842294,-0.21718502534520445
6.400000000000472,0.6266884218244547,-0.22625660347655807
6.600000000000539,0.658078665504488,-0.22689612417330107
6.800000000000606,0.687543259832315,-0.2291724812845102
7.000000000000672,0.716191322764788,-0.23964586098712684
7.200000000000739,0.7470093536742232,-0.24612626158972073
7.400000000000806,0.7788574557908376,-0.25867468705293956
7.600000000000873,0.80432323483327,-0.274261420461907
7.8000000000009395,0.8275252514475676,-0.28486224680474853
8.000000000001005,0.8516127291212066,-0.3091124477247154
8.200000000000895,0.8800147049479224,-0.3264655263405788
8.400000000000784,0.9064673235487452,-0.34634300672553553
8.600000000000673,0.9318325328570846,-0.36469573829302365
8.800000000000562,0.9583365767312236,-0.3705076918443591
9.000000000000451,0.9854243070876075,-0.38489374722067077
9.20000000000034,1.0141031166387477,-0.39618050534727106
9.40000000000023,1.0444852518300387,-0.41211520661079926
9.600000000000119,1.0758296039667465,-0.4188228719488607
9.800000000000008,1.1093925737868588,-0.4308548333353005
10.000999999999896,1.1434497430878923,-0.45843947402408647
10.200999999999786,1.169263070501573,-0.4870846146856536
10.400999999999675,1.1908203844030938,-0.516257761795557
10.600999999999564,1.2161051695540346,-0.5390444079978055
10.800999999999453,1.238638574001618,-0.5649577241181059
11.000999999999342,1.265279502166994,-0.5759703006142799
11.200999999999231,1.2969174456333743,-0.5790421773149084
11.40099999999912,1.3239062679776894,-0.5877604697995157
11.60099999999901,1.3493734939699031,-0.6051075782721711
11.800999999998899,1.373746620332847,-0.6377424314572038
12.000999999998788,1.4016388570514433,-0.662671704921987
12.200999999998677,1.4310685555457736,-0.6924956232538736
12.400999999998566,1.463553812668189,-0.6991031466109231
12.600999999998455,1.4915447105818114,-0.7014898206014137
12.800999999998345,1.5169441320020203,-0.7286452791264213
13.000999999998234,1.5423685862984444,-0.7568690418952124
13.200999999998123,1.5672614679805532,-0.790994224774619
13.400999999998012,1.5913339831254256,-0.818344728956054
13.600999999997901,1.6166363004701858,-0.8359436975978671
13.80099999999779,1.646496461369872,-0.8562736211404042
14.00099999999768,1.682088147670926,-0.8665626572518117
14.200999999997569,1.716517295821908,-0.8853045855430769
14.400999999997458,1.7454865977695857,-0.905948573265168
14.600999999997347,1.7709909204072336,-0.9262052765449788
14.800999999997236,1.7957753379314332,-0.9459829081387803
15.000999999997125,1.8208805070931722,-0.968234820653682
15.200999999997014,1.848620885219872,-0.9807456422368643
15.400999999996904,1.8793442101089504,-0.9916076628451045
15.600999999996793,1.9066595433092413,-1.018575461192141
15.800999999996682,1.9354378415227325,-1.0361993665614053
16.000999999996573,1.9578588947779936,-1.040611541513892
16.200999999996817,1.981288980292442,-1.040682833355758
16.40099999999706,2.004341754555959,-1.0519419345159304
16.600999999997306,2.0245958909989503,-1.0797679323442655
16.80099999999755,2.0475013475370654,-1.1045621917404518
17.000999999997795,2.0723554398668576,-1.125819834108971
17.20099999999804,2.0953242740560714,-1.155977283407524
17.400999999998284,2.1137502645807054,-1.1773318339345582
17.60099999999853,2.139530106190118,-1.1849115598223579
17.800999999998773,2.1676040316095615,-1.2047836403262846
18.000999999999017,2.2004812570354315,-1.2169859125079447
18.20099999999926,2.231154542822524,-1.2437372064198495
18.400999999999506,2.2617174049412743,-1.2661325593092452
18.60099999999975,2.2897964477468378,-1.292678034034287
18.799999999999994,2.312967505745961,-1.3255961229445699
19.000000000000238,2.331050151692857,-1.3633530339524103
19.200000000000482,2.3490077931387527,-1.3897626712569842
19.400000000000727,2.3714585069285015,-1.414039267246354
19.60000000000097,2.396021329662427,-1.426610358367672
19.800000000001216,2.419984783394108,-1.445754877080385
20.00000000000146,2.4399754410211254,-1.4624350663122345
