Time (s),X (m),Y (m)
0.001,0.0005129279282107199,-0.0010275501737767782
0.20000000000000015,0.0008494169598146758,-0.00045667093551346395
0.4000000000000003,0.0014624068404549917,-0.0003084795662907562
0.6000000000000004,0.002281093188890949,-0.00032349144429892775
0.8000000000000006,0.004092183776302005,-0.002206001022278105
1.0000000000000007,0.00560885042802135,-0.00020203002673632451
1.2009999999999785,0.008925479138520048,0.00012738911708065398
1.4009999999999565,0.010910826242938702,0.0010921954673601113
1.6009999999999345,0.014541181200929551,0.0004928268807036001
1.8009999999999124,0.017868272751325857,0.0021193696780076065
2.0009999999998906,0.021376496448712982,0.0011730940255389414
2.2009999999998686,0.025005547479775646,0.0015778582476709709
2.4009999999998466,0.028401250802337942,0.0015094323110125636
2.6009999999998246,0.031665913114680956,0.003691650675219686
2.8009999999998025,0.035116748862423525,0.0029094521307387647
3.0009999999997805,0.03877507687126327,0.00364627686272995
3.2009999999997585,0.042444414885385535,0.0016343006925171218
3.4009999999997365,0.04555052605413172,0.0008141967105710625
3.6009999999997144,0.0482441322469282,-0.00024440244145017607
3.8009999999996924,0.052037654270961665,-0.0027303514603759095
4.000999999999671,0.05526340542312441,-0.0027153838688398235
4.200999999999738,0.05922909614691934,-0.004957080603305314
4.400999999999804,0.06300085442999769,-0.0043850392716332145
4.600999999999871,0.06668607893085664,-0.006185619171194542
4.800999999999938,0.06980054802998657,-0.008035604424004333
5.000000000000004,0.07221601799176276,-0.010694656063808426
5.200000000000071,0.07603641638362994,-0.01437121837012186
5.400000000000138,0.07887552713728699,-0.0161212297000134
5.600000000000205,0.082318211795261,-0.01909880779557737
5.800000000000272,0.08548975322301651,-0.020589389351696224
6.000000000000338,0.08869049596567452,-0.023891886832203158
6.200000000000405,0.0927317593634703,-0.02494978070735138
6.400000000000472,0.09580809059352183,-0.026689452852074524
6.600000000000539,0.0993609228970732,-0.02965000056949178
6.800000000000606,0.10263874183821764,-0.031127479460071838
7.000000000000672,0.10563084977580312,-0.0347376047134583
7.200000000000739,0.10922358193952489,-0.03606143352304872
7.400000000000806,0.11172072895699917,-0.03957637221646555
7.600000000000873,0.11528624973528705,-0.04178581826104782
7.8000000000009395,0.11807917711137629,-0.04488083435250267
8.000000000001005,0.12135028245439822,-0.04720929414652494
8.200000000000895,0.12434520384636367,-0.04795389240998619
8.400000000000784,0.12789615376425734,-0.05164057093854432
8.600000000000673,0.13047901337704118,-0.05561000629687526
8.800000000000562,0.1343868813811807,-0.058474761378222544
9.000000000000451,0.13773393527730854,-0.060918285154048256
9.20000000000034,0.14090157176170567,-0.06430441697606898
9.40000000000023,0.14396285351865926,-0.0657252547647569
9.600000000000119,0.1466522149107807,-0.06981929018915611
9.800000000000008,0.14993055675372388,-0.07192031692668593
10.000999999999896,0.15356471330064755,-0.07528684033753213
10.200999999999786,0.15717494580097627,-0.07823713744324201
10.400999999999675,0.1600327540127483,-0.08156274740035677
10.600999999999564,0.1628636639204526,-0.08588424850129751
10.800999999999453,0.16558191344099543,-0.0887211416790361
11.000999999999342,0.16875812632612483,-0.09294311190236018
11.200999999999231,0.1714321211313777,-0.09499406347566311
11.40099999999912,0.1746045245208784,-0.09850035760390259
11.60099999999901,0.1777344082981356,-0.10122838141030756
11.800999999998899,0.18096336514846798,-0.10369505495316528
12.000999999998788,0.18405432665091284,-0.10794643788405639
12.200999999998677,0.1869130214690286,-0.11045397750715251
12.400999999998566,0.18966704491813682,-0.11490524774767366
12.600999999998455,0.19375293247464745,-0.11645555011731701
12.800999999998345,0.19713134047875544,-0.12067951243449988
13.000999999998234,0.2002852874663401,-0.12329491567940833
13.200999999998123,0.2036126054538699,-0.12956401197252104
13.400999999998012,0.20602827287424805,-0.13154786139251481
13.600999999997901,0.21005441874133715,-0.1323185116475222
13.80099999999779,0.21408049503810303,-0.13502806387215818
14.00099999999768,0.21779176658496444,-0.13736806648122046
14.200999999997569,0.21962278045666153,-0.14126083249977728
14.400999999997458,0.22340107550856095,-0.14455834481372679
14.600999999997347,0.22620687974201892,-0.14769789792496663
14.800999999997236,0.22955316615731886,-0.15222175609986896
15.000999999997125,0.23383977996314312,-0.1526681504441103
15.200999999997014,0.23760566516115478,-0.15552618016337544
15.400999999996904,0.24062261889328293,-0.15889714423997944
15.600999999996793,0.24379365537944836,-0.1619145890111562
15.800999999996682,0.24721796318868827,-0.16571980001614067
16.000999999996573,0.2502659878272948,-0.1682364772251042
16.200999999996817,0.2533976261779172,-0.17253855613859836
16.40099999999706,0.2567489284237856,-0.17528081866551057
16.600999999997306,0.2595387332183095,-0.17936997565724816
16.80099999999755,0.263433220545191,-0.18214687706935573
17.000999999997795,0.2663193322153553,-0.1855102762442614
17.20099999999804,0.269157968233068,-0.18973946845185957
17.400999999998284,0.2719434780574524,-0.19217513889293314
17.60099999999853,0.27507201904006495,-0.19663225974234014
17.800999999998773,0.2789689930649499,-0.1981300409647935
18.000999999999017,0.28191370869779087,-0.2018096182095125
18.20099999999926,0.2857442609059327,-0.20415992666794566
18.400999999999506,0.2892301076867004,-0.20613008200494623
18.60099999999975,0.29171806160728897,-0.2105306584578377
18.799999999999994,0.2946636230641765,-0.21269189002825423
19.000000000000238,0.2997999716775706,-0.21240168461935963
19.200000000000482,0.30467073947596185,-0.21054588845578825
19.400000000000727,0.3085509161536174,-0.2106388613174426
19.60000000000097,0.31228833384790483,-0.21201280633880282
19.800000000001216,0.3146780261780988,-0.2160283551513462
20.00000000000146,0.31790218452366004,-0.2185716970835211
