Time (s),X (m),Y (m)
0.001,0.00015606349793537,0.0009963285817120476
0.20000000000000015,0.0007938858838993859,2.7357046667836976e-05
0.4000000000000003,0.001305751378916348,-0.00016336823761871783
0.6000000000000004,0.00196125264356883,-0.0002828043463427331
0.8000000000000006,0.0027901845699633346,-0.0004905939465254103
1.0000000000000007,0.0037415025547992806,-0.0008717454705474514
1.2009999999999785,0.004756193768249045,-0.0011845853254719273
1.4009999999999565,0.005798652982535581,-0.0014602557902212007
1.6009999999999345,0.006888199778901235,-0.0018073095397263938
1.8009999999999124,0.00802860572596788,-0.002172051904280796
2.0009999999998906,0.009224700073804003,-0.0025451813188490696
2.2009999999998686,0.010473952679113198,-0.0029547802746886917
2.4009999999998466,0.011779281434628147,-0.0033760336853359955
2.6009999999998246,0.013144484214644822,-0.0038221770058903585
2.8009999999998025,0.014552864044368029,-0.0043162872645201265
3.0009999999997805,0.016003580198577488,-0.004836865652724397
3.2009999999997585,0.017487310421318184,-0.005375931399427396
3.4009999999997365,0.018996892691027858,-0.005939955624138276
3.6009999999997144,0.020496077747499047,-0.006528526757727651
3.8009999999996924,0.02197710588320045,-0.007142870744872734
4.000999999999671,0.023186080585164165,-0.00801129332094145
4.200999999999738,0.024401011943169137,-0.008930290138763284
4.400999999999804,0.025499712319000157,-0.009848831534867692
4.600999999999871,0.02678842607005572,-0.010997221991971349
4.800999999999938,0.027923131473729303,-0.01213045410037572
5.000000000000004,0.02894527003361594,-0.01317742350519635
5.200000000000071,0.029945544538400797,-0.014201076549640194
5.400000000000138,0.030965849114372553,-0.015261889814523002
5.600000000000205,0.032153362257193716,-0.01656907763112438
5.800000000000272,0.03335471765895311,-0.017849117064631003
6.000000000000338,0.03458493760119552,-0.019103904125069
6.200000000000405,0.0357808213872182,-0.020307024449619328
6.400000000000472,0.037009479422880916,-0.021413587205652306
6.600000000000539,0.038208174759970126,-0.022480720998272526
6.800000000000606,0.03933688139528297,-0.0235064782506905
7.000000000000672,0.04051231806046433,-0.024563709862791414
7.200000000000739,0.04192004361916336,-0.025882446312840222
7.400000000000806,0.043374244249455914,-0.02720644953293427
7.600000000000873,0.04488366006956097,-0.02852331228843732
7.8000000000009395,0.04642707485424724,-0.029808127182049646
8.000000000001005,0.04792531041481002,-0.030979857147315583
8.200000000000895,0.04947463188506739,-0.03214295171844447
8.400000000000784,0.05095250152480324,-0.03316971851447139
8.600000000000673,0.05247963708022043,-0.03415459045927548
8.800000000000562,0.05400539549556627,-0.03504453462015779
9.000000000000451,0.05553570930810329,-0.03584077774370303
9.20000000000034,0.05706468916247484,-0.03654098768406812
9.40000000000023,0.05858242504570892,-0.03713419950285764
9.600000000000119,0.06008941933527538,-0.03759638553656201
9.800000000000008,0.061582818221720355,-0.03790122034932077
10.000999999999896,0.06292931896095542,-0.03794957390340567
10.200999999999786,0.06415074426402319,-0.03771998067662058
10.400999999999675,0.06534920212385471,-0.037313252794307944
10.600999999999564,0.06652996600790194,-0.036753858285818786
10.800999999999453,0.06772639733951943,-0.036082784485355394
11.000999999999342,0.06895786005328648,-0.035309134708436635
11.200999999999231,0.07022928534414365,-0.034436650031655025
11.40099999999912,0.07153898560036279,-0.033460614544085415
11.60099999999901,0.07288164603705347,-0.032379708620649095
11.800999999998899,0.07425121505776716,-0.031197296510750268
12.000999999998788,0.07564614915693273,-0.029916327891014706
12.200999999998677,0.0770668711315463,-0.028538631729568543
12.400999999998566,0.07851491932144265,-0.02706691089497899
12.600999999998455,0.07998782321849518,-0.025510835581004438
12.800999999998345,0.08148537070432035,-0.023874027972447014
13.000999999998234,0.08300687784476654,-0.022158639819720015
13.200999999998123,0.08455117056149622,-0.020366058973226103
13.400999999998012,0.08611767968618243,-0.018497468015792884
13.600999999997901,0.08770637327449264,-0.0165538276333379
13.80099999999779,0.08931695135183641,-0.014536521179777278
14.00099999999768,0.09095110404990973,-0.012447313611829432
14.200999999997569,0.09260975437692526,-0.010282720483840591
14.400999999997458,0.09429313431452163,-0.008046132623320188
14.600999999997347,0.09599932467637906,-0.0057552558901910415
14.800999999997236,0.09771154982006698,-0.0034697165414542064
15.000999999997125,0.09942247699374916,-0.001207796127275952
15.200999999997014,0.10112668420202142,0.001011696964924521
15.400999999996904,0.10280882964084892,0.0031560961543482245
15.600999999996793,0.10446431653073714,0.005220947560783295
15.800999999996682,0.10609409268081631,0.007207733040616152
16.000999999996573,0.10769412762684415,0.00912215724554882
16.200999999996817,0.10926640217229856,0.01099077998027676
16.40099999999706,0.11081028605194926,0.01282518207925013
16.600999999997306,0.11232380643722112,0.01462941453695797
16.80099999999755,0.11380706236086172,0.01640926441925731
17.000999999997795,0.11528384413598092,0.018186426177299382
17.20099999999804,0.11678324948020907,0.020016155444492614
17.400999999998284,0.11826250531372783,0.021847532299545558
17.60099999999853,0.11970244530654131,0.023644169539037908
17.800999999998773,0.12110309802051661,0.025429426012339634
18.000999999999017,0.12246639645721279,0.027208647572876884
18.20099999999926,0.12379886623296862,0.028978343166058407
18.400999999999506,0.12510180812582758,0.030727730133438387
18.60099999999975,0.12636713734585464,0.03242686608350077
18.799999999999994,0.12758326256456026,0.034061061367612375
19.000000000000238,0.12874939859936596,0.035669010961451066
19.200000000000482,0.12986909873503433,0.03725734316035671
19.400000000000727,0.1309401346428645,0.038820278938437994
19.60000000000097,0.13196114415290336,0.04035620173209033
19.800000000001216,0.1329313797144203,0.04186863957950453
20.00000000000146,0.1338868619697754,0.04343914763166323
