Time (s),X (m),Y (m)
0.001,0.00033312994539159724,-0.0010275501737767782
0.20000000000000015,0.0007588641003583126,-0.0003244116963516297
0.4000000000000003,0.001499917651506269,-0.0002123719697847751
0.6000000000000004,0.0034112881773043563,0.0003061317205482621
0.8000000000000006,0.005512299258332337,0.001517934144419378
1.0000000000000007,0.008750297842507764,0.005439888873937879
1.2009999999999785,0.01256280148950632,0.010597328447869711
1.4009999999999565,0.01782996216089047,0.013833621403430339
1.6009999999999345,0.020405786129111776,0.01445420923354279
1.8009999999999124,0.022548245081345064,0.015905314021304108
2.0009999999998906,0.02589291955553655,0.016558713594975877
2.2009999999998686,0.030514787918893112,0.018142509268970142
2.4009999999998466,0.03388906546290367,0.016182750635296617
2.6009999999998246,0.03695605048294273,0.012395056016155804
2.8009999999998025,0.040953455411619204,0.014103763138249565
3.0009999999997805,0.04484695780061038,0.013804441409906299
3.2009999999997585,0.050023614336087575,0.015620677397541097
3.4009999999997365,0.05332452079396835,0.01642385409507398
3.6009999999997144,0.05537990438129145,0.01447946276451172
3.8009999999996924,0.058854109125524294,0.013741736011751493
4.000999999999671,0.0621020982092669,0.011293110880807996
4.200999999999738,0.06687526384870977,0.011298831472121615
4.400999999999804,0.07141330376080729,0.010884075534937518
4.600999999999871,0.07571513592274697,0.009325505077710615
4.800999999999938,0.07879139802738122,0.0077870673429149455
5.000000000000004,0.08110005466729046,0.004954372991786408
5.200000000000071,0.08528568519325994,0.003970981350298747
5.400000000000138,0.09020729492618945,0.002163503114620027
5.600000000000205,0.09312744978026806,-0.001410389253487721
5.800000000000272,0.09624239593637439,-0.003039950642657232
6.000000000000338,0.10147336831209935,-0.002766832267447574
6.200000000000405,0.10520577947192297,-0.002856232629577781
6.400000000000472,0.10849717742919665,-0.005964843337440428
6.600000000000539,0.11351972139189483,-0.005381533378443279
6.800000000000606,0.11736852950002048,-0.007273872366228323
7.000000000000672,0.123072980538403,-0.005636811658620213
7.200000000000739,0.1259657309576429,-0.008522614168743359
7.400000000000806,0.12882989392693192,-0.008842971815294105
7.600000000000873,0.1338117661245222,-0.007800318937732269
7.8000000000009395,0.14154323892608742,-0.005144969430400733
8.000000000001005,0.14553703794693407,-0.009029923150875944
8.200000000000895,0.14836628304302196,-0.014874578566802684
8.400000000000784,0.15283039487874703,-0.015136417258237117
8.600000000000673,0.1541830098799256,-0.016156795021566514
8.800000000000562,0.1590608667044969,-0.015562083409454338
9.000000000000451,0.1627812910311867,-0.018491328345866188
9.20000000000034,0.1663313762171286,-0.02056889045104489
9.40000000000023,0.16965238368938632,-0.02449560632090258
9.600000000000119,0.17460099476367252,-0.024394453519231137
9.800000000000008,0.1788069149603898,-0.02865955807481746
10.000999999999896,0.18213439333016082,-0.031468716737381754
10.200999999999786,0.18644738996337656,-0.03580700696553659
10.400999999999675,0.19011977930683716,-0.03653889137254361
10.600999999999564,0.1947586184000919,-0.03678459779539242
10.800999999999453,0.19825694795772988,-0.04001341600459093
11.000999999999342,0.2025992415396784,-0.04313681784774399
11.200999999999231,0.2082022933020786,-0.04101423907474688
11.40099999999912,0.2134922479718124,-0.04224748148940017
11.60099999999901,0.21899852359887026,-0.04524537466906616
11.800999999998899,0.22624197315370853,-0.044729332287773906
12.000999999998788,0.23115769328340924,-0.044182509381565795
12.200999999998677,0.23660929364311092,-0.04481700214928152
12.400999999998566,0.2398267228470167,-0.048588185481522425
12.600999999998455,0.2440289168670017,-0.050972240998677344
12.800999999998345,0.25056073958383446,-0.05042747042271126
13.000999999998234,0.2553657390458422,-0.051222765394835564
13.200999999998123,0.2609496365996561,-0.05399327581724156
13.400999999998012,0.26317095273785085,-0.05705447240812561
13.600999999997901,0.26935835260966084,-0.05693986334795796
13.80099999999779,0.2756941492402156,-0.05895399961451371
14.00099999999768,0.28230521755213234,-0.057739957416346424
14.200999999997569,0.28868699569215533,-0.05828127993310979
14.400999999997458,0.29327903716323744,-0.06523245670157425
14.600999999997347,0.2985246282416821,-0.06758805940137295
14.800999999997236,0.3036422214474647,-0.06650463766858838
15.000999999997125,0.3070984330863245,-0.0693554499722349
15.200999999997014,0.31210375783192856,-0.071467778338871
15.400999999996904,0.3182531995315756,-0.07310883256718714
15.600999999996793,0.3237449225917339,-0.07442421858338132
15.800999999996682,0.33100445131927114,-0.07484937723607653
16.000999999996573,0.3388367985407151,-0.07516201659214271
16.200999999996817,0.343738749052322,-0.07737120264206969
16.40099999999706,0.3487830575210483,-0.07837081152400946
16.600999999997306,0.35309995294236635,-0.07960809443785478
16.80099999999755,0.36000382221914806,-0.07916733336378379
17.000999999997795,0.36559586270814515,-0.08031638241182269
17.20099999999804,0.370781933037522,-0.08277032661841063
17.400999999998284,0.37534378483081116,-0.08525106769408469
17.60099999999853,0.3798737530446064,-0.08767765665574201
17.800999999998773,0.3842022892572422,-0.09014500214134193
18.000999999999017,0.38787873055277955,-0.09065030375529409
18.20099999999926,0.39177277874800964,-0.09321222865652039
18.400999999999506,0.3958959031357894,-0.09505932309472177
18.60099999999975,0.40272118686393893,-0.09368319696545274
18.799999999999994,0.4084665951930547,-0.09653099385025395
19.000000000000238,0.41117452470605587,-0.09693418550636679
19.200000000000482,0.4158744949186861,-0.09831263457609984
19.400000000000727,0.4208971677495842,-0.09694318833173259
19.60000000000097,0.4272623277710082,-0.10074076280916805
19.800000000001216,0.4328817596607189,-0.1037704314909661
20.00000000000146,0.4384245448094494,-0.10141391201158291
