Time (s),X (m),Y (m)
0.001,-0.0005462407427453492,0.0003527853123316693
0.20000000000000015,0.001633974700626446,-0.0005750986745006026
0.4000000000000003,0.002666532462093048,-0.000575875173487591
0.6000000000000004,0.007332552611448981,-0.0024877353892945216
0.8000000000000006,0.01492164149560489,-0.004174888171171379
1.0000000000000007,0.016264416071423694,-0.007431132153166752
1.2009999999999785,0.021568953365883867,-0.008315064803304342
1.4009999999999565,0.02836006239799041,-0.013731751190280486
1.6009999999999345,0.0390677031375996,-0.01779518331903313
1.8009999999999124,0.06448942299551491,-0.0336219554979822
2.0009999999998906,0.08717542883683373,-0.05080606717974368
2.2009999999998686,0.10271849454991776,-0.059134688216618866
2.4009999999998466,0.11633939416247539,-0.06311580425161717
2.6009999999998246,0.1274753788841743,-0.06389348669894473
2.8009999999998025,0.14748071996198428,-0.07086003080852177
3.0009999999997805,0.16492478706158312,-0.07727212845547453
3.2009999999997585,0.181380281388519,-0.08225669978811867
3.4009999999997365,0.20622093505717115,-0.09692035103201131
3.6009999999997144,0.22631890059923124,-0.10421341508371496
3.8009999999996924,0.23673345830042178,-0.10622328119621721
4.000999999999671,0.2530738599980609,-0.11794792351697642
4.200999999999738,0.269787586635225,-0.1318895181989852
4.400999999999804,0.28574648089106996,-0.14122973889299117
4.600999999999871,0.3036870799654349,-0.15667751271322322
4.800999999999938,0.317232246494653,-0.17081653578739356
5.000000000000004,0.3230753762916251,-0.18593461506641662
5.200000000000071,0.32060992683240713,-0.2070583638585751
5.400000000000138,0.3126699441818425,-0.2271296479655786
5.600000000000205,0.3042606092228088,-0.25286071547550737
5.800000000000272,0.29256222864567116,-0.28245581120950203
6.000000000000338,0.2738745861050151,-0.3138293055500011
6.200000000000405,0.23969260466188042,-0.35182833728907786
6.400000000000472,0.2058013953190269,-0.38660621148817204
6.600000000000539,0.18773556140772862,-0.41332700969781183
6.800000000000606,0.1700538280626449,-0.43448274118295044
7.000000000000672,0.13923394250663895,-0.44903650232658016
7.200000000000739,0.11597622495120426,-0.4588228243447361
7.400000000000806,0.08857471929009528,-0.46443304427165466
7.600000000000873,0.0645268978700236,-0.4728293863319965
7.8000000000009395,0.044309233166553066,-0.47615346409143944
8.000000000001005,0.011730086881031408,-0.46742479996636094
8.200000000000895,-0.016363133458565157,-0.4538161873724738
8.400000000000784,-0.0373532966599501,-0.4457081392016475
8.600000000000673,-0.06782338507363621,-0.43286113338924753
8.800000000000562,-0.09161979219878558,-0.42484337687778045
9.000000000000451,-0.11968915380737473,-0.415118525037545
9.20000000000034,-0.14639185891826778,-0.4068870112401732
9.40000000000023,-0.1776479114399731,-0.3975224789446701
9.600000000000119,-0.2204245867060019,-0.3755848787550182
9.800000000000008,-0.2599537206874798,-0.3533158069058879
10.000999999999896,-0.3026264860952555,-0.3179889368328996
10.200999999999786,-0.3414320537312045,-0.28232658005000955
10.400999999999675,-0.37284265060548394,-0.23831132704288094
10.600999999999564,-0.40031503535270474,-0.1989422063031813
10.800999999999453,-0.4165894971152387,-0.1675953020055891
11.000999999999342,-0.41652842432761966,-0.13652961538338715
11.200999999999231,-0.4128441368436809,-0.11640954423887294
11.40099999999912,-0.41927462018372136,-0.10029913152871438
11.60099999999901,-0.4255435637118157,-0.06810516414681873
11.800999999998899,-0.4263449941982861,-0.04007245431161982
12.000999999998788,-0.42070258798210397,-0.01913715042912743
12.200999999998677,-0.41991623058108934,-0.002316381184199709
12.400999999998566,-0.4185659233626138,0.01922341625021042
12.600999999998455,-0.41066093955173805,0.04851183932955999
12.800999999998345,-0.4008385110492186,0.07705564002614394
13.000999999998234,-0.3976985380201161,0.09651568927579612
13.200999999998123,-0.3920701698302259,0.11076780194480934
13.400999999998012,-0.387535429560897,0.13274852619226624
13.600999999997901,-0.38040417097235396,0.16300221353663874
13.80099999999779,-0.37844123838087906,0.1938119915548242
14.00099999999768,-0.3811065780081907,0.21396995258754511
14.200999999997569,-0.3765446918241301,0.2353258520728118
14.400999999997458,-0.3635054254445149,0.2787763332863324
14.600999999997347,-0.3578718623528447,0.310261467841601
14.800999999997236,-0.345563663858565,0.3495864550980072
15.000999999997125,-0.33383124477130455,0.3850859341201595
15.200999999997014,-0.3245280982739233,0.40696491075045405
15.400999999996904,-0.313841492247226,0.4447919269861155
15.600999999996793,-0.30476550360905047,0.4842396591083541
15.800999999996682,-0.29079531647441886,0.5291762956151176
16.000999999996573,-0.27294028569273693,0.5738955538601838
16.200999999996817,-0.25831201470028264,0.6085707138092341
16.40099999999706,-0.2422671066332343,0.6334935571011635
16.600999999997306,-0.21689245975938293,0.6460975412511123
16.80099999999755,-0.19145028501263703,0.6461721322809734
17.000999999997795,-0.1554038162877823,0.6437894616257704
17.20099999999804,-0.12497570503843368,0.6395970611030923
17.400999999998284,-0.09995877830280449,0.6365117066827168
17.60099999999853,-0.07005989193013602,0.6351048341296857
17.800999999998773,-0.03809047649154881,0.6288316950736841
18.000999999999017,-0.0016453015518328516,0.6165494302236587
18.20099999999926,0.03615161127775008,0.6062797934049987
18.400999999999506,0.07339216721992788,0.5966601078549638
18.60099999999975,0.10823380398173202,0.5835167095870635
18.799999999999994,0.14557008027083304,0.5686470562756134
19.000000000000238,0.18570024187523868,0.5479771790074311
19.200000000000482,0.21448647930621487,0.5335266313019835
19.400000000000727,0.23610573875336008,0.5223209451819293
19.60000000000097,0.2594396813342315,0.5100272294801732
19.800000000001216,0.29334010899933427,0.4968057813648197
20.00000000000146,0.3281158288344488,0.4823480913712863
