Time (s),X (m),Y (m)
0.001,-1.2891339751951317e-05,0.0009348340498585851
0.20000000000000015,0.001282339178371001,-0.0012244505141749895
0.4000000000000003,0.006243001645027881,-0.005104691051106393
0.6000000000000004,0.015358293227022684,-0.0031222006034094473
0.8000000000000006,0.025056929607418087,-0.0071752622416900004
1.0000000000000007,0.03841934707652285,-0.009787604183898017
1.2009999999999785,0.05312851443862551,-0.019015689646263576
1.4009999999999565,0.06439544784191943,-0.032081955979019125
1.6009999999999345,0.0781136736969947,-0.040449002195747916
1.8009999999999124,0.08848320316789172,-0.06205090564537003
2.0009999999998906,0.10156966535421158,-0.0778620236511055
2.2009999999998686,0.1126616071882771,-0.0865557310756516
2.4009999999998466,0.12319042646389419,-0.08827302658259524
2.6009999999998246,0.13561233612417756,-0.09239415679929612
2.8009999999998025,0.14373000584404722,-0.10711956422400026
3.0009999999997805,0.1501854165698714,-0.12425129426351633
3.2009999999997585,0.16265589171379674,-0.14249905200270005
3.4009999999997365,0.17399576452841617,-0.14857904628563526
3.6009999999997144,0.19044237637580014,-0.147068553949839
3.8009999999996924,0.20858544916607383,-0.141392438594882
4.000999999999671,0.22755673085536612,-0.14238159595948674
4.200999999999738,0.24176799941980617,-0.15199396023035186
4.400999999999804,0.25034436589558096,-0.15530087595901806
4.600999999999871,0.2603276293146515,-0.1557579196747318
4.800999999999938,0.27145605176400717,-0.14819310586790355
5.000000000000004,0.285795902903107,-0.15305589904584885
5.200000000000071,0.3014600546354177,-0.17619072289276597
5.400000000000138,0.3150382106826778,-0.1916083040485107
5.600000000000205,0.328534995983963,-0.2059935850747232
5.800000000000272,0.34008218758830383,-0.21009023011015548
6.000000000000338,0.3536191242943189,-0.22574519862801312
6.200000000000405,0.3661021409947563,-0.23993162060034384
6.400000000000472,0.37723740082454804,-0.2559251126418844
6.600000000000539,0.388387214236517,-0.2780712544952398
6.800000000000606,0.39407997826518903,-0.3110477706783883
7.000000000000672,0.3976179684303951,-0.32516749229123026
7.200000000000739,0.4115297911508204,-0.32225606946045726
7.400000000000806,0.43345194375318463,-0.3260822735969666
7.600000000000873,0.46173854303180417,-0.321488381027721
7.8000000000009395,0.48440877551227157,-0.3334581303682664
8.000000000001005,0.5008991539102751,-0.34910920967604225
8.200000000000895,0.5149454831334114,-0.36796370538332773
8.400000000000784,0.527583848458107,-0.3895080488795721
8.600000000000673,0.5386468766248007,-0.40126839261876873
8.800000000000562,0.5461264990978426,-0.42256054377813773
9.000000000000451,0.5530135937264228,-0.448171734128267
9.20000000000034,0.5643812857619881,-0.4653247076448252
9.40000000000023,0.5772824144192812,-0.48701843765772224
9.600000000000119,0.5850451305834846,-0.5158823987534816
9.800000000000008,0.5961864606948076,-0.537910978215112
10.000999999999896,0.611147339595318,-0.543212836911791
10.200999999999786,0.6276396306878571,-0.5369253897607396
10.400999999999675,0.6453882727619609,-0.5428270059950465
10.600999999999564,0.6621831782431175,-0.5568513940528138
10.800999999999453,0.6838595203054338,-0.5540554794114727
11.000999999999342,0.7010342937319083,-0.5646939285006508
11.200999999999231,0.7148035925429564,-0.5809386522532897
11.40099999999912,0.7260852571117725,-0.5997495701494601
11.60099999999901,0.7313877091285326,-0.6221277287642019
11.800999999998899,0.7457418085123394,-0.6223302067036399
12.000999999998788,0.766602077403725,-0.6345132936183421
12.200999999998677,0.7890078266276297,-0.6374670042483975
12.400999999998566,0.8115075992570232,-0.640808339514015
12.600999999998455,0.8276328472898936,-0.6594981676849393
12.800999999998345,0.8433902964279211,-0.6822199112134326
13.000999999998234,0.8583890258840037,-0.7006269111176835
13.200999999998123,0.8739192956697414,-0.6932577448680042
13.400999999998012,0.8933402569994716,-0.6919143145209296
13.600999999997901,0.9177109029730032,-0.6966643013974773
13.80099999999779,0.9449155465859687,-0.685343850562743
14.00099999999768,0.9665119270340514,-0.6898245185265142
14.200999999997569,0.9834683430307326,-0.7070149693510396
14.400999999997458,0.999212196942047,-0.7163605971107752
14.600999999997347,1.0164103269875848,-0.7257766909395168
14.800999999997236,1.0305799555130286,-0.7428601662902707
15.000999999997125,1.0432750219309792,-0.7502358050807594
15.200999999997014,1.0572859565318864,-0.7645550672180456
15.400999999996904,1.0737297728970483,-0.7887915183888705
15.600999999996793,1.0914563081666897,-0.7930642157077905
15.800999999996682,1.1112064648928137,-0.7962596250724003
16.000999999996573,1.1279058446517918,-0.7987542666714714
16.200999999996817,1.1427799731599717,-0.809375716288757
16.40099999999706,1.1601913376465067,-0.8194069714948068
16.600999999997306,1.1805338591670393,-0.8214984395163276
16.80099999999755,1.1985197469164148,-0.84303918116429
17.000999999997795,1.2195139853576829,-0.8611500209474192
17.20099999999804,1.2455475059290182,-0.8783021514202142
17.400999999998284,1.2727057624362699,-0.8927305812067285
17.60099999999853,1.301093883821872,-0.9159700292124012
17.800999999998773,1.3235637943913896,-0.9339578606972453
18.000999999999017,1.3328369735600427,-0.9638994373728339
18.20099999999926,1.344084219173165,-0.9828616555270712
18.400999999999506,1.3603826320087327,-1.0055290536469903
18.60099999999975,1.3713914833731213,-1.0166510715106618
18.799999999999994,1.3878669477513232,-1.0370408464903054
19.000000000000238,1.408372311125136,-1.0495329505414552
19.200000000000482,1.4261385636071862,-1.063418034645222
19.400000000000727,1.4427307309605342,-1.075182626707955
19.60000000000097,1.4582003178540934,-1.0858811065300695
19.800000000001216,1.471375879056652,-1.0927537857809961
20.00000000000146,1.4864143348917553,-1.0972765273193403
