Time (s),X (m),Y (m)
0.001,0.00033312994539159724,0.0010275501737767782
0.20000000000000015,0.0009721801168264827,-0.0011522425074850214
0.4000000000000003,0.003630814205361391,-0.0039683455487700406
0.6000000000000004,0.009053099758423834,-0.0056381730300967825
0.8000000000000006,0.020316155039688116,-0.00869052821485447
1.0000000000000007,0.03210208821253181,-0.021527221562934733
1.2009999999999785,0.04913090694724494,-0.026050677627523125
1.4009999999999565,0.06681063219012669,-0.02297020120112202
1.6009999999999345,0.08124270648009568,-0.017620623961010277
1.8009999999999124,0.09440242215267339,-0.03147507061440536
2.0009999999998906,0.1098505615900525,-0.04234910829341129
2.2009999999998686,0.1385668932428761,-0.034987123849909985
2.4009999999998466,0.16241853134697196,-0.035252661863189934
2.6009999999998246,0.18092082637014836,-0.03972808480428363
2.8009999999998025,0.19938349624763266,-0.046839103927406256
3.0009999999997805,0.2175708911779267,-0.055259302977105636
3.2009999999997585,0.23645305621510176,-0.05850194053135111
3.4009999999997365,0.2518243117609783,-0.07928189076562012
3.6009999999997144,0.2670911821291825,-0.09805503411876788
3.8009999999996924,0.28740170724560304,-0.10829252693665115
4.000999999999671,0.3080909367617476,-0.09900682506259655
4.200999999999738,0.32817617843986113,-0.10556835169594271
4.400999999999804,0.34515730574569725,-0.1194869463178162
4.600999999999871,0.3648665557693432,-0.12984697233972248
4.800999999999938,0.38577272255965744,-0.14552243743484095
5.000000000000004,0.392833161604995,-0.165090993837383
5.200000000000071,0.38341149744494274,-0.17245793265735396
5.400000000000138,0.36288491410612744,-0.18751796054342526
5.600000000000205,0.3407235707162518,-0.19724313616282724
5.800000000000272,0.3133312858130085,-0.2000274299436088
6.000000000000338,0.2862732529299683,-0.19645141669589478
6.200000000000405,0.27364361947763555,-0.1850500894452192
6.400000000000472,0.263797628094454,-0.17266990347038974
6.600000000000539,0.23838947378566996,-0.16385547877671153
6.800000000000606,0.2053455381557692,-0.15311740603579144
7.000000000000672,0.1698686902235218,-0.15355511047934192
7.200000000000739,0.13452965887199284,-0.1621942295232026
7.400000000000806,0.1120028448527632,-0.1615200779571133
7.600000000000873,0.08864305727710432,-0.1520289315137574
7.8000000000009395,0.06421340891203292,-0.14941702260587497
8.000000000001005,0.0400645702680113,-0.13312052987246223
8.200000000000895,0.014171485705063323,-0.12914456755546025
8.400000000000784,-0.0135746734598762,-0.11794962438293781
8.600000000000673,-0.038514446759935116,-0.10195989019516126
8.800000000000562,-0.0619767661844719,-0.09015549325898103
9.000000000000451,-0.08748324206672732,-0.07431150785930922
9.20000000000034,-0.11604345689203704,-0.055433876977897784
9.40000000000023,-0.1440830894532553,-0.0327918703908673
9.600000000000119,-0.17303682683074034,-0.017854395185331384
9.800000000000008,-0.2025978621723573,-0.013265854864246697
10.000999999999896,-0.22917863948483208,0.007070736257569329
10.200999999999786,-0.26015166756465097,0.025755672742631838
10.400999999999675,-0.28726794354477875,0.04305354726844656
10.600999999999564,-0.3102025814103087,0.06511341823634852
10.800999999999453,-0.3363719615166476,0.08136004410561667
11.000999999999342,-0.35617073981616515,0.10499053254221978
11.200999999999231,-0.37530936966530415,0.13137042494838452
11.40099999999912,-0.39195956801582904,0.1598220199500815
11.60099999999901,-0.40570029979705213,0.18676725328940294
11.800999999998899,-0.4064024039398383,0.21327973640133183
12.000999999998788,-0.38118796683478884,0.23455668116565961
12.200999999998677,-0.3621392771122014,0.2526863109551588
12.400999999998566,-0.35326487862688394,0.2802408709872503
12.600999999998455,-0.3364762580925722,0.30988871057076817
12.800999999998345,-0.3166087203189081,0.3409351759889645
13.000999999998234,-0.3080165531550214,0.3646702041678992
13.200999999998123,-0.30104160079219044,0.3894288687715728
13.400999999998012,-0.29570811807263786,0.4167739585473131
13.600999999997901,-0.29489391635256607,0.4448954423958447
13.80099999999779,-0.2972872863370209,0.4759545632620566
14.00099999999768,-0.2875900826577498,0.5012636083941528
14.200999999997569,-0.27908014189432684,0.5326757011172409
14.400999999997458,-0.26840153555402496,0.5620417535423433
14.600999999997347,-0.2506113709311304,0.5848641860090928
14.800999999997236,-0.23069766810551867,0.5995176249807247
15.000999999997125,-0.20444821111533049,0.6010713951743941
15.200999999997014,-0.18169837138473763,0.5859612219145687
15.400999999996904,-0.1575466174682899,0.5670495746317007
15.600999999996793,-0.1351725772778485,0.5467119955708902
15.800999999996682,-0.11662927450943199,0.5204924644215962
16.000999999996573,-0.10168479407108963,0.48932293295283075
16.200999999996817,-0.09743855570549458,0.45447493168902114
16.40099999999706,-0.11694989762837192,0.4288085449004388
16.600999999997306,-0.1355510622073574,0.40511461100286644
16.80099999999755,-0.15015160844937805,0.3808652555926657
17.000999999997795,-0.16410322974800703,0.3614703911277699
17.20099999999804,-0.17095177698513156,0.3378122387512739
17.400999999998284,-0.1616818884324187,0.31385546757950566
17.60099999999853,-0.1549397700738518,0.28045461803174115
17.800999999998773,-0.16068344252745986,0.24712719774227326
18.000999999999017,-0.16234215805280774,0.21125635893567046
18.20099999999926,-0.17294953733406448,0.17418573087105765
18.400999999999506,-0.1932500554166519,0.13480123077686298
18.60099999999975,-0.22116649580687034,0.1144019613219771
18.799999999999994,-0.25428144702065714,0.11302646221822399
19.000000000000238,-0.29133140040755745,0.1171825110619082
19.200000000000482,-0.3311325157884514,0.12322481466574413
19.400000000000727,-0.34967255699452704,0.14006630430430714
19.60000000000097,-0.3538121136286283,0.16594570136796258
19.800000000001216,-0.3551435134554551,0.20430798281603255
20.00000000000146,-0.3442838592669816,0.23894599020785046
