Time (s),X (m),Y (m)
0.001,-0.0005118051130574255,-0.0004359202765531099
0.20000000000000015,0.0008761409404913846,-1.7630839259578326e-05
0.4000000000000003,0.0014021366115483515,9.941797925041323e-05
0.6000000000000004,0.0025068560736526634,0.0007572598980921569
0.8000000000000006,0.0038957617922165256,0.0017382521727442553
1.0000000000000007,0.005578042808573733,0.0029811519017052786
1.2009999999999785,0.007320804068069848,0.004261580052104971
1.4009999999999565,0.00911091528988292,0.00547706987336606
1.6009999999999345,0.011006915877895587,0.006777190852219207
1.8009999999999124,0.012989966781017888,0.008167724507771269
2.0009999999998906,0.01506342459485593,0.009654424193872036
2.2009999999998686,0.017235673932535993,0.011242806039597654
2.4009999999998466,0.019496126360736197,0.01292253656747431
2.6009999999998246,0.02184168456341279,0.01469772572970863
2.8009999999998025,0.024254044298923732,0.016553119004318575
3.0009999999997805,0.026732140123382347,0.018494209737238677
3.2009999999997585,0.029271001254539037,0.020519169491352327
3.4009999999997365,0.03228176819458179,0.022822437930313928
3.6009999999997144,0.03546239996006083,0.025815780906505856
3.8009999999996924,0.03850664276515792,0.029043338593876283
4.000999999999671,0.04153873176664292,0.03213511981252556
4.200999999999738,0.0445466620911124,0.035042567480962204
4.400999999999804,0.04759311326740825,0.03791140795241351
4.600999999999871,0.05054167824250055,0.04082393311189315
4.800999999999938,0.05349134833049462,0.04389519811272755
5.000000000000004,0.056389407142156435,0.04712084943998551
5.200000000000071,0.05925865451239831,0.050450287075670106
5.400000000000138,0.06206201617292424,0.0535954829410741
5.600000000000205,0.06478613042762713,0.056659687505254956
5.800000000000272,0.06753951824928382,0.05996055706036407
6.000000000000338,0.07012236148565877,0.06303969529851568
6.200000000000405,0.0726568201522463,0.06612580073760306
6.400000000000472,0.07512373151633557,0.06923686825760543
6.600000000000539,0.07753719573093629,0.07236392150872191
6.800000000000606,0.07987286891568587,0.07549463353538564
7.000000000000672,0.08224248642204339,0.07874345086379726
7.200000000000739,0.0844593280948802,0.08192200702374694
7.400000000000806,0.08662270283435736,0.08508484662390507
7.600000000000873,0.08871513204708512,0.08826483355937247
7.8000000000009395,0.09073940757033673,0.09143023345485102
8.000000000001005,0.09269979418075537,0.09461387299576614
8.200000000000895,0.0945729991421435,0.09779755807571772
8.400000000000784,0.0963511268526778,0.10100996997515307
8.600000000000673,0.09796177714511908,0.10411301000910514
8.800000000000562,0.09952363853059855,0.10736465014975712
9.000000000000451,0.10085959999621451,0.1104431080764252
9.20000000000034,0.10206297445222397,0.11352500217384902
9.40000000000023,0.10306584794205238,0.11662377171582487
9.600000000000119,0.10392156106557984,0.11973354665979885
9.800000000000008,0.10463416145684225,0.12271715737526148
10.000999999999896,0.10521073199888734,0.12572506810777534
10.200999999999786,0.10561000367810693,0.1287417561639263
10.400999999999675,0.10592625423876888,0.13177624272260566
10.600999999999564,0.10613055971634205,0.1349624485755095
10.800999999999453,0.10620957187622004,0.13818922646080747
11.000999999999342,0.1061707588984818,0.14130128411950998
11.200999999999231,0.10601633429423782,0.14442729136828147
11.40099999999912,0.10572036586704318,0.14752162329249938
11.60099999999901,0.10529664149259364,0.1506815061375624
11.800999999998899,0.1047696174127098,0.15378523122387555
12.000999999998788,0.10411998859744397,0.15695278170524068
12.200999999998677,0.1033570505785529,0.1600950672752149
12.400999999998566,0.10249959558656917,0.16312747705545136
12.600999999998455,0.10153148396641257,0.16612669400594676
12.800999999998345,0.10047975686196695,0.16933123539835054
13.000999999998234,0.09931628468426079,0.1723628239652104
13.200999999998123,0.09803119443875954,0.17545640469525525
13.400999999998012,0.09666604396808039,0.17853927803483285
13.600999999997901,0.09521210620512195,0.18167207477436792
13.80099999999779,0.09370388101622351,0.1847712461117083
14.00099999999768,0.09211032682319652,0.1879512748823536
14.200999999997569,0.09046975350751431,0.19110516120665122
14.400999999997458,0.08871775824760679,0.19418497582008393
14.600999999997347,0.08694183975715679,0.19739634021443284
14.800999999997236,0.08506841701454028,0.2006637617726086
15.000999999997125,0.08316565678235065,0.2038925475574323
15.200999999997014,0.08115904054595877,0.20721115775114582
15.400999999996904,0.07912983599968608,0.2104851264579136
15.600999999996793,0.07700096491294103,0.21397913227703366
15.800999999996682,0.07484215799143587,0.21730920547863883
16.000999999996573,0.07256528919418496,0.22067890578811494
16.200999999996817,0.07027205907003582,0.22404470030931742
16.40099999999706,0.06786247554857848,0.22754346044737908
16.600999999997306,0.06545323379432112,0.23088705476705365
16.80099999999755,0.06291694984212735,0.23428962250503102
17.000999999997795,0.06037129059417419,0.23762479167546963
17.20099999999804,0.0577015007276998,0.24100941007191629
17.400999999998284,0.055026664923858395,0.2443276035088382
17.60099999999853,0.052218437879791336,0.24769493747524657
17.800999999998773,0.04941805127422301,0.25100050170208227
18.000999999999017,0.046520534814460966,0.25420896973697493
18.20099999999926,0.04359579189213557,0.2575077186954893
18.400999999999506,0.04060574596853142,0.2606943393385835
18.60099999999975,0.03757825935574469,0.26396737412450333
18.799999999999994,0.03450105405202676,0.2671590497852279
19.000000000000238,0.03141052950817395,0.2703245642155226
19.200000000000482,0.02823831881086834,0.2734899643409975
19.400000000000727,0.02506845876422397,0.27663205103310695
19.60000000000097,0.02180315494963744,0.2797737218493886
19.800000000001216,0.018541115452089772,0.28289869990173505
20.00000000000146,0.015195406420470077,0.2860110576068054
