Time (s),X (m),Y (m)
0.001,0.0009387665610552813,0.0008932837685830061
0.20000000000000015,0.0009654789823066041,0.00013770317873015912
0.4000000000000003,0.0019101705872884179,0.00043369831021686467
0.6000000000000004,0.0045689418273051,0.002360783911341321
0.8000000000000006,0.00728928255825322,0.005591718734091379
1.0000000000000007,0.009617195220906365,0.0039401403702802
1.2009999999999785,0.01167421773190964,0.004430957266034433
1.4009999999999565,0.015893809194995594,0.0062872978982594155
1.6009999999999345,0.019550891954208588,0.006115346621008653
1.8009999999999124,0.023157337514149955,0.007329748439722426
2.0009999999998906,0.026657594968225205,0.007432145244953997
2.2009999999998686,0.030980039867823533,0.012557370056156786
2.4009999999998466,0.034935137857249755,0.012517912191646368
2.6009999999998246,0.03859800935722056,0.012805859831181687
2.8009999999998025,0.04303979390004643,0.013820687909998181
3.0009999999997805,0.04657610381212326,0.0146085034149187
3.2009999999997585,0.05146654916943565,0.015035533386308047
3.4009999999997365,0.055536704589810214,0.015110630514183614
3.6009999999997144,0.06026517227545141,0.01653246114029993
3.8009999999996924,0.06613022169295493,0.01806818286771185
4.000999999999671,0.07153886286117041,0.019255920550928708
4.200999999999738,0.07693393330523833,0.020312637549348915
4.400999999999804,0.08227430390538501,0.022253476998500096
4.600999999999871,0.08835508097292702,0.025455823866908225
4.800999999999938,0.09298728888755996,0.02630643384963056
5.000000000000004,0.09742225563934577,0.028151449853513845
5.200000000000071,0.1033411654349419,0.030188277257600298
5.400000000000138,0.1078003945094799,0.02974557978421823
5.600000000000205,0.11287287566654047,0.029525403885306882
5.800000000000272,0.11865592113124751,0.029881386189181226
6.000000000000338,0.12577701145108314,0.03220108976666479
6.200000000000405,0.13151086514537366,0.0342257155434639
6.400000000000472,0.13724801063960315,0.03505032531345064
6.600000000000539,0.14464665819335953,0.03934028309705993
6.800000000000606,0.15111751588235808,0.04145630026088083
7.000000000000672,0.1580480377632525,0.04217267464082592
7.200000000000739,0.16445441987774104,0.04506842330293885
7.400000000000806,0.17075266454709678,0.04731193304204666
7.600000000000873,0.17686739796790263,0.04877545727011381
7.8000000000009395,0.18385341345778988,0.05176292617075988
8.000000000001005,0.1896875115493596,0.05322430998506972
8.200000000000895,0.1962558389579768,0.0559793313038356
8.400000000000784,0.2034376332014523,0.058421016210092165
8.600000000000673,0.20879784539256735,0.06231015321589228
8.800000000000562,0.21501100657022987,0.06525865284892055
9.000000000000451,0.22166995069115789,0.06849234633354329
9.20000000000034,0.2282479975449294,0.07209272237427773
9.40000000000023,0.2346050915355849,0.07411476974410187
9.600000000000119,0.23823760936880106,0.08147881183246887
9.800000000000008,0.24342150489201292,0.08653620071528738
10.000999999999896,0.24861778658003036,0.08896170600200341
10.200999999999786,0.25383088612128524,0.09103080064137226
10.400999999999675,0.2590303711329518,0.09233862779056988
10.600999999999564,0.26324138878591613,0.09891109700682979
10.800999999999453,0.26747638871397866,0.10247077714808651
11.000999999999342,0.27193839826529226,0.10697272036627285
11.200999999999231,0.27529899397404745,0.11196088619925884
11.40099999999912,0.2802864085832368,0.1149775378636123
11.60099999999901,0.2815745832905749,0.12305055122445296
11.800999999998899,0.2838906592290234,0.12817854272248624
12.000999999998788,0.284955278267265,0.13347264446408239
12.200999999998677,0.2870027460238819,0.13791552436171164
12.400999999998566,0.2892974565289836,0.14448867787756475
12.600999999998455,0.289878370312318,0.1517935505252774
12.800999999998345,0.29122354570134174,0.15864114905876606
13.000999999998234,0.29267306160554823,0.16445974492656007
13.200999999998123,0.29250622428097706,0.1712159731247558
13.400999999998012,0.2932501165105542,0.17688198844328964
13.600999999997901,0.293264974802107,0.18304156716261805
13.80099999999779,0.29268633160686847,0.19102317191439216
14.00099999999768,0.2924987072465899,0.19806749128331005
14.200999999997569,0.29222519982921497,0.20480003776428474
14.400999999997458,0.2913162721522437,0.21252661452799612
14.600999999997347,0.2909075420620978,0.2194431809307815
14.800999999997236,0.28977915235931817,0.22643641325184924
15.000999999997125,0.2902480002343016,0.23305248712137563
15.200999999997014,0.28877739607523834,0.2407233690013927
15.400999999996904,0.28661024698943666,0.24833020596512337
15.600999999996793,0.28625422795989675,0.2563077033684778
15.800999999996682,0.2852343906800293,0.26414185460276374
16.000999999996573,0.28161359853102885,0.2718701629591338
16.200999999996817,0.2781761034851566,0.28096053053145276
16.40099999999706,0.277300452957685,0.2889332846367101
16.600999999997306,0.2747747139170379,0.2970619378249199
16.80099999999755,0.27371058730485137,0.30512524610672037
17.000999999997795,0.2715001535261271,0.31340287655155113
17.20099999999804,0.26987893608466523,0.3216862613629376
17.400999999998284,0.2674480205691538,0.3293473091163973
17.60099999999853,0.26519583469917124,0.33624402760494687
17.800999999998773,0.2604798446009905,0.3439582366802705
18.000999999999017,0.2543352743931088,0.3504727578534671
18.20099999999926,0.2514726854880019,0.35699271965656487
18.400999999999506,0.24872433990463583,0.36416606954777025
18.60099999999975,0.24690248310533963,0.3704837883564381
18.799999999999994,0.2423375748701169,0.37559769450293096
19.000000000000238,0.2370119796795166,0.37993793586845975
19.200000000000482,0.23265475316672676,0.3844019947928004
19.400000000000727,0.22624173232483824,0.38869908953072846
19.60000000000097,0.22246398718806937,0.3927186303525049
19.800000000001216,0.2179364194116787,0.3948360411452655
20.00000000000146,0.21386432040501352,0.39864639202799407
