Time (s),X (m),Y (m)
0.001,0.001392298616347667,0.0003527853123316693
0.20000000000000015,0.0006745182504220556,8.032720750147063e-05
0.4000000000000003,0.0026977372702727534,0.0010427119337290554
0.6000000000000004,0.0045841199997986104,0.0032624038642757908
0.8000000000000006,0.010961752186276683,0.007669064499844366
1.0000000000000007,0.015447723855362463,0.014456319194334086
1.2009999999999785,0.02116702991666707,0.020392681675513172
1.4009999999999565,0.024043131224714485,0.024046834095623106
1.6009999999999345,0.029666064781963725,0.030642884314906128
1.8009999999999124,0.03159259256886887,0.03611878924109235
2.0009999999998906,0.03355498935658517,0.03843505581212178
2.2009999999998686,0.03824002823296142,0.045875293598650876
2.4009999999998466,0.04235809582871006,0.05492724116588047
2.6009999999998246,0.051152934534505534,0.06402184183261807
2.8009999999998025,0.06279209163249037,0.07152429050252733
3.0009999999997805,0.07292161515190576,0.0783820534247059
3.2009999999997585,0.08567547689757551,0.08943405228511092
3.4009999999997365,0.0983939751638714,0.10367181889526474
3.6009999999997144,0.10640588398748363,0.11771190355435035
3.8009999999996924,0.10999561432526972,0.12106988331583023
4.000999999999671,0.12126116593567127,0.13654903816606195
4.200999999999738,0.13408958626526038,0.1558061005716398
4.400999999999804,0.14951843835934928,0.16296198171536883
4.600999999999871,0.1580267421999249,0.17352713058002237
4.800999999999938,0.16887533461692647,0.1917242028812622
5.000000000000004,0.17758205772654265,0.20625438765408263
5.200000000000071,0.18584924793215182,0.22859270242299434
5.400000000000138,0.19536961632768854,0.2465556761332499
5.600000000000205,0.20168637702757436,0.2685501112203996
5.800000000000272,0.21159443059395902,0.27950084137003467
6.000000000000338,0.2195861205806718,0.2911904113232962
6.200000000000405,0.22744775036189607,0.30790143443117624
6.400000000000472,0.2344853906087079,0.32891274487095723
6.600000000000539,0.24196241822111916,0.34803839388716856
6.800000000000606,0.25236379916215596,0.3663870337126166
7.000000000000672,0.2575990391861907,0.3857297564537117
7.200000000000739,0.2657352689092307,0.40317221446975315
7.400000000000806,0.2747857809919873,0.41594401723460556
7.600000000000873,0.2820362296571541,0.4347465274534829
7.8000000000009395,0.2881064267351378,0.4490132408823101
8.000000000001005,0.2961279849429434,0.46606367944946253
8.200000000000895,0.3071310748452477,0.4823797237474439
8.400000000000784,0.31594026677113807,0.5021124903274327
8.600000000000673,0.32273105097155574,0.5124202805523207
8.800000000000562,0.3303034616271484,0.5303653999321682
9.000000000000451,0.3371657169983664,0.5437371218661122
9.20000000000034,0.34389197952069245,0.5603606580315038
9.40000000000023,0.3528920916427721,0.5838001390530353
9.600000000000119,0.36240765368675093,0.6037720575156248
9.800000000000008,0.3726538895993758,0.6235925508279562
10.000999999999896,0.38491581529991375,0.6445163215948068
10.200999999999786,0.39762647405222795,0.6608058068153623
10.400999999999675,0.4085898018880386,0.6818707576035838
10.600999999999564,0.4144017174600673,0.6948736824690311
10.800999999999453,0.4200458801909867,0.7118749299684135
11.000999999999342,0.4248571203102844,0.7295986920417646
11.200999999999231,0.42146825549255945,0.7432011702420235
11.40099999999912,0.418406473251522,0.7569215279059571
11.60099999999901,0.41653499204939703,0.765620200185926
11.800999999998899,0.41336567818905123,0.7824259058983281
12.000999999998788,0.41276106122797596,0.7951267098747986
12.200999999998677,0.4095876920328721,0.8139754766996412
12.400999999998566,0.409776309379602,0.8309842410078604
12.600999999998455,0.4160998208778268,0.8524787596477202
12.800999999998345,0.424491699008218,0.8699800432625419
13.000999999998234,0.43026140940992275,0.8872796834500656
13.200999999998123,0.43384344310156486,0.910738764626427
13.400999999998012,0.4428014200530616,0.9298041540852744
13.600999999997901,0.45336856867833475,0.9408653571019123
13.80099999999779,0.46912862890898843,0.9622792384956432
14.00099999999768,0.4807849488864335,0.9875924583899655
14.200999999997569,0.49420024554404335,1.0106188363211217
14.400999999997458,0.5075328045641159,1.0307036022843739
14.600999999997347,0.5220107144217424,1.0558560431495958
14.800999999997236,0.5380966296888818,1.079317193776348
15.000999999997125,0.5579112984500517,1.1065691357046465
15.200999999997014,0.5778626773121102,1.1245528259896675
15.400999999996904,0.5901211285411339,1.1447125166561014
15.600999999996793,0.6013808364750337,1.1658504446697178
15.800999999996682,0.6063981996955838,1.181824803190139
16.000999999996573,0.6119241246617025,1.200433045384019
16.200999999996817,0.6194304978739282,1.2191660179928847
16.40099999999706,0.6291740418495018,1.2347272054766838
16.600999999997306,0.6382298202840504,1.2605137297065834
16.80099999999755,0.6468531131793478,1.2806808807598464
17.000999999997795,0.6538191761233821,1.300833124571435
17.20099999999804,0.6580071284070836,1.321395426834105
17.400999999998284,0.6640071920012158,1.3423165067752663
17.60099999999853,0.6729414265661182,1.3638562303749793
17.800999999998773,0.6816704006270947,1.3850177253628784
18.000999999999017,0.6868449260744754,1.4046037034951488
18.20099999999926,0.689783198624097,1.4328092389577467
18.400999999999506,0.6952724970841306,1.4541469378265586
18.60099999999975,0.7003644401269934,1.4756665703665404
18.799999999999994,0.7032671814468092,1.5051611411942256
19.000000000000238,0.7043242636072817,1.53064247882572
19.200000000000482,0.7068911731955692,1.550416467702051
19.400000000000727,0.7123247960597763,1.5663117384993008
19.60000000000097,0.7186001894084314,1.581359002338231
19.800000000001216,0.7257589656752991,1.6017306704264878
20.00000000000146,0.7314671404090765,1.6269708727004726
