Time (s),X (m),Y (m)
0.001,-9.270868745296317e-05,-0.0008932837685830058
0.20000000000000015,0.0008431198770890128,4.763199089284197e-06
0.4000000000000003,0.0014329344099404848,8.879981406543843e-05
0.6000000000000004,0.00243294814795304,0.0004002041022079454
0.8000000000000006,0.003989401386651114,0.0011020822927904437
1.0000000000000007,0.004986579566122844,0.0007002207203296232
1.2009999999999785,0.007109062127910206,0.002050030684123451
1.4009999999999565,0.008960642647803847,0.0030307986478544774
1.6009999999999345,0.010210165247955908,0.003601416694648536
1.8009999999999124,0.01208937602641047,0.004419665125867091
2.0009999999998906,0.01402066243046465,0.005456539979095495
2.2009999999998686,0.01618614044988117,0.006797106376875359
2.4009999999998466,0.018802773748567193,0.009211432423581129
2.6009999999998246,0.021117180596630824,0.010446756808810756
2.8009999999998025,0.02348412276030769,0.011959836905005185
3.0009999999997805,0.02593266453975452,0.014722790426247693
3.2009999999997585,0.028402232881106985,0.016984996310149478
3.4009999999997365,0.03089043570924941,0.018728076970752155
3.6009999999997144,0.03322680481192936,0.020133774322776982
3.8009999999996924,0.03550708155511005,0.021547927341648614
4.000999999999671,0.03788393617286099,0.023567033491823743
4.200999999999738,0.040487016657769014,0.025680549578718716
4.400999999999804,0.04281218873255915,0.027935982970489437
4.600999999999871,0.04527837948171712,0.029639586190544166
4.800999999999938,0.04725287380069458,0.031961731836660894
5.000000000000004,0.04930391014464421,0.03398831604822706
5.200000000000071,0.05117176937032945,0.03658926507239456
5.400000000000138,0.053016924412542944,0.03898179170513043
5.600000000000205,0.05447789279112033,0.0415162297302947
5.800000000000272,0.05566165220202751,0.043881015252468264
6.000000000000338,0.05700388644600719,0.04586797239240139
6.200000000000405,0.0576158976734614,0.04855135829873174
6.400000000000472,0.05801404958454467,0.05153954910009074
6.600000000000539,0.05815192148229338,0.05437091209437513
6.800000000000606,0.058595853627867844,0.05690990668118243
7.000000000000672,0.05892487382132457,0.05981795841978163
7.200000000000739,0.05902844300359134,0.06295029012220937
7.400000000000806,0.05898002916401789,0.06571258932155058
7.600000000000873,0.05885422445520829,0.06852791490653479
7.8000000000009395,0.05866441681993106,0.07133366908439734
8.000000000001005,0.05754316155476343,0.07490328854787753
8.200000000000895,0.05748572679229771,0.07727059658496652
8.400000000000784,0.05607351041510318,0.08111380209349323
8.600000000000673,0.055227712120946806,0.08378797260825052
8.800000000000562,0.05470746123848367,0.08622981558291375
9.000000000000451,0.05292383110135004,0.08994858526199122
9.20000000000034,0.05061414589006348,0.09366890445991118
9.40000000000023,0.04897625564427788,0.09674304475810894
9.600000000000119,0.04675116937311301,0.09992011671523336
9.800000000000008,0.04422416288798122,0.10334194579373747
10.000999999999896,0.0413839148548423,0.10685472194364098
10.200999999999786,0.03849663701265313,0.11041594555377302
10.400999999999675,0.03618180431731733,0.1133731194563903
10.600999999999564,0.033415624724678884,0.11684534063903634
10.800999999999453,0.031001956520442336,0.11986541021039128
11.000999999999342,0.028230713274405114,0.12304762871952592
11.200999999999231,0.025300297772230335,0.12625240292565904
11.40099999999912,0.023247502147910198,0.12921125503140132
11.60099999999901,0.02082906395574562,0.13220698816538032
11.800999999998899,0.018260207631951256,0.13502347259202643
12.000999999998788,0.015401774011878424,0.1379247087255439
12.200999999998677,0.01218644832934273,0.14067986033664762
12.400999999998566,0.008885739198577172,0.14344376784618137
12.600999999998455,0.006069742314511576,0.1461475647760072
12.800999999998345,0.002928756956895141,0.1488160340438806
13.000999999998234,0.00037535825103638814,0.15138764783486183
13.200999999998123,-0.0022245625498175194,0.15368364822846706
13.400999999998012,-0.0051774959184371395,0.1558979552319855
13.600999999997901,-0.008002288260382493,0.15801055264785727
13.80099999999779,-0.011626602312551184,0.15966363737506412
14.00099999999768,-0.015280095681978256,0.16079383716964465
14.200999999997569,-0.018119223405128015,0.16128731763994864
14.400999999997458,-0.021238231376667235,0.16131159134517467
14.600999999997347,-0.02385016702838645,0.16162972036076498
14.800999999997236,-0.027218808247513677,0.1618756355147472
15.000999999997125,-0.031150316696898696,0.16176468289265475
15.200999999997014,-0.03554290410456226,0.16117052183482233
15.400999999996904,-0.03800196304153258,0.16116074372587527
15.600999999996793,-0.04201881767973744,0.1603590809132568
15.800999999996682,-0.04685627429198925,0.15898701419626582
16.000999999996573,-0.051059612532568445,0.15769321543945056
16.200999999996817,-0.05433048020594871,0.1567890160807304
16.40099999999706,-0.05702111459233084,0.15605063177603712
16.600999999997306,-0.059445299117590784,0.15563765073663435
16.80099999999755,-0.06251025899183275,0.15444833609746467
17.000999999997795,-0.0659918348831401,0.15273635516063705
17.20099999999804,-0.07052697625139091,0.14942914713458577
17.400999999998284,-0.07409641201727718,0.14694199227788726
17.60099999999853,-0.0774382926606352,0.14486184344328834
17.800999999998773,-0.08089858334371748,0.14237237942284658
18.000999999999017,-0.08401840803595964,0.14043824222062917
18.20099999999926,-0.08718988037400545,0.13823663440643782
18.400999999999506,-0.09075473627368293,0.1352180079572129
18.60099999999975,-0.09437992092806713,0.13192138896029296
18.799999999999994,-0.09754383621828722,0.12946045030231487
19.000000000000238,-0.10105823568870334,0.12585860526424075
19.200000000000482,-0.10436976995208208,0.12246858062820351
19.400000000000727,-0.10753577887990119,0.11974352259023953
19.60000000000097,-0.11069020499299924,0.11675543592511296
19.800000000001216,-0.1136026321671816,0.1141062085696698
20.00000000000146,-0.1165367783904573,0.11121519522864702
