Time (s),X (m),Y (m)
0.001,0.0014193575185132074,0.0002669654388657892
0.20000000000000015,0.0009253684149957322,-2.5482046180057904e-05
0.4000000000000003,0.0022364803056796004,0.000909529877554544
0.6000000000000004,0.004002683149862735,0.0010042988201285784
0.8000000000000006,0.009148838577091081,0.00311850666181834
1.0000000000000007,0.014022719531120503,0.007384848865023613
1.2009999999999785,0.020676373934986298,0.010584224128195086
1.4009999999999565,0.02658680576900852,0.014358609520314664
1.6009999999999345,0.02944426291887934,0.022072500882816874
1.8009999999999124,0.0381425164302951,0.028181503574268
2.0009999999998906,0.042685842976009775,0.03174743752581628
2.2009999999998686,0.04775201775659048,0.037449933833020574
2.4009999999998466,0.05511147206271917,0.0442389586127233
2.6009999999998246,0.059770478779800844,0.052076261485404694
2.8009999999998025,0.06416598864983983,0.061054911290277666
3.0009999999997805,0.06828163544870793,0.06807356011229858
3.2009999999997585,0.07520367744095405,0.07442898472239379
3.4009999999997365,0.08148894979942609,0.07961535525454803
3.6009999999997144,0.08683208382788932,0.08589826221150529
3.8009999999996924,0.094566817207688,0.09259579987411096
4.000999999999671,0.10090142278392933,0.09812318963284546
4.200999999999738,0.10705989030873449,0.10744009593330368
4.400999999999804,0.11765738685989793,0.11740427336716838
4.600999999999871,0.1251475119390147,0.12200788341340042
4.800999999999938,0.13354398644875146,0.1312250275769156
5.000000000000004,0.14421596825229305,0.14172994920698898
5.200000000000071,0.15103303450254849,0.1528230933133126
5.400000000000138,0.15691569375345554,0.15952296239906266
5.600000000000205,0.16209865040958793,0.16813845914243145
5.800000000000272,0.16821789684681807,0.17655033869973766
6.000000000000338,0.17625450859746183,0.18626779137765725
6.200000000000405,0.1829149579137731,0.19470013253664364
6.400000000000472,0.18768576397842873,0.20255431907580362
6.600000000000539,0.1897945117019121,0.2104632802265998
6.800000000000606,0.19470900010388795,0.21886074086922558
7.000000000000672,0.19924693142743075,0.2273712757744826
7.200000000000739,0.20371651700806145,0.2370401223925044
7.400000000000806,0.2108369094063905,0.24717663487160096
7.600000000000873,0.21748183091052445,0.2576458931625766
7.8000000000009395,0.22385837687647225,0.2711339738404804
8.000000000001005,0.23040022602013788,0.28316342364564856
8.200000000000895,0.2368817352348152,0.28850628185297905
8.400000000000784,0.2431768176325147,0.3000211626005822
8.600000000000673,0.24845601103846868,0.3097122548241273
8.800000000000562,0.25289251213954467,0.3194324706808912
9.000000000000451,0.2563492406052828,0.3288289062429975
9.20000000000034,0.2589070605390281,0.337145042970374
9.40000000000023,0.26426707164254576,0.34248408960703747
9.600000000000119,0.2670691359785914,0.3520287126903001
9.800000000000008,0.27113105702720675,0.36791886749626107
10.000999999999896,0.2767612660646996,0.3746006821719228
10.200999999999786,0.2824699276081373,0.37872358361327557
10.400999999999675,0.28423251793784576,0.3837025552343169
10.600999999999564,0.2827941510455884,0.39165644010428585
10.800999999999453,0.28292639414566784,0.4037860850983065
11.000999999999342,0.28627008059533476,0.42091570842295495
11.200999999999231,0.28850638285845015,0.4287521282786222
11.40099999999912,0.2932213229716348,0.4369587922960516
11.60099999999901,0.29708546196934904,0.44314497582252904
11.800999999998899,0.29734734223717857,0.45464570319737474
12.000999999998788,0.3009359999250067,0.4667745171630817
12.200999999998677,0.30475433163333415,0.47467585308592586
12.400999999998566,0.30745425925382497,0.48698585936142236
12.600999999998455,0.31142623221895305,0.49815086524086494
12.800999999998345,0.31644813929968174,0.5062231176108739
13.000999999998234,0.31901041179494893,0.5182051110321436
13.200999999998123,0.32063665280876996,0.5309306143504493
13.400999999998012,0.32399557247378513,0.5450118157598676
13.600999999997901,0.3287251268360601,0.5593710542978629
13.80099999999779,0.33222334757783756,0.5734968738433355
14.00099999999768,0.33330236296175747,0.582330302603234
14.200999999997569,0.33790549254429336,0.5885614124804855
14.400999999997458,0.3375339181844512,0.5962203796438539
14.600999999997347,0.3349017703651643,0.6073205280341605
14.800999999997236,0.3353929886141914,0.6139282307796805
15.000999999997125,0.3381281098195978,0.6229920359073465
15.200999999997014,0.3396221981591044,0.6337151768710534
15.400999999996904,0.3435825858391267,0.6386866585007088
15.600999999996793,0.34686833327649885,0.6529351991361461
15.800999999996682,0.3495277260164446,0.6612466003377254
16.000999999996573,0.3500311265062204,0.6762800795495382
16.200999999996817,0.3509719892930205,0.6883953703899721
16.40099999999706,0.3515403358374575,0.6969679100217089
16.600999999997306,0.3516665671984619,0.7089227679631898
16.80099999999755,0.35234079405648483,0.7218652286443785
17.000999999997795,0.35298762177490656,0.7321520785736586
17.20099999999804,0.3540884474130216,0.7410311930603567
17.400999999998284,0.3535389886586006,0.7513797563666815
17.60099999999853,0.3523663223284076,0.7658200662237826
17.800999999998773,0.35324370249692727,0.7708134635356984
18.000999999999017,0.35545535713324855,0.7791283947895222
18.20099999999926,0.35869941336831945,0.7881838102789409
18.400999999999506,0.36183161313459833,0.8048455862594918
18.60099999999975,0.3643780361168328,0.8198636099532941
18.799999999999994,0.368411539537915,0.8318880129083202
19.000000000000238,0.3729190476929454,0.8384399148963605
19.200000000000482,0.37424344047183433,0.8521761812246637
19.400000000000727,0.37784060922991614,0.8648200506891053
19.60000000000097,0.3797760907455849,0.8817152794292414
19.800000000001216,0.3849011734967516,0.8943480486443229
20.00000000000146,0.39101416856603544,0.9097581610958912
