Time (s),X (m),Y (m)
0.001,-0.0004702548317818469,-0.0005157376242541218
0.20000000000000015,0.0017312005413992466,0.0006274120118075323
0.4000000000000003,0.0027555994475040053,0.001859494200568903
0.6000000000000004,0.0095234544221432,0.005621823930480702
0.8000000000000006,0.01854492357577282,0.009165680519178359
1.0000000000000007,0.028464687882212156,0.015431434930560109
1.2009999999999785,0.04357808306148961,0.02602845975603993
1.4009999999999565,0.06979926069920515,0.03959498991964756
1.6009999999999345,0.08727529391905085,0.049733499871349396
1.8009999999999124,0.0931688622727289,0.051299770183224055
2.0009999999998906,0.10711864503379626,0.048382718366426616
2.2009999999998686,0.12102097968679788,0.04721774671454175
2.4009999999998466,0.1364284199252289,0.049480015708891725
2.6009999999998246,0.1526189001476307,0.05536169430353056
2.8009999999998025,0.15834442725584025,0.05988631998261004
3.0009999999997805,0.16210801026791113,0.0628600835506559
3.2009999999997585,0.17669865568814264,0.06485956139873883
3.4009999999997365,0.20090546467227124,0.07406407109824767
3.6009999999997144,0.2204813088630816,0.08225603281242977
3.8009999999996924,0.24335048354044628,0.09394761491249097
4.000999999999671,0.2628810213848699,0.10716729563537068
4.200999999999738,0.2782260315293866,0.11121911204600979
4.400999999999804,0.2947099608816406,0.10635731742993894
4.600999999999871,0.29835263893371833,0.09863822194431916
4.800999999999938,0.3084289146710714,0.08863438134767201
5.000000000000004,0.3248874028164165,0.07501168466120249
5.200000000000071,0.3448355315810105,0.057771164620767486
5.400000000000138,0.37331968425395146,0.03815528168729978
5.600000000000205,0.41480874759735564,0.019247339702537634
5.800000000000272,0.45045751321653543,0.0025089261693633795
6.000000000000338,0.47447758593414086,-0.016105719856598793
6.200000000000405,0.5069345751158943,-0.0268860348151076
6.400000000000472,0.5236682278429727,-0.03619908944202104
6.600000000000539,0.5441276935451882,-0.03933192051748798
6.800000000000606,0.5694310186469117,-0.040124685878466966
7.000000000000672,0.5935132705935734,-0.041792416568258925
7.200000000000739,0.6221237329624306,-0.04745220234155247
7.400000000000806,0.6456025812257873,-0.057638689724705566
7.600000000000873,0.6685678099023087,-0.07186892884090175
7.8000000000009395,0.7039099065581588,-0.08763678955219024
8.000000000001005,0.739540137656724,-0.10346784820393587
8.200000000000895,0.7616576280932078,-0.11546319886187265
8.400000000000784,0.7808638329673357,-0.12962917362196036
8.600000000000673,0.8035743192199027,-0.14718675955169963
8.800000000000562,0.8291481678626647,-0.1663878259413312
9.000000000000451,0.8573251998636625,-0.18518322061033166
9.20000000000034,0.882602902248944,-0.2068483190516246
9.40000000000023,0.9048103273907592,-0.2257631435671506
9.600000000000119,0.9278445866875957,-0.2473942207756819
9.800000000000008,0.9655489058713488,-0.26466040285922443
10.000999999999896,0.9974289380084771,-0.279785662439043
10.200999999999786,1.021433381900511,-0.2885535318008466
10.400999999999675,1.0571090397340075,-0.29243751723909817
10.600999999999564,1.0896466008869434,-0.29949940898993255
10.800999999999453,1.11910231614978,-0.31478918726520566
11.000999999999342,1.1497956678943346,-0.33578920959104797
11.200999999999231,1.1900575525229524,-0.3566733041948822
11.40099999999912,1.2172324595454573,-0.3742746875421364
11.60099999999901,1.2411483555316913,-0.3894183440717843
11.800999999998899,1.2645198195025171,-0.40632931570860725
12.000999999998788,1.2955389836681885,-0.4188627262003128
12.200999999998677,1.3249196552789173,-0.4334632600486451
12.400999999998566,1.3649521409738599,-0.44882572126921416
12.600999999998455,1.403275097564922,-0.4715791981986771
12.800999999998345,1.4318464268658757,-0.5010041470092835
13.000999999998234,1.4642726970515765,-0.5369250372158365
13.200999999998123,1.4965740904697609,-0.5705381871744752
13.400999999998012,1.5209805752568317,-0.5989171262461433
13.600999999997901,1.5387063496060565,-0.6235070382328272
13.80099999999779,1.5577542880289206,-0.643302340712473
14.00099999999768,1.5955290050314506,-0.6597681422759849
14.200999999997569,1.62683497773841,-0.6782468921073556
14.400999999997458,1.65064568457879,-0.6988172012968158
14.600999999997347,1.6863037714545537,-0.7195899903391803
14.800999999997236,1.7140164849865378,-0.7408002542003308
15.000999999997125,1.750766552159037,-0.7576279873114117
15.200999999997014,1.795273906231241,-0.7688380231550653
15.400999999996904,1.8330922369378853,-0.7861007136597039
15.600999999996793,1.87537341347658,-0.8110777152152562
15.800999999996682,1.9275939285363628,-0.8347735464122751
16.000999999996573,1.9690651016599154,-0.8656098797478008
16.200999999996817,2.0132139223805714,-0.9013118276279701
16.40099999999706,2.0659658881372147,-0.9433265452402122
16.600999999997306,2.1106736391580365,-0.9892832525330163
16.80099999999755,2.1530520087046394,-1.035194475770165
17.000999999997795,2.186277526622296,-1.0827794339132797
17.20099999999804,2.2195905268305522,-1.133945701477936
17.400999999998284,2.2493638612002025,-1.1772964156723134
17.60099999999853,2.2898920575079442,-1.213248915333167
17.800999999998773,2.3314642514325947,-1.2476569362883612
18.000999999999017,2.3719162970470236,-1.2813227223898451
18.20099999999926,2.406511475073353,-1.3133877553642976
18.400999999999506,2.4429703045112494,-1.3402591329995652
18.60099999999975,2.4696720259725353,-1.3603348509230724
18.799999999999994,2.4949791176466394,-1.3769557524731426
19.000000000000238,2.5274211498759915,-1.3834265277451967
19.200000000000482,2.56421536812847,-1.394496355287655
19.400000000000727,2.608501913933646,-1.4179519450722256
19.60000000000097,2.652249447204294,-1.4536681986048112
19.800000000001216,2.700551895794574,-1.4991730556837601
20.00000000000146,2.7414324622620683,-1.5478615745380249
