Time (s),X (m),Y (m)
0.001,0.0014505791105779379,-8.989899140956135e-05
0.20000000000000015,0.0005672837569206503,-4.1567737889494065e-05
0.4000000000000003,0.0012464438451844353,-6.263427733853897e-05
0.6000000000000004,0.0018438518051543534,-7.516432082397791e-05
0.8000000000000006,0.002490456171857572,-0.00015650117964405603
1.0000000000000007,0.0032851454165723584,-0.0002528064436406614
1.2009999999999785,0.003876437129346529,-0.00028263464962940445
1.4009999999999565,0.00464520136798456,-0.0003124266399426662
1.6009999999999345,0.005443943289550902,-0.0003406275393113884
1.8009999999999124,0.006200287628510009,-0.00036547717293606104
2.0009999999998906,0.0069788103575615925,-0.0003994011963620331
2.2009999999998686,0.0077799796740851785,-0.0004400056388263322
2.4009999999998466,0.008596768522474822,-0.0004812049181060112
2.6009999999998246,0.00943524266779975,-0.000523160825964723
2.8009999999998025,0.010295252250112545,-0.0005658580845189824
3.0009999999997805,0.011173189500994699,-0.0006102406684274732
3.2009999999997585,0.012069420631323264,-0.000658235607173947
3.4009999999997365,0.012986354065427827,-0.0007146072773018034
3.6009999999997144,0.013924582492297796,-0.0007794359869228325
3.8009999999996924,0.014884201715177034,-0.000850420430750518
4.000999999999671,0.01586642054173414,-0.0009198223021498682
4.200999999999738,0.016871356243838887,-0.0009872753905437878
4.400999999999804,0.017898639933061043,-0.0010528732084007315
4.600999999999871,0.018948126364053568,-0.001116660860432138
4.800999999999938,0.020019489605436685,-0.0011788949417444478
5.000000000000004,0.02111660526641095,-0.0012411057913240197
5.200000000000071,0.022230569123365143,-0.0013005249237449464
5.400000000000138,0.02336481873155322,-0.0013586453726530752
5.600000000000205,0.024519161642518036,-0.001415559471640002
5.800000000000272,0.02569348755328385,-0.0014712036933624618
6.000000000000338,0.026887952766919493,-0.0015254833355118043
6.200000000000405,0.028102886136549144,-0.001578416697550445
6.400000000000472,0.029338428023703574,-0.0016299755219763286
6.600000000000539,0.030594770118391446,-0.001680053245730641
6.800000000000606,0.03187215678315343,-0.0017285403395311126
7.000000000000672,0.03317091195450926,-0.0017753969837706889
7.200000000000739,0.03449125647976809,-0.0018206534287275365
7.400000000000806,0.035833493223474885,-0.0018641909547354868
7.600000000000873,0.037197747186670245,-0.0019058777744329254
7.8000000000009395,0.03858422400036123,-0.0019455685212444434
8.000000000001005,0.039993462938655765,-0.001983082069082135
8.200000000000895,0.04142575037351808,-0.002018523204560957
8.400000000000784,0.04288128741184325,-0.0020517764699435393
8.600000000000673,0.04436040031465337,-0.0020828124346121096
8.800000000000562,0.045863617033245124,-0.0021114801169265923
9.000000000000451,0.04739139541495531,-0.0021374080498017005
9.20000000000034,0.04894408106725784,-0.0021603823516230984
9.40000000000023,0.05052203657908028,-0.002180222009359519
9.600000000000119,0.052125608188705395,-0.0021968870274660735
9.800000000000008,0.05375530423578907,-0.002210193792839994
10.000999999999896,0.055408635268744996,-0.002219317112917597
10.200999999999786,0.057091663812786284,-0.002225244289642097
10.400999999999675,0.058801774639070784,-0.0022270803315591284
10.600999999999564,0.060620608943174115,-0.0022322400884258486
10.800999999999453,0.06243905066988768,-0.002209959174955292
11.000999999999342,0.06446112617439342,-0.00219992043485996
11.200999999999231,0.06645849500720409,-0.0021598406384106795
11.40099999999912,0.06858983150984621,-0.002122931595019041
11.60099999999901,0.07087799148768355,-0.0020675325481078473
11.800999999998899,0.07315992616776568,-0.002004652027328024
12.000999999998788,0.07553530649655296,-0.0019396901527231206
12.200999999998677,0.0779550929903674,-0.0018635622920021844
12.400999999998566,0.08039628865655514,-0.0017687854354030556
12.600999999998455,0.082870001568136,-0.0016547741485291418
12.800999999998345,0.08540284907788769,-0.0015332610358903937
13.000999999998234,0.08798016966056872,-0.001399585818153348
13.200999999998123,0.09057486347238274,-0.001244151065124462
13.400999999998012,0.09318948266996888,-0.0010516498438854793
13.600999999997901,0.09587336039480536,-0.0008363372706208996
13.80099999999779,0.09857552146239056,-0.0005831149196656371
14.00099999999768,0.10129227664976136,-0.0002940622654435282
14.200999999997569,0.10408266559936491,3.762957699285112e-05
14.400999999997458,0.10692271297262508,0.00040705440785879937
14.600999999997347,0.10976603748665067,0.0008310753941130678
14.800999999997236,0.11268267793957434,0.0012916170783720887
15.000999999997125,0.1156494476680742,0.0017993291240519928
15.200999999997014,0.11863902960094372,0.0023388248500430266
15.400999999996904,0.12163653382408313,0.0029486206994468593
15.600999999996793,0.12478368822278169,0.003577554819807722
15.800999999996682,0.12811066234416638,0.00429855290844464
16.000999999996573,0.1314719135804745,0.005083254481687184
16.200999999996817,0.1348247892575789,0.005927062003342338
16.40099999999706,0.13826558652060886,0.006815143183335206
16.600999999997306,0.14165635270812188,0.007767226352817169
16.80099999999755,0.1452172268009224,0.008800336334454885
17.000999999997795,0.14868643200948814,0.009897098403554648
17.20099999999804,0.15214255956210168,0.01104703940548582
17.400999999998284,0.15569674012654777,0.012262557580199425
17.60099999999853,0.15934652144151104,0.013570260196136058
17.800999999998773,0.1628630811618131,0.0149133248004216
18.000999999999017,0.1664143778800207,0.016361105107966675
18.20099999999926,0.1701171805477798,0.01792653756509287
18.400999999999506,0.17372194799479831,0.019506121925759224
18.60099999999975,0.17737204016169858,0.021183269542423847
18.799999999999994,0.1814801147430011,0.023490559758463973
19.000000000000238,0.1856558762223098,0.025868065360855577
19.200000000000482,0.1896090142375903,0.028558009011211912
19.400000000000727,0.19446393875709247,0.03277995895759428
19.60000000000097,0.20078088687069803,0.03917047223853697
19.800000000001216,0.20723268777751735,0.04540345294447694
20.00000000000146,0.21303433211800155,0.04978661374289874
