Time (s),X (m),Y (m)
0.001,0.0008589492133542695,-0.0009348340498585851
0.20000000000000015,0.000925816931932222,-0.00022896445720439399
0.4000000000000003,0.0020942101179852483,-0.00046601694979499475
0.6000000000000004,0.006757218689313857,-0.001832480509058903
0.8000000000000006,0.010325932901044886,-0.0005664546703871899
1.0000000000000007,0.013187323295510046,-0.00015855968850940467
1.2009999999999785,0.017573279905499162,-0.0011522257878628804
1.4009999999999565,0.025537295400561908,-0.004881921579105253
1.6009999999999345,0.033215467157383535,-0.01006011411321413
1.8009999999999124,0.03748204580051626,-0.005337670652904529
2.0009999999998906,0.0447699695504234,-0.0064558354887319855
2.2009999999998686,0.05158270374869446,-0.007203680481534534
2.4009999999998466,0.05825519630424538,-0.005532265983396494
2.6009999999998246,0.06796931027627354,-0.007017152265624465
2.8009999999998025,0.07619217184106196,-0.008791365509375603
3.0009999999997805,0.08169774270458842,-0.009901656284420923
3.2009999999997585,0.08778412084043377,-0.009334929759349313
3.4009999999997365,0.0956380568335112,-0.010690845902038892
3.6009999999997144,0.10257906436883193,-0.005151521162192281
3.8009999999996924,0.11030948827692964,-0.011967238086215588
4.000999999999671,0.1152087873248497,-0.015180442229400095
4.200999999999738,0.1199269920441737,-0.013477491256585258
4.400999999999804,0.1292850252563195,-0.010886631378287165
4.600999999999871,0.1365462499098905,-0.003982983348763382
4.800999999999938,0.14134136548468781,0.0011995990648357802
5.000000000000004,0.14735210864436485,0.0032401054025977326
5.200000000000071,0.15352433557843317,0.004350599053266457
5.400000000000138,0.1586661348550662,0.004106201758170204
5.600000000000205,0.16624696790277654,0.002109929987891509
5.800000000000272,0.1726981040401849,0.002091632829982011
6.000000000000338,0.17783159413873412,0.009720900542898335
6.200000000000405,0.18154458545562985,0.015582095880243634
6.400000000000472,0.1867379670037535,0.020993422375431264
6.600000000000539,0.1946940169579928,0.02452940512282842
6.800000000000606,0.2036603970555977,0.028589030887335554
7.000000000000672,0.21049955935268586,0.03369695952588869
7.200000000000739,0.21375533424439347,0.042649471765468634
7.400000000000806,0.21951042689820077,0.04846578935620619
7.600000000000873,0.23329525704942444,0.04795093061951427
7.8000000000009395,0.24816751604743326,0.04648904327882706
8.000000000001005,0.2516208093087092,0.053329833368513456
8.200000000000895,0.2589989672361836,0.056905429298666696
8.400000000000784,0.26496193194721024,0.06217132090454387
8.600000000000673,0.2727483100782339,0.06454885547253933
8.800000000000562,0.27993797307636475,0.06733311791044479
9.000000000000451,0.28599196440500924,0.0700851302835491
9.20000000000034,0.29052027471392955,0.07476175759621807
9.40000000000023,0.29959150220615605,0.08061888606034177
9.600000000000119,0.3081306010011617,0.084630017499187
9.800000000000008,0.3189355508636527,0.08865006899344928
10.000999999999896,0.3260027941872709,0.0955855932476482
10.200999999999786,0.32628038324576464,0.10225058237698675
10.400999999999675,0.3275236180610772,0.11293985921050535
10.600999999999564,0.33563608189463817,0.12211060493983285
10.800999999999453,0.3449332042590254,0.12802939463901383
11.000999999999342,0.3536385002954515,0.13441783440885488
11.200999999999231,0.36386577082889543,0.14281848295209607
11.40099999999912,0.37011961000264687,0.15414625008845353
11.60099999999901,0.37711614615348865,0.1694564820373302
11.800999999998899,0.38393880882994097,0.18107008000936023
12.000999999998788,0.3926952381503265,0.19236927462985207
12.200999999998677,0.4010779789423578,0.19641716767182374
12.400999999998566,0.40519678085118216,0.2037449788352153
12.600999999998455,0.40718434180234137,0.21442436246662358
12.800999999998345,0.4062225947906141,0.22342245362094473
13.000999999998234,0.40651223446312873,0.23229650194430787
13.200999999998123,0.4127008091006751,0.23560957232915644
13.400999999998012,0.4215834287432561,0.24207087457186488
13.600999999997901,0.42140150721176134,0.25334941828721746
13.80099999999779,0.42187361699692083,0.26395373002304084
14.00099999999768,0.4301524627747809,0.26846673903250706
14.200999999997569,0.4296949545899324,0.27294968389791996
14.400999999997458,0.4325858853789618,0.2806425208582964
14.600999999997347,0.437641764335665,0.28880203677446503
14.800999999997236,0.44141051247458624,0.29385650788441814
15.000999999997125,0.44300245786004994,0.299456614116143
15.200999999997014,0.4486302254715677,0.307775976284378
15.400999999996904,0.45204647086128663,0.31683898843778496
15.600999999996793,0.4548318796750781,0.32803902581032374
15.800999999996682,0.460686582266447,0.33674260854623717
16.000999999996573,0.46583146197121716,0.3457190866907019
16.200999999996817,0.46966551802915724,0.3533629627473076
16.40099999999706,0.4748330885829114,0.359218961976539
16.600999999997306,0.475269043729407,0.3632642879706344
16.80099999999755,0.4779964752505139,0.37081424114963785
17.000999999997795,0.48621162869983414,0.3801158917800487
17.20099999999804,0.4928235167220923,0.38802689420569175
17.400999999998284,0.5020395645845828,0.39963252924738224
17.60099999999853,0.5082321758560275,0.4108398566389481
17.800999999998773,0.5094570520439917,0.41870263936392793
18.000999999999017,0.5106382425516243,0.4315461802780223
18.20099999999926,0.517109394481355,0.44415342137866504
18.400999999999506,0.527252236737165,0.4508227472066369
18.60099999999975,0.5336775364481429,0.4589407749900079
18.799999999999994,0.5379006474347761,0.4660663343542203
19.000000000000238,0.5405308229376278,0.4753508775205534
19.200000000000482,0.5416034597384142,0.4884722523301079
19.400000000000727,0.5480382572805395,0.4973440415809108
19.60000000000097,0.5567492923856254,0.5074870886827738
19.800000000001216,0.5588217846195173,0.5189971694963463
20.00000000000146,0.5627669349731399,0.529728645128484
