Time (s),X (m),Y (m)
0.001,0.00042302893680115855,-0.0010314752485082442
0.20000000000000015,0.0008187854939162613,-0.0001880966978799711
0.4000000000000003,0.0012073646579444002,-0.0002042174933936259
0.6000000000000004,0.0016600051849513895,4.792356050184066e-05
0.8000000000000006,0.0022189775276219405,8.384592713480877e-06
1.0000000000000007,0.0028945821597902354,-0.000210994870490558
1.2009999999999785,0.003580449226396653,-0.00018197097028696698
1.4009999999999565,0.004220155270932,-0.00020384348916508148
1.6009999999999345,0.0048449800092338815,-0.000286206843900461
1.8009999999999124,0.005491398573285251,-0.00034708264140574625
2.0009999999998906,0.00615850838272364,-0.00038280073163742727
2.2009999999998686,0.006844086484934348,-0.0004213793697609214
2.4009999999998466,0.007537030965839868,-0.00046125951367487656
2.6009999999998246,0.008228122917807473,-0.0005041205325315506
2.8009999999998025,0.008914564639883252,-0.0005542720047329745
3.0009999999997805,0.009597059843895585,-0.0006078826468054428
3.2009999999997585,0.010276972759692396,-0.0006641250605894919
3.4009999999997365,0.01095392624452288,-0.0007235462563259164
3.6009999999997144,0.01162725849024841,-0.0007864572636082888
3.8009999999996924,0.01229562016207565,-0.0008530410559219724
4.000999999999671,0.012958135998617167,-0.0009236638677099453
4.200999999999738,0.013614107012363411,-0.000998385410250229
4.400999999999804,0.014266330162470033,-0.0010763464682564821
4.600999999999871,0.014912176952162173,-0.0011584049902814983
4.800999999999938,0.015546447416627616,-0.0012447719809859684
5.000000000000004,0.016169816367924705,-0.0013323499483445043
5.200000000000071,0.016799596523766044,-0.0014319457540829987
5.400000000000138,0.017434232351624578,-0.001540294634516447
5.600000000000205,0.018074951195930652,-0.0016575502726566885
5.800000000000272,0.018722066402120353,-0.0017838152844311807
6.000000000000338,0.01937592101687854,-0.0019189658883284992
6.200000000000405,0.020036509337148727,-0.00206307610156307
6.400000000000472,0.020704121626614117,-0.0022162201830046536
6.600000000000539,0.021378684772680907,-0.0023784009793866934
6.800000000000606,0.02205853346557545,-0.0025485267105703215
7.000000000000672,0.022741657264347563,-0.002725796954460212
7.200000000000739,0.023427051607695863,-0.002910111826998369
7.400000000000806,0.024114656170535795,-0.003101647222111528
7.600000000000873,0.024804276945566126,-0.0033004298537213893
7.8000000000009395,0.025495427003570718,-0.0035064120322529802
8.000000000001005,0.026187765298309507,-0.0037196533667825746
8.200000000000895,0.026881230674330667,-0.0039402587602808
8.400000000000784,0.027576009482900853,-0.00416836808801689
8.600000000000673,0.02827182978263294,-0.0044037763611304015
8.800000000000562,0.028968222309678018,-0.004646551823066638
9.000000000000451,0.029665287656941517,-0.004896720577750597
9.20000000000034,0.030363176468977026,-0.005154301511969501
9.40000000000023,0.03106448862316454,-0.00541958036043728
9.600000000000119,0.03176835612346981,-0.005692746088038598
9.800000000000008,0.03247476290609463,-0.005973647984258073
10.000999999999896,0.03318939890182993,-0.006266751958490459
10.200999999999786,0.03390122625250786,-0.0065636588816415644
10.400999999999675,0.03461573170570944,-0.0068685645380746705
10.600999999999564,0.035332464520418036,-0.007181288275720341
10.800999999999453,0.03605215129922942,-0.007502013026723143
11.000999999999342,0.03677370903153139,-0.007830584582565355
11.200999999999231,0.037497305055755985,-0.008166993428694157
11.40099999999912,0.038222519662371515,-0.008511382009572448
11.60099999999901,0.03894796810775122,-0.008863040740755649
11.800999999998899,0.03967276741389972,-0.009221500701934563
12.000999999998788,0.04039712056761551,-0.00958605846247464
12.200999999998677,0.04112009529539483,-0.009955981654862514
12.400999999998566,0.04184186375575092,-0.01033109951441684
12.600999999998455,0.04256440209981967,-0.010711312351427364
12.800999999998345,0.04328891178463094,-0.011095988878958976
13.000999999998234,0.04401667674160117,-0.011484448541135651
13.200999999998123,0.044747018113944756,-0.01187612647439257
13.400999999998012,0.04548261086819778,-0.012269948758836507
13.600999999997901,0.0462253517701822,-0.012664678820761435
13.80099999999779,0.04697455570930736,-0.01305794270524181
14.00099999999768,0.04772922476317413,-0.013445064215203608
14.200999999997569,0.048488623388725956,-0.013823337304763815
14.400999999997458,0.04925203967372867,-0.014192384980353074
14.600999999997347,0.050017794520585426,-0.01455230578766154
14.800999999997236,0.05078414569868472,-0.014902990936882894
15.000999999997125,0.05155027692882389,-0.015244973473206523
15.200999999997014,0.05231455661878081,-0.015578485106735181
15.400999999996904,0.05307329805731858,-0.01590375224287902
15.600999999996793,0.05382476301922234,-0.01622077243593737
15.800999999996682,0.05456670790834171,-0.016530249625250806
16.000999999996573,0.05529700221662042,-0.016833050336052684
16.200999999996817,0.05601140020276928,-0.01712823677202931
16.40099999999706,0.0567075922497358,-0.01741454285850728
16.600999999997306,0.057384280444320035,-0.01769166062284842
16.80099999999755,0.05803983738483579,-0.01795894835311667
17.000999999997795,0.058673049546758456,-0.018216163988587976
17.20099999999804,0.05928278557769167,-0.018463164272696113
17.400999999998284,0.05986837738990869,-0.01869959038663138
17.60099999999853,0.06042916377006007,-0.018925469698664238
17.800999999998773,0.06096431986437948,-0.019140437381784465
18.000999999999017,0.06147347852956248,-0.01934421440535324
18.20099999999926,0.06195648831355108,-0.019535825454412244
18.400999999999506,0.06241309477817117,-0.0197141793173759
18.60099999999975,0.06284315366040016,-0.01987817757916555
18.799999999999994,0.06324590502025593,-0.020026470495981
19.000000000000238,0.06360856883040221,-0.020168005907447044
19.200000000000482,0.06405174163912407,-0.020256985957215645
19.400000000000727,0.06439334261880898,-0.020357882264498812
19.60000000000097,0.0646974664592539,-0.02043764474101541
19.800000000001216,0.06507700522976015,-0.020469021245903874
20.00000000000146,0.0653436333510849,-0.020513243588195146
