Time (s),X (m),Y (m)
0.001,0.0014505791105779379,-8.989899140956135e-05
0.20000000000000015,0.0007371766531345463,-8.499922417969184e-05
0.4000000000000003,0.00037205417615791207,0.00034601822616329753
0.6000000000000004,0.0027280598025151586,-0.0004683751199251239
0.8000000000000006,0.011740595179954296,-0.0012451365250326486
1.0000000000000007,0.01123739093648385,-0.0010473171773864225
1.2009999999999785,0.013169890141060655,-0.0011674034662577677
1.4009999999999565,0.02028225728453624,-0.003987043834296956
1.6009999999999345,0.025262097730713362,-0.006393371028974413
1.8009999999999124,0.036454636344354016,-0.011165973990147716
2.0009999999998906,0.04857460821699163,-0.012306937691766088
2.2009999999998686,0.05708330375839443,-0.013295513691651202
2.4009999999998466,0.06698685392734274,-0.011862216714303092
2.6009999999998246,0.08218154344784145,-0.014627735708413548
2.8009999999998025,0.093796446942635,-0.017651704601950827
3.0009999999997805,0.11022322070107747,-0.020172133422498725
3.2009999999997585,0.11897710911083534,-0.01797573932466518
3.4009999999997365,0.13191333168692965,-0.022357324308404484
3.6009999999997144,0.14992734098026103,-0.02989946965598213
3.8009999999996924,0.16818654804536884,-0.04150803673475371
4.000999999999671,0.1779765701136048,-0.05393446645320336
4.200999999999738,0.19959086388507985,-0.06652501824438668
4.400999999999804,0.21983097227305587,-0.076203981772331
4.600999999999871,0.22776105045597592,-0.0770934403716243
4.800999999999938,0.24042920135606102,-0.07989770247658194
5.000000000000004,0.25776787528541995,-0.08481770859476898
5.200000000000071,0.274871559100141,-0.09267983570051183
5.400000000000138,0.2946802146679009,-0.10160586125769765
5.600000000000205,0.3169365119097869,-0.1155266604040896
5.800000000000272,0.3349196140648012,-0.12519433370939542
6.000000000000338,0.3498540164739205,-0.1297616780782667
6.200000000000405,0.36506045498888223,-0.13350285364733394
6.400000000000472,0.3835421989787333,-0.15035631019714518
6.600000000000539,0.4057696606517505,-0.16712503436007486
6.800000000000606,0.43020084034061085,-0.1843932866999797
7.000000000000672,0.4563461004690452,-0.2033941167079036
7.200000000000739,0.47799008667227777,-0.2204755298605435
7.400000000000806,0.501307740455387,-0.23506855723633055
7.600000000000873,0.5247705879204587,-0.2520748371229093
7.8000000000009395,0.5404861396304229,-0.26410828548083626
8.000000000001005,0.5638025884274276,-0.2757205131088822
8.200000000000895,0.5848478982044236,-0.2862336643994883
8.400000000000784,0.6068300321771972,-0.29865864584829566
8.600000000000673,0.6251129245427324,-0.30556575555872045
8.800000000000562,0.6464048564616696,-0.3175675212833058
9.000000000000451,0.664057897866543,-0.32682801422941876
9.20000000000034,0.6825171001602538,-0.3373998747644002
9.40000000000023,0.7051200798173232,-0.35067013629765986
9.600000000000119,0.7243121029121984,-0.35632073554094024
9.800000000000008,0.7467980628647729,-0.372001511553287
10.000999999999896,0.7670913565026753,-0.38767171893634733
10.200999999999786,0.7877443242408836,-0.40384270504365255
10.400999999999675,0.8069147352416259,-0.416896049525403
10.600999999999564,0.8302622206937056,-0.4313786609275173
10.800999999999453,0.850707883164873,-0.4408702735158222
11.000999999999342,0.8755284036681306,-0.454437000598546
11.200999999999231,0.9025498606098282,-0.4773862216868385
11.40099999999912,0.9247772797207979,-0.49606290121357616
11.60099999999901,0.9460994996114629,-0.5148540112760617
11.800999999998899,0.9685137179143377,-0.5347283939859443
12.000999999998788,0.9893412925009613,-0.5558278132273753
12.200999999998677,1.0116034303664052,-0.5828873436562595
12.400999999998566,1.0321936087990302,-0.603806804608262
12.600999999998455,1.0417204406151586,-0.6342413193367642
12.800999999998345,1.0440925463706638,-0.6567800009521506
13.000999999998234,1.0420891866797724,-0.6859576026141029
13.200999999998123,1.0399464932247215,-0.7099808142602404
13.400999999998012,1.037604244350949,-0.726619587913503
13.600999999997901,1.0349398085327361,-0.7472240326293517
13.80099999999779,1.032881498609932,-0.7722521333133675
14.00099999999768,1.0288467867527311,-0.7955815451134294
14.200999999997569,1.0169567226000753,-0.8251101244355483
14.400999999997458,1.0096564442907128,-0.8429970158722108
14.600999999997347,0.9970088293674506,-0.8635339961748058
14.800999999997236,0.9832235988403645,-0.8889177964534721
15.000999999997125,0.970373261977256,-0.9148943956586377
15.200999999997014,0.9631025081771997,-0.9370198344121559
15.400999999996904,0.9515999493121943,-0.9567576854115935
15.600999999996793,0.9418108836873882,-0.9726655227311001
15.800999999996682,0.9390126064806555,-0.986173778751407
16.000999999996573,0.9318300438723511,-1.0049273854635599
16.200999999996817,0.9166652318788922,-1.028454298515779
16.40099999999706,0.9051460501475189,-1.0511440659994595
16.600999999997306,0.8935948146907511,-1.070412249512801
16.80099999999755,0.8862030575656017,-1.0915461515146891
17.000999999997795,0.8788489966071562,-1.111601099532044
17.20099999999804,0.8678139215035181,-1.1375146122001905
17.400999999998284,0.8470500379729086,-1.1713292591074176
17.60099999999853,0.8205441147639236,-1.2103370434237415
17.800999999998773,0.8050786250590147,-1.2392824798070008
18.000999999999017,0.7885185044013644,-1.266192083407268
18.20099999999926,0.7719757937455526,-1.2891548662352437
18.400999999999506,0.7458017355204204,-1.31540533948205
18.60099999999975,0.723364438973011,-1.3406124712759284
18.799999999999994,0.7073364028938374,-1.3645576090933222
19.000000000000238,0.6959426704713605,-1.3880515752655282
19.200000000000482,0.6835478514474789,-1.4112277120955046
19.400000000000727,0.67387514334752,-1.4336440794363394
19.60000000000097,0.6596497508256789,-1.4553617111411958
19.800000000001216,0.6447665971317051,-1.4824206064850736
20.00000000000146,0.6220763060977182,-1.511805876092626
