Time (s),X (m),Y (m)
0.001,-9.270868745296317e-05,0.0008932837685830061
0.20000000000000015,0.0008045513104886408,-8.49565272730601e-05
0.4000000000000003,0.0013425694753182859,-0.00027148948544131185
0.6000000000000004,0.0022003313687699697,-0.0005794675704187816
0.8000000000000006,0.003564685217886999,-0.0007081663471554108
1.0000000000000007,0.005264719525839589,-0.00032402283172078283
1.2009999999999785,0.006790795203791584,-0.0014858197638476336
1.4009999999999565,0.007803962677885972,-0.0013477129508289807
1.6009999999999345,0.007790614188713026,-0.0001503049461715046
1.8009999999999124,0.007849904578791495,0.0027565257780117996
2.0009999999998906,0.007825588184961287,0.005347693939113581
2.2009999999998686,0.007978167317774983,0.007348602799548799
2.4009999999998466,0.007932333370194378,0.010328909518822631
2.6009999999998246,0.00854827518612111,0.012401114818148483
2.8009999999998025,0.00900340893867343,0.014483820259840869
3.0009999999997805,0.010061616501539961,0.015262047075782144
3.2009999999997585,0.010243976915199068,0.018256745385085805
3.4009999999997365,0.010275827501778733,0.021066879271017552
3.6009999999997144,0.011496096262018621,0.023302233012574065
3.8009999999996924,0.012574513656487101,0.025464833106686756
4.000999999999671,0.01289971829306155,0.027461105525789543
4.200999999999738,0.01284188964931427,0.03058404625355505
4.400999999999804,0.01560153729662515,0.0337386080982086
4.600999999999871,0.018206599900826265,0.03681467262327957
4.800999999999938,0.0217088413340231,0.040190073423665575
5.000000000000004,0.026272554598938517,0.04342382242479188
5.200000000000071,0.03010373852523208,0.046968488189124975
5.400000000000138,0.03378574155537108,0.05068685802618513
5.600000000000205,0.037662510905424426,0.05427304151278568
5.800000000000272,0.040830221419072846,0.056860174416468554
6.000000000000338,0.043500048932588714,0.060937531476141275
6.200000000000405,0.04725194339629287,0.0653634435295167
6.400000000000472,0.04869433460716419,0.07013127130084364
6.600000000000539,0.05100384957388059,0.07583210798782054
6.800000000000606,0.052311852987874705,0.08170430626608789
7.000000000000672,0.05243360565799399,0.0878944666621106
7.200000000000739,0.0535412899651509,0.09487284436175644
7.400000000000806,0.05310443178794558,0.10020784867236902
7.600000000000873,0.05233294692315844,0.10510101746313312
7.8000000000009395,0.05290204526585188,0.11148001282569686
8.000000000001005,0.05338430186195185,0.11804473654614775
8.200000000000895,0.05325620003748321,0.1248281083057387
8.400000000000784,0.0526874354548744,0.1315334417246125
8.600000000000673,0.0513989595236411,0.13685151840658788
8.800000000000562,0.049856656893224875,0.1425711060289828
9.000000000000451,0.047514389775652116,0.14781105755253585
9.20000000000034,0.04505210470948587,0.15299871476170893
9.40000000000023,0.04184326889463378,0.1566267388166041
9.600000000000119,0.03836702473968036,0.16080939732082764
9.800000000000008,0.03440322786107354,0.1651496793464513
10.000999999999896,0.030157958156583647,0.1687920468658789
10.200999999999786,0.026663148678330677,0.17276259641632316
10.400999999999675,0.022056549452134647,0.1763409330149303
10.600999999999564,0.016220948634159696,0.18007225583265538
10.800999999999453,0.01102320834426275,0.18209680001808878
11.000999999999342,0.005535156236857412,0.18320924477286255
11.200999999999231,-0.0011477396981648307,0.18480876146864342
11.40099999999912,-0.0076404315902990055,0.18645406412873314
11.60099999999901,-0.013946836749550193,0.18738716940823938
11.800999999998899,-0.018557163855211282,0.1878132271051011
12.000999999998788,-0.025850066789641933,0.18911271003498795
12.200999999998677,-0.03194667407809397,0.1890827511636785
12.400999999998566,-0.03804575556810837,0.18957777776530416
12.600999999998455,-0.0446299729088659,0.19032451141218418
12.800999999998345,-0.049079604149058695,0.18912626006558822
13.000999999998234,-0.05429171703344191,0.1886978208890621
13.200999999998123,-0.05947906203666386,0.18739034246700026
13.400999999998012,-0.06343690797114318,0.18562926327349782
13.600999999997901,-0.06931519133050847,0.1841999057846874
13.80099999999779,-0.07308231685679746,0.1821130137705901
14.00099999999768,-0.07771118483346588,0.18020991860052538
14.200999999997569,-0.0825624881319751,0.17794462294666655
14.400999999997458,-0.08696676440211101,0.17523684965861433
14.600999999997347,-0.09137691137126373,0.17184845128242818
14.800999999997236,-0.09494218686715786,0.1680721176347785
15.000999999997125,-0.09772993936353248,0.1635700023412309
15.200999999997014,-0.1005283433476119,0.15914526710765267
15.400999999996904,-0.10368732123620043,0.15445431763400566
15.600999999996793,-0.10675120875062534,0.14941096177751767
15.800999999996682,-0.10842950466456346,0.1441506721134679
16.000999999996573,-0.10967552729079917,0.1384021402655883
16.200999999996817,-0.1122152611381884,0.13278666685669394
16.40099999999706,-0.11371241611458997,0.12739599801508342
16.600999999997306,-0.11501937503152214,0.12021451951386361
16.80099999999755,-0.11587660043179136,0.11427998441199447
17.000999999997795,-0.11670276832492614,0.10691601970129093
17.20099999999804,-0.11752890859865844,0.1002082605162333
17.400999999998284,-0.1185151114117399,0.09402197094698705
17.60099999999853,-0.11857345711487688,0.08817240061278918
17.800999999998773,-0.11869434691186596,0.08232845073167673
18.000999999999017,-0.11807232143965954,0.07605233909898991
18.20099999999926,-0.11712225319314616,0.07041319559555062
18.400999999999506,-0.11578417571130903,0.06616558093588934
18.60099999999975,-0.114005810936313,0.06155312043490227
18.799999999999994,-0.11257888001570492,0.056931494069172923
19.000000000000238,-0.11201194878717209,0.052934770715899866
19.200000000000482,-0.10978754085730486,0.04930180728030702
19.400000000000727,-0.10780656149317339,0.044357136693294885
19.60000000000097,-0.1048019672555747,0.04047779778257748
19.800000000001216,-0.10152283491527657,0.037211987236860186
20.00000000000146,-0.0987481687597562,0.03310375375381644
