Time (s),X (m),Y (m)
0.001,-0.00016860096042250976,0.000844935058449024
0.20000000000000015,0.0007917047097010324,-0.00010939438801030583
0.4000000000000003,0.0021766951616513483,-0.0012034825637908067
0.6000000000000004,0.003742442367668955,-0.0001380400096036077
0.8000000000000006,0.0067402239157479515,-0.0013930871028560176
1.0000000000000007,0.013125040830078165,-0.002173997256697621
1.2009999999999785,0.018960599187901123,-0.006348231922120618
1.4009999999999565,0.02474019060428239,-0.007767533566794013
1.6009999999999345,0.031397687148000335,-0.007568746928072402
1.8009999999999124,0.03816848790142103,-0.009449529101732298
2.0009999999998906,0.038807678694157695,-0.004837529588895325
2.2009999999998686,0.04308549812572822,-0.0015628683031733194
2.4009999999998466,0.04356457202092137,0.00245479528206436
2.6009999999998246,0.053439099808912045,0.0019366750542173024
2.8009999999998025,0.06187959596347835,0.0025671846999597765
3.0009999999997805,0.0685820894640034,0.0012034300120910284
3.2009999999997585,0.07577834517760257,0.0038640854373931076
3.4009999999997365,0.08036070451877944,0.007242282263292963
3.6009999999997144,0.08285707372680037,0.012046293255998925
3.8009999999996924,0.08556581823312122,0.01503764894589812
4.000999999999671,0.08649330128407492,0.01829527323530305
4.200999999999738,0.08841781261541927,0.021935954849855603
4.400999999999804,0.097265360610429,0.019695961014168463
4.600999999999871,0.10383945762914353,0.021142180175714762
4.800999999999938,0.10909780494026108,0.02522897192923253
5.000000000000004,0.11512118481644756,0.03007804503010674
5.200000000000071,0.12344814063130291,0.031821050249326084
5.400000000000138,0.12775007575007266,0.03153110222257785
5.600000000000205,0.13147690419785985,0.03610897172609451
5.800000000000272,0.13833621375305377,0.04179732998185722
6.000000000000338,0.1414506521928284,0.047782745139715324
6.200000000000405,0.14741649933328438,0.052723007565221525
6.400000000000472,0.157768612377695,0.054039700582702
6.600000000000539,0.1689240387435855,0.053939925410301154
6.800000000000606,0.17561290102049623,0.05733654143288381
7.000000000000672,0.1791565561044448,0.06458727495242914
7.200000000000739,0.18093931973042826,0.07131052470505171
7.400000000000806,0.18992002087516463,0.0727776324648186
7.600000000000873,0.1945019388210167,0.07522909154037342
7.8000000000009395,0.19485635083948366,0.08024281323042694
8.000000000001005,0.19830791540922946,0.08716772909018056
8.200000000000895,0.20410692749582968,0.0971853321191955
8.400000000000784,0.2088036372915376,0.10541906656032103
8.600000000000673,0.21330889600467057,0.11137114346834
8.800000000000562,0.2244337866321055,0.11703777064725293
9.000000000000451,0.22622132088619204,0.12324610530204437
9.20000000000034,0.23713691991667846,0.13415475959007125
9.40000000000023,0.23949401962499725,0.14112303064431803
9.600000000000119,0.2425586635282026,0.15086553436669872
9.800000000000008,0.24747355442158483,0.15974898090481954
10.000999999999896,0.24957498966095729,0.1656500038266593
10.200999999999786,0.25566399623780284,0.17104689641366586
10.400999999999675,0.25918548104322714,0.1787165907757053
10.600999999999564,0.265374808628886,0.1834551672783083
10.800999999999453,0.26697006671995677,0.19097209065418963
11.000999999999342,0.2696927120025891,0.19912806078405043
11.200999999999231,0.26668950250674717,0.20812885093328767
11.40099999999912,0.2652963975939112,0.21873066447307316
11.60099999999901,0.2655643454375854,0.2308348742728081
11.800999999998899,0.2695912867566877,0.24033453122434534
12.000999999998788,0.27055188110644407,0.24746700761485257
12.200999999998677,0.28008581280030725,0.2536344191280442
12.400999999998566,0.28170549759938845,0.2625436703794033
12.600999999998455,0.28709816026876206,0.27242427375258405
12.800999999998345,0.29542296988452493,0.2829125873164986
13.000999999998234,0.29535970740311934,0.2910655092670794
13.200999999998123,0.2950755150114925,0.3008262235591098
13.400999999998012,0.2968968617953009,0.3094931390141124
13.600999999997901,0.29997111610693533,0.3187876978503401
13.80099999999779,0.3022238819626524,0.32604139780905395
14.00099999999768,0.3058201411913285,0.3316255435140487
14.200999999997569,0.30967006706421385,0.33987640424419335
14.400999999997458,0.3211002669728596,0.3435788389367717
14.600999999997347,0.33178095881768893,0.34676982270246887
14.800999999997236,0.33261946532310227,0.3546904315880594
15.000999999997125,0.338408653419904,0.36203865824222814
15.200999999997014,0.3411790719964372,0.3701469585517808
15.400999999996904,0.33937031805592943,0.3787784698709777
15.600999999996793,0.3447328436878318,0.38921150800013815
15.800999999996682,0.3468896410317234,0.39752207188760585
16.000999999996573,0.3507299408945509,0.40745061990715903
16.200999999996817,0.35131409225995924,0.4124682993077245
16.40099999999706,0.356687918691599,0.4196129690465126
16.600999999997306,0.361312318235718,0.42459555016198547
16.80099999999755,0.3659732471694732,0.4280823242655605
17.000999999997795,0.3725495284863841,0.43792572966118537
17.20099999999804,0.3812431308314757,0.4484103211589645
17.400999999998284,0.3817464582993219,0.4580116371339042
17.60099999999853,0.3876655688234597,0.4649526271035551
17.800999999998773,0.39449113344850184,0.4707140950573897
18.000999999999017,0.40140938083244593,0.47803715687105935
18.20099999999926,0.40419874336232486,0.48516483570656144
18.400999999999506,0.41253195137568555,0.49725483119200997
18.60099999999975,0.4200048799691293,0.5074459840735858
18.799999999999994,0.43132316044737207,0.5149323619299332
19.000000000000238,0.44479907612867703,0.5167931233777335
19.200000000000482,0.44835924082031026,0.5208768463990816
19.400000000000727,0.45496249452403825,0.5252678514645049
19.60000000000097,0.4624341749302729,0.5298910878407285
19.800000000001216,0.47053569974031156,0.5371364754933349
20.00000000000146,0.48015115038968975,0.5489003179855435
