Time (s),X (m),Y (m)
0.001,0.0010146588340248276,-0.0008449350584490237
0.20000000000000015,0.0007930652752110579,5.8271620099725976e-06
0.4000000000000003,0.0013559943846750257,-0.0004010032302600709
0.6000000000000004,0.0020633190490622327,-0.0007789531325169157
0.8000000000000006,0.003098063618689454,-0.001170015254318735
1.0000000000000007,0.004695967757001026,-0.0019378208361794636
1.2009999999999785,0.00670617312583039,-0.002258887535096145
1.4009999999999565,0.008901686645213172,-0.0026314546049250884
1.6009999999999345,0.011054695825688762,-0.0032019671016278914
1.8009999999999124,0.013293168447219356,-0.003490433809973823
2.0009999999998906,0.015162721060435102,-0.0028757847504139204
2.2009999999998686,0.016396529963207743,-0.0026174755252904177
2.4009999999998466,0.018587589571092626,-0.002597147685681647
2.6009999999998246,0.020540341685210278,-0.0024100395425523608
2.8009999999998025,0.02308031800742114,-0.001929725222090275
3.0009999999997805,0.024474599372990558,-0.001820293311891932
3.2009999999997585,0.026325601031200175,-0.0018039355298127846
3.4009999999997365,0.028416537699393028,-0.0009508802483867033
3.6009999999997144,0.030383346127960537,-0.0005312418799639866
3.8009999999996924,0.03253741793027775,-0.0002951494573202085
4.000999999999671,0.0346277154211593,-0.00024808817631102984
4.200999999999738,0.03660874953763534,6.562717487607235e-05
4.400999999999804,0.03873254961533372,0.0008751851315494348
4.600999999999871,0.04069062794153874,0.0015527489708865281
4.800999999999938,0.042806477256143755,0.0026243220857623214
5.000000000000004,0.04412399618544607,0.0036905251496380355
5.200000000000071,0.04540174568251044,0.005601074762540665
5.400000000000138,0.04646927258206268,0.007479761907002344
5.600000000000205,0.047162306093967106,0.009731567750709975
5.800000000000272,0.04860086420464503,0.012367624246097261
6.000000000000338,0.049673522271216894,0.01511315921133244
6.200000000000405,0.05079915166877043,0.018186849169808963
6.400000000000472,0.05159463918235074,0.02128053754414717
6.600000000000539,0.05287144990571004,0.02462014007354866
6.800000000000606,0.053169825299954586,0.028362976511836953
7.000000000000672,0.053129521660408734,0.03246223579819793
7.200000000000739,0.053404988016941934,0.03648753288435387
7.400000000000806,0.05250729974444725,0.040701116131172874
7.600000000000873,0.0516142371257456,0.04406337983549721
7.8000000000009395,0.05131957422837481,0.048130020944493396
8.000000000001005,0.05131784715736837,0.05107136555936598
8.200000000000895,0.05078378086650704,0.05432188302538096
8.400000000000784,0.05076503087100585,0.057421597618048825
8.600000000000673,0.049976340378617576,0.06055046942193058
8.800000000000562,0.04999552385421503,0.0629995819301716
9.000000000000451,0.04875627865729254,0.06558410033373514
9.20000000000034,0.047842729407520115,0.06797714048301227
9.40000000000023,0.04757873458648991,0.07053097428624452
9.600000000000119,0.046361575263826255,0.07301413396077076
9.800000000000008,0.04495092907396087,0.0760243590821446
10.000999999999896,0.04461883956728086,0.07853094864720411
10.200999999999786,0.04252256714257681,0.08123662739308377
10.400999999999675,0.04106539311176135,0.08303468324035701
10.600999999999564,0.03938050373388115,0.08432195158796214
10.800999999999453,0.037549148081916874,0.08625928820066275
11.000999999999342,0.03497442646694621,0.0880409759084851
11.200999999999231,0.0325828829321195,0.08959427181119116
11.40099999999912,0.029502704075911976,0.09096817384790963
11.60099999999901,0.025952254498714418,0.09208126504720532
11.800999999998899,0.02275166998165127,0.09313966199745907
12.000999999998788,0.01979554346987806,0.09428751091696537
12.200999999998677,0.01589476338676514,0.09577386298392324
12.400999999998566,0.011852561532189963,0.09713378720531514
12.600999999998455,0.007815860723442583,0.09748512249092749
12.800999999998345,0.0038455090943090155,0.09787246288653687
13.000999999998234,0.0006790018016530643,0.09914753774137541
13.200999999998123,-0.003653181737339994,0.09862886165466014
13.400999999998012,-0.007400406998728114,0.09870639746284364
13.600999999997901,-0.011772101416887023,0.09855041692889381
13.80099999999779,-0.01524626957672012,0.09811169672196485
14.00099999999768,-0.019180851868306543,0.09696572416048913
14.200999999997569,-0.02271347778076489,0.09668373521786432
14.400999999997458,-0.026978541463299352,0.09562183165923833
14.600999999997347,-0.029977908868472413,0.09539096942526677
14.800999999997236,-0.03316083804401222,0.09511941158784622
15.000999999997125,-0.03639607802468547,0.09449869625822956
15.200999999997014,-0.03978721330693705,0.09367810189771536
15.400999999996904,-0.04332522019998668,0.09259399621898358
15.600999999996793,-0.04581039475518709,0.09106096271344988
15.800999999996682,-0.04882916383902032,0.09062903647330896
16.000999999996573,-0.05222674024069884,0.08953562403285333
16.200999999996817,-0.05440734610008243,0.08804487916861856
16.40099999999706,-0.05700568540597635,0.08702520652655601
16.600999999997306,-0.05946968087858646,0.08518944652590812
16.80099999999755,-0.06226199192380263,0.0834612298234339
17.000999999997795,-0.06503892580693489,0.08128124563590344
17.20099999999804,-0.06765675313788516,0.0794748738258424
17.400999999998284,-0.06993190199254852,0.0767963689890762
17.60099999999853,-0.07167368503301448,0.07424049111730725
17.800999999998773,-0.07340592695306199,0.07138582977171368
18.000999999999017,-0.0752755077254236,0.06823576814694575
18.20099999999926,-0.07632571577267898,0.06496384825160693
18.400999999999506,-0.0779895725217966,0.06120084751257066
18.60099999999975,-0.07954674191198073,0.05776614289236832
18.799999999999994,-0.08066847983513276,0.05367915046039138
19.000000000000238,-0.08191511325768454,0.04930742642491635
19.200000000000482,-0.08313866943997825,0.045410855007044164
19.400000000000727,-0.08388344364609453,0.041247985239187754
19.60000000000097,-0.08431799264508254,0.036876331614843945
19.800000000001216,-0.08452225313219038,0.03309868477305314
20.00000000000146,-0.08442740688470364,0.028725569966206017
