Time (s),X (m),Y (m)
0.001,0.001267963995250183,0.0005916298972236683
0.20000000000000015,0.0007154452259374118,-9.609745809352606e-05
0.4000000000000003,0.0012490592296597334,-0.0006902735586938018
0.6000000000000004,0.0019077206281207847,-0.0031192173544476874
0.8000000000000006,0.01597806620847101,0.0008960182404855938
1.0000000000000007,0.02909952096617592,0.005923327908683235
1.2009999999999785,0.040608163992448376,0.011238786150732382
1.4009999999999565,0.049542557593300465,0.015201232538862375
1.6009999999999345,0.056167191521014265,0.01671540307113783
1.8009999999999124,0.06617388182348355,0.016841704707006456
2.0009999999998906,0.08843659890509087,0.019359991958330033
2.2009999999998686,0.10317331192560718,0.020617480424547238
2.4009999999998466,0.11983600412136665,0.024826776989185232
2.6009999999998246,0.14104134875066457,0.02885362839103822
2.8009999999998025,0.1565204018855996,0.030006105326951162
3.0009999999997805,0.16764799914943315,0.030821590652638765
3.2009999999997585,0.1758811865049439,0.03160102589992339
3.4009999999997365,0.1911631003862364,0.03341138664763824
3.6009999999997144,0.20192152315825074,0.03459261417118741
3.8009999999996924,0.22087443898720352,0.03860928894496051
4.000999999999671,0.23711805859055027,0.040848358569206426
4.200999999999738,0.24748972214895043,0.03977251159303758
4.400999999999804,0.27442873555992936,0.03805748427535687
4.600999999999871,0.2881682952521524,0.03242352371071962
4.800999999999938,0.3027754368557436,0.02401659086043303
5.000000000000004,0.31336695824288563,0.01533718855510362
5.200000000000071,0.32439394024343704,0.004170669405485297
5.400000000000138,0.3515903066639342,-0.007492048313522434
5.600000000000205,0.37814842700832096,-0.01913083537342662
5.800000000000272,0.409432337031621,-0.023566794544382527
6.000000000000338,0.4397423490665233,-0.027449434000941533
6.200000000000405,0.46714124201967067,-0.029136231534217287
6.400000000000472,0.4928838309156873,-0.03066220541855188
6.600000000000539,0.5108651783378141,-0.030903788897647156
6.800000000000606,0.5357699282835324,-0.027214170834732244
7.000000000000672,0.5730747221632768,-0.020882225684287145
7.200000000000739,0.6098873873922875,-0.014490093678203005
7.400000000000806,0.6524613370909765,-0.007307476614280959
7.600000000000873,0.686414441391875,-0.0037625951692892394
7.8000000000009395,0.7169085274126784,-0.009362690280134171
8.000000000001005,0.7407873841409292,-0.019047557350895118
8.200000000000895,0.7692756908178525,-0.03312929237987144
8.400000000000784,0.8016100553613239,-0.054771450026674606
8.600000000000673,0.8302773989398989,-0.08388732137061553
8.800000000000562,0.8539409824693456,-0.11604381334623576
9.000000000000451,0.8753226889161947,-0.14722750125364048
9.20000000000034,0.8945094828876999,-0.1732015305579182
9.40000000000023,0.9201243460492687,-0.19562977283940367
9.600000000000119,0.9349102277038426,-0.2171631339076173
9.800000000000008,0.9508615379618887,-0.2371005014479675
10.000999999999896,0.9818515175180408,-0.2502384924595921
10.200999999999786,1.012864213382485,-0.2630936396835862
10.400999999999675,1.0370516499647622,-0.27745432233437445
10.600999999999564,1.0675982565165294,-0.2955185452311151
10.800999999999453,1.0891576873766147,-0.3171144672545911
11.000999999999342,1.1179196118457448,-0.3314884213440458
11.200999999999231,1.1432262578428587,-0.3399994280802244
11.40099999999912,1.1733101911841068,-0.3429991364700953
11.60099999999901,1.206729992554251,-0.3398972767316375
11.800999999998899,1.2481167078851865,-0.3313350013187704
12.000999999998788,1.2834372547345554,-0.3235407470057497
12.200999999998677,1.3155947130655414,-0.3214095936738089
12.400999999998566,1.3475504571138577,-0.32252293860593956
12.600999999998455,1.369479540138412,-0.32280494368823354
12.800999999998345,1.3914164953922887,-0.3224416502012286
13.000999999998234,1.4232273143833203,-0.33298748316495114
13.200999999998123,1.4562539828779877,-0.35242412736325585
13.400999999998012,1.482128220313894,-0.3722221360603593
13.600999999997901,1.5064520553827407,-0.3933588543654502
13.80099999999779,1.5382933729775579,-0.41988552644226895
14.00099999999768,1.5708428455572891,-0.45359468888389487
14.200999999997569,1.6023379462753056,-0.48986163212044725
14.400999999997458,1.638949711599195,-0.5263875198492778
14.600999999997347,1.6788418394368363,-0.5622012055864432
14.800999999997236,1.715422872196416,-0.6024931955188133
15.000999999997125,1.7404011132876336,-0.6386482825617461
15.200999999997014,1.7650885752018675,-0.6683408368632574
15.400999999996904,1.799792696241222,-0.680245337416508
15.600999999996793,1.8271512397601966,-0.6846427083732061
15.800999999996682,1.8512955644747937,-0.6848785833289056
16.000999999996573,1.8774744535794987,-0.6822530276333624
16.200999999996817,1.9073144244290237,-0.6779799443155197
16.40099999999706,1.95364715321392,-0.6618025305833201
16.600999999997306,1.9971333320982938,-0.6467039286222223
16.80099999999755,2.0307269786516775,-0.6346803362800043
17.000999999997795,2.0578346110564967,-0.612140191093101
17.20099999999804,2.0868781445714624,-0.5922872607655317
17.400999999998284,2.121716470444585,-0.5741281542426917
17.60099999999853,2.1579476460750944,-0.5543433741279361
17.800999999998773,2.1912549827112504,-0.5278391842403777
18.000999999999017,2.222454656968409,-0.496525107273087
18.20099999999926,2.248895115583354,-0.47021246693902696
18.400999999999506,2.2710363557201627,-0.43952348382942874
18.60099999999975,2.2844201772455413,-0.40980259847628403
18.799999999999994,2.292140784777774,-0.37529136671497626
19.000000000000238,2.2985477163560386,-0.33594179038990696
19.200000000000482,2.3036178657341906,-0.3017346922998165
19.400000000000727,2.3038247815629735,-0.2665836758467208
19.60000000000097,2.306515841379442,-0.22794970163631842
19.800000000001216,2.314278731847539,-0.1932529289683307
20.00000000000146,2.332018166567546,-0.15926420840112987
