Time (s),X (m),Y (m)
0.001,0.001392298616347667,-0.0003527853123316693
0.20000000000000015,0.0008952242519631985,-0.00011505264773688793
0.4000000000000003,0.0013442240573453192,-0.000199186409510722
0.6000000000000004,0.0020462271815032853,-0.0004860513257982124
0.8000000000000006,0.002929986916661063,-0.000931189292035208
1.0000000000000007,0.003841866180135164,-0.0014348091271567773
1.2009999999999785,0.0049566196744329875,-0.0020308291492878816
1.4009999999999565,0.005934939787915487,-0.002520813788464561
1.6009999999999345,0.006896883318363805,-0.0030004152208703808
1.8009999999999124,0.007946365368282002,-0.003543170741507801
2.0009999999998906,0.009101310910240884,-0.004162989885928824
2.2009999999998686,0.010327544931160797,-0.004835567291781757
2.4009999999998466,0.011599636143244553,-0.005539805102864318
2.6009999999998246,0.01289940236849513,-0.006261137729560818
2.8009999999998025,0.01422715463459741,-0.006998631670328869
3.0009999999997805,0.015583863929196725,-0.0077488572980818375
3.2009999999997585,0.016968653268178525,-0.008506940780233433
3.4009999999997365,0.01838451125324028,-0.009274728131644103
3.6009999999997144,0.01983004317023421,-0.010050322212303968
3.8009999999996924,0.021302456871563822,-0.010831158762320795
4.000999999999671,0.022801080708500465,-0.01161530477606505
4.200999999999738,0.024326309460639694,-0.012402840282619537
4.400999999999804,0.025879765640422006,-0.013194501112007463
4.600999999999871,0.02746216691185855,-0.013990474274124677
4.800999999999938,0.029073856010679168,-0.01479043734148925
5.000000000000004,0.030689128145258426,-0.015583366553696232
5.200000000000071,0.03235929411260448,-0.01639058528920547
5.400000000000138,0.03405911150128569,-0.017200787081679624
5.600000000000205,0.03578857741412966,-0.01801361374387543
5.800000000000272,0.03754774364477245,-0.01882874069587779
6.000000000000338,0.039336843819130746,-0.01964587131801971
6.200000000000405,0.041159604695004556,-0.02045167280914225
6.400000000000472,0.043019079969516184,-0.021240043698078217
6.600000000000539,0.04491568616174862,-0.022010274518016647
6.800000000000606,0.046849618876829736,-0.022762115158341884
7.000000000000672,0.0488212911560803,-0.02349535180839988
7.200000000000739,0.050831287507097964,-0.02420963910475059
7.400000000000806,0.05287968625379773,-0.024904979794870254
7.600000000000873,0.0549667593576555,-0.025580777776399177
7.8000000000009395,0.05709276772204474,-0.02623684718783361
8.000000000001005,0.05925823681280739,-0.026873169753153528
8.200000000000895,0.06158472213715785,-0.027482438405771283
8.400000000000784,0.06392210383100405,-0.02807012012674236
8.600000000000673,0.06646088063918683,-0.028627856212703227
8.800000000000562,0.06903206823919959,-0.029183252337513944
9.000000000000451,0.07163178731057405,-0.029711602181093505
9.20000000000034,0.07445495106170441,-0.03019399412720438
9.40000000000023,0.07734492952588047,-0.03065491164120024
9.600000000000119,0.08021605945549745,-0.031089441483403944
9.800000000000008,0.08321253166669826,-0.031508201314294396
10.000999999999896,0.08631184640917922,-0.031823479596376866
10.200999999999786,0.08939445594554546,-0.032031056397607054
10.400999999999675,0.09257715025308833,-0.032251010660827195
10.600999999999564,0.09569122527367027,-0.03235808855286551
10.800999999999453,0.09881928866809807,-0.03239962395848252
11.000999999999342,0.1019683317123242,-0.03239346270973215
11.200999999999231,0.10503039207946184,-0.03231882993235463
11.40099999999912,0.10812579654585551,-0.032150064411095795
11.60099999999901,0.11123580954585852,-0.031952820609648554
11.800999999998899,0.1144880080533411,-0.03165942820884371
12.000999999998788,0.11758763515555794,-0.03128663249967509
12.200999999998677,0.12060801718767501,-0.03083974315785761
12.400999999998566,0.12373268792584292,-0.03032630909600529
12.600999999998455,0.126881640237675,-0.029687870956277868
12.800999999998345,0.1298268150567596,-0.028948547892457783
13.000999999998234,0.13278886341246754,-0.02817176960555263
13.200999999998123,0.13578316854257919,-0.027272981552774547
13.400999999998012,0.13866773060123222,-0.026235397208045214
13.600999999997901,0.14151972508513386,-0.02511494460435914
13.80099999999779,0.1443127090797328,-0.02394782863848411
14.00099999999768,0.14728507823468687,-0.022643273804913166
14.200999999997569,0.15002739066711518,-0.021248168116582946
14.400999999997458,0.15264267829977957,-0.019271187875113553
14.600999999997347,0.15532598865367384,-0.01753717727414284
14.800999999997236,0.15773102177656356,-0.015147387573081329
15.000999999997125,0.160220420470761,-0.012488558360942774
15.200999999997014,0.1630253223477191,-0.00965347008880003
15.400999999996904,0.1649751488465671,-0.00630339136271467
15.600999999996793,0.16789662702360625,-0.00247204185938671
15.800999999996682,0.17049093335620677,0.0017285515983329854
16.000999999996573,0.1735064655810259,0.005170490882342788
16.200999999996817,0.17622968630935884,0.009247322049728227
16.40099999999706,0.17884232737379835,0.013059011774020135
16.600999999997306,0.181559834205441,0.016731205977317816
16.80099999999755,0.18467989235201648,0.02084009072796266
17.000999999997795,0.18747623340216446,0.02583370935129027
17.20099999999804,0.1910926547269857,0.031405972951885165
17.400999999998284,0.19453463422682735,0.03686084147909156
17.60099999999853,0.19876032621328454,0.04276446005045323
17.800999999998773,0.2017977704888361,0.047230274382633095
18.000999999999017,0.20531912314075315,0.05220843121207663
18.20099999999926,0.2087816151056915,0.05795417193202931
18.400999999999506,0.2131558742763491,0.0641129844201412
18.60099999999975,0.21720407618466114,0.07048260840767837
18.799999999999994,0.22314790099743237,0.07780999965919422
19.000000000000238,0.2280856963756411,0.08399353284728105
19.200000000000482,0.23255631581455935,0.088480343654994
19.400000000000727,0.23677830062059108,0.09521285470462852
19.60000000000097,0.2422997568025942,0.10248320898121159
19.800000000001216,0.24763295065791124,0.1098522679325768
20.00000000000146,0.2537122614093889,0.11772454448860149
