Time (s),X (m),Y (m)
0.001,0.0014505791105779379,8.989899140956135e-05
0.20000000000000015,0.0005750651388709235,-0.00012890369656419959
0.4000000000000003,0.001253870694861194,-4.9757672227336565e-05
0.6000000000000004,0.0018570642071120962,-2.6136906230167973e-05
0.8000000000000006,0.002480888326715155,1.0888151487056502e-05
1.0000000000000007,0.0032708860669329633,8.458915542404432e-05
1.2009999999999785,0.003862926836781666,0.0001269043425372871
1.4009999999999565,0.00463414578412531,0.00017770411337127427
1.6009999999999345,0.005434424481844186,0.00023547020958485896
1.8009999999999124,0.006196589556257303,0.00030669440468493426
2.0009999999998906,0.006989268749327065,0.0004005988559163727
2.2009999999998686,0.0078075766468765784,0.0005115433907849173
2.4009999999998466,0.008645535771440041,0.0006319847985135697
2.6009999999998246,0.009508220147696771,0.000760523344419469
2.8009999999998025,0.010395429520698668,0.0008989811868215484
3.0009999999997805,0.011303257737272693,0.001047495671690181
3.2009999999997585,0.012231154574742685,0.0012065800435839139
3.4009999999997365,0.013178988446767575,0.0013764274166805281
3.6009999999997144,0.014147036611688934,0.0015561456789522378
3.8009999999996924,0.015134835602487068,0.0017452274112994587
4.000999999999671,0.016141945740048336,0.001942932747680074
4.200999999999738,0.017167918672063964,0.002149392691907136
4.400999999999804,0.018212047375077662,0.0023645597629764776
4.600999999999871,0.019274123906703904,0.0025883532659012097
4.800999999999938,0.02035354664511853,0.002820558435682179
5.000000000000004,0.021453808160899732,0.003060029620427381
5.200000000000071,0.022566294640325342,0.003308371168128258
5.400000000000138,0.023694101268950704,0.00356478062259515
5.600000000000205,0.024837081810863457,0.003829176320170226
5.800000000000272,0.025995217271959383,0.004101468834009733
6.000000000000338,0.027168501877649017,0.004381567099603173
6.200000000000405,0.02835715029287624,0.004669419212811694
6.400000000000472,0.02956144134584993,0.004965156268696616
6.600000000000539,0.030781400914186352,0.005268741733402727
6.800000000000606,0.03201707738142997,0.0055801187124144315
7.000000000000672,0.033268618642133,0.0058991910759793416
7.200000000000739,0.03453645017525035,0.006225174425938978
7.400000000000806,0.03582201300615193,0.00655446188225989
7.600000000000873,0.03712559946692077,0.006886754185753503
7.8000000000009395,0.03844745520973897,0.007222160294100949
8.000000000001005,0.03978778465090183,0.007560433070662073
8.200000000000895,0.04114685026493509,0.007901484970291292
8.400000000000784,0.04252488725558612,0.008245437409551698
8.600000000000673,0.043922318476205605,0.0085925179135428
8.800000000000562,0.045339349703659146,0.008942795392779672
9.000000000000451,0.04677612195063874,0.009296406503184283
9.20000000000034,0.048232789828295326,0.009653491587028107
9.40000000000023,0.0497095734202877,0.010014116864096704
9.600000000000119,0.05120670571288024,0.010378412356073459
9.800000000000008,0.05272449122954109,0.01074658157553953
10.000999999999896,0.0542606695598105,0.01111956948823752
10.200999999999786,0.05582086611324814,0.011495396837798181
10.400999999999675,0.05751889644613676,0.01189209851519345
10.600999999999564,0.05919224908761454,0.01228041254882755
10.800999999999453,0.06098377838709458,0.012710907171820343
11.000999999999342,0.06280545085298062,0.013128966381408301
11.200999999999231,0.06464050398010245,0.013567077365262852
11.40099999999912,0.06657652657705432,0.014007738120171944
11.60099999999901,0.06865287235524511,0.014466128933606277
11.800999999998899,0.07073536795490781,0.01494096196354614
12.000999999998788,0.07289651948100116,0.015430757117204843
12.200999999998677,0.07508164850395847,0.015933876668286735
12.400999999998566,0.07727571687028828,0.016467892057056736
12.600999999998455,0.07953454465875609,0.017025297284907544
12.800999999998345,0.08181751740690926,0.017599498879797615
13.000999999998234,0.08414378551728992,0.01819621709591811
13.200999999998123,0.08649872205206728,0.018818090465822144
13.400999999998012,0.08888696468043261,0.019471903441045366
13.600999999997901,0.09130427799782621,0.020149063719917766
13.80099999999779,0.09373832982943721,0.02084139883875839
14.00099999999768,0.09621694818838111,0.02157538835969126
14.200999999997569,0.09870514031537884,0.02234150168753094
14.400999999997458,0.10127176183445646,0.023139684111418646
14.600999999997347,0.10384901302455507,0.02396746257105765
14.800999999997236,0.10643801099349368,0.02482985481492005
15.000999999997125,0.10908820159594312,0.025731151710077484
15.200999999997014,0.11181296670403647,0.02666312587495696
15.400999999996904,0.11462047013861157,0.027665173003126067
15.600999999996793,0.11749739681876575,0.02872448769407974
15.800999999996682,0.12038626392172116,0.029831031669673925
16.000999999996573,0.12336608737380028,0.030997818968480296
16.200999999996817,0.1262850763115308,0.032190904499692995
16.40099999999706,0.12928394727854592,0.033434265703247916
16.600999999997306,0.13225909166343108,0.0347018227025133
16.80099999999755,0.1353567780105993,0.03603446200482429
17.000999999997795,0.13848604973472203,0.037411144922972185
17.20099999999804,0.14164379485910636,0.03883829471824524
17.400999999998284,0.14475149624366956,0.0402893665475509
17.60099999999853,0.1478510970377646,0.0417520491491832
17.800999999998773,0.1510107153749355,0.04328506754522649
18.000999999999017,0.15417134556818327,0.04486454939066387
18.20099999999926,0.15737883949435616,0.046464271392805276
18.400999999999506,0.16064867384516018,0.048114706493772294
18.60099999999975,0.16384589463325935,0.04979355198380981
18.799999999999994,0.16703469843635774,0.051505063673954715
19.000000000000238,0.17024919670551408,0.05324327742901655
19.200000000000482,0.17348816411889378,0.055024348686766
19.400000000000727,0.1767889159398057,0.056863682086066424
19.60000000000097,0.18007779156742598,0.05875364226106975
19.800000000001216,0.1832403992220783,0.06061131246016564
20.00000000000146,0.18646942022895258,0.06257188104124498
