Time (s),X (m),Y (m)
0.001,0.0007758142491328282,0.0009692696795465077
0.20000000000000015,0.0008855836265039823,-4.4478409289506594e-05
0.4000000000000003,0.0020896070816427015,0.0007459538795930288
0.6000000000000004,0.004578774702434714,0.0022430073023237706
0.8000000000000006,0.008418132967422727,0.0033371859123747655
1.0000000000000007,0.01101071583667712,0.004951922066948721
1.2009999999999785,0.015055840994516083,0.001956803611840766
1.4009999999999565,0.019051303323050595,0.000930825661284608
1.6009999999999345,0.02306499318952191,0.005251200842366545
1.8009999999999124,0.028496275783724493,0.0064942840307948375
2.0009999999998906,0.03656692848330173,0.008257271647438821
2.2009999999998686,0.04153510602592048,0.010222198137580617
2.4009999999998466,0.04703424461533287,0.008796888134631503
2.6009999999998246,0.053395974239796536,0.01083266627800626
2.8009999999998025,0.06133081079591087,0.010441800230015843
3.0009999999997805,0.06896273526997015,0.010094285766815373
3.2009999999997585,0.07523451359377957,0.010848148796906185
3.4009999999997365,0.08122976819215652,0.012107551029873046
3.6009999999997144,0.08838776281607567,0.014090870592783947
3.8009999999996924,0.09791511327317448,0.022815997704855078
4.000999999999671,0.10792762627218364,0.03000155598308098
4.200999999999738,0.11551672778655844,0.03492538084986321
4.400999999999804,0.12277585450241423,0.038403576342696144
4.600999999999871,0.13256649189242087,0.042942447517613405
4.800999999999938,0.14147444714809984,0.04682460483306888
5.000000000000004,0.1496734565016397,0.048325062865144104
5.200000000000071,0.15958648161911207,0.05442873004621961
5.400000000000138,0.16767464595473977,0.05754225529157476
5.600000000000205,0.17431346688202526,0.0614231017734316
5.800000000000272,0.18260527444135485,0.06814193292937151
6.000000000000338,0.18986631508924537,0.07086917771224895
6.200000000000405,0.19805576753041412,0.07314007016850435
6.400000000000472,0.20835972877444076,0.08236745171866157
6.600000000000539,0.21864687393962898,0.08704273272426163
6.800000000000606,0.22847687639485587,0.09208965694799699
7.000000000000672,0.23924288542420166,0.097293195868565
7.200000000000739,0.24955980722841128,0.10251626626468284
7.400000000000806,0.2593286624265462,0.10833817698813379
7.600000000000873,0.2692145150425986,0.11377828703491433
7.8000000000009395,0.27767298352998887,0.11938920138657501
8.000000000001005,0.28616152374114834,0.12666983647881805
8.200000000000895,0.29552032837271475,0.13424397013181008
8.400000000000784,0.3081206540717621,0.13963429553735604
8.600000000000673,0.31578165790307744,0.14743925580619158
8.800000000000562,0.32322914934493713,0.15965682428862657
9.000000000000451,0.3301820265367035,0.17122408145410464
9.20000000000034,0.33665819797493673,0.1788626035963182
9.40000000000023,0.3414400119251988,0.1849615041813062
9.600000000000119,0.34511045037475857,0.1964764220507408
9.800000000000008,0.35066073825966665,0.20286686528045092
10.000999999999896,0.3545686914951033,0.20938123581231372
10.200999999999786,0.35950008418214235,0.22015896850318112
10.400999999999675,0.36289497497348744,0.23007533319786672
10.600999999999564,0.36404157123751296,0.24353842181271584
10.800999999999453,0.36460233470505593,0.25686733831626657
11.000999999999342,0.3654211716449912,0.2702473972574235
11.200999999999231,0.36283702134855167,0.28330729402049554
11.40099999999912,0.3634995518669492,0.29749305340851
11.60099999999901,0.36766103945312034,0.3084867824267368
11.800999999998899,0.36922654557532214,0.3203740806616559
12.000999999998788,0.3662023549986887,0.3347769557564262
12.200999999998677,0.36756088116029506,0.3470964983004047
12.400999999998566,0.36979659794457703,0.3531785126104707
12.600999999998455,0.37182294841688773,0.3643743368567332
12.800999999998345,0.3668401651802523,0.3772481625300665
13.000999999998234,0.3633726577900744,0.3886642507152796
13.200999999998123,0.36134582239038465,0.3980571363502483
13.400999999998012,0.36044548668304005,0.4029847131715231
13.600999999997901,0.35849101440712994,0.40882417602323884
13.80099999999779,0.36086373032078917,0.4129056949762389
14.00099999999768,0.3569604182250771,0.41829616816492715
14.200999999997569,0.35243409500093437,0.43051958064807083
14.400999999997458,0.3497663459325963,0.44193793682470645
14.600999999997347,0.33988028183936597,0.4555268819347281
14.800999999997236,0.33493123700214106,0.4676919703205219
15.000999999997125,0.33057145226325374,0.48149986337718637
15.200999999997014,0.324923570356549,0.49496916664466073
15.400999999996904,0.3245215739674923,0.5041597870997652
15.600999999996793,0.32371874623730507,0.5096383712126618
15.800999999996682,0.3229056788720116,0.517327223487242
16.000999999996573,0.3216891561757389,0.5217858893754345
16.200999999996817,0.31688074179486714,0.5279500173318283
16.40099999999706,0.3119219889529048,0.5377808928677026
16.600999999997306,0.30698250885405776,0.550022665250503
16.80099999999755,0.30001937466859147,0.5604504205862091
17.000999999997795,0.2957342631237605,0.5711230043021597
17.20099999999804,0.29118016752731485,0.5802229737000831
17.400999999998284,0.28318085063281856,0.5922906808025895
17.60099999999853,0.27343884231719084,0.6026022983803611
17.800999999998773,0.26411537197294,0.6138806454478453
18.000999999999017,0.25451482004812254,0.6215356621936886
18.20099999999926,0.24041707202912552,0.6268779282602672
18.400999999999506,0.23000595235743795,0.6346966282869752
18.60099999999975,0.2198254818759494,0.6416336372990182
18.799999999999994,0.20526291496601856,0.6448284307045581
19.000000000000238,0.19147925634283844,0.6462742686783935
19.200000000000482,0.17570028490675058,0.6472060279899204
19.400000000000727,0.16438074713510703,0.6503491206728174
19.60000000000097,0.1537724271105576,0.6519665904886085
19.800000000001216,0.1390978463868946,0.6469540927130584
20.00000000000146,0.12763399833729167,0.6462872187376851
