Time (s),X (m),Y (m)
0.001,-0.00030633420604509907,0.0007293631428462583
0.20000000000000015,0.000959057341709243,-0.00040298381853352204
0.4000000000000003,0.0012447846385146275,-0.00017850224260076912
0.6000000000000004,0.0018035757954484792,-0.0004140125027199353
0.8000000000000006,0.0026202987773870094,-0.0010027914855716745
1.0000000000000007,0.0032369246362896585,-0.001255863296444102
1.2009999999999785,0.003971463595889253,-0.0017006827266266345
1.4009999999999565,0.004727518221712937,-0.0021756571080758327
1.6009999999999345,0.005544032295945511,-0.0027361158473016285
1.8009999999999124,0.006397094578481847,-0.0033435354701575218
2.0009999999998906,0.007262318614837969,-0.00395111213550854
2.2009999999998686,0.008146470074344462,-0.0045736911195386485
2.4009999999998466,0.009055645212472001,-0.005229580461431678
2.6009999999998246,0.009986539694002301,-0.005917514671376426
2.8009999999998025,0.010937490650732106,-0.0066312824162531306
3.0009999999997805,0.011906033167546024,-0.007365872741699222
3.2009999999997585,0.012888523567861004,-0.008116219310174257
3.4009999999997365,0.013884650366262161,-0.008879956028754576
3.6009999999997144,0.014894450870213795,-0.009655741986695894
3.8009999999996924,0.015917753535053352,-0.010442115528601475
4.000999999999671,0.016954576872369082,-0.01123901671311545
4.200999999999738,0.018004906012377454,-0.012046170470917788
4.400999999999804,0.019068760807693926,-0.012863065185636124
4.600999999999871,0.02014610842871802,-0.013689199439159975
4.800999999999938,0.021237503363699953,-0.014524390512844269
5.000000000000004,0.0223506918135022,-0.015380348231587054
5.200000000000071,0.023469635681316343,-0.016232109777164747
5.400000000000138,0.02460237424202217,-0.017091607224160792
5.600000000000205,0.025749097918819523,-0.01795850763245032
5.800000000000272,0.02691031646114618,-0.018832842307820688
6.000000000000338,0.02808607900401669,-0.019714171829959524
6.200000000000405,0.029276339172814362,-0.020602243264844545
6.400000000000472,0.030481057602293395,-0.021496641096908548
6.600000000000539,0.03170016178475348,-0.02239700749748821
6.800000000000606,0.032933711881194504,-0.02330323120851475
7.000000000000672,0.03418209851516128,-0.024214992323859888
7.200000000000739,0.035445275249983525,-0.025131901558075986
7.400000000000806,0.03672311454486727,-0.026053558387400717
7.600000000000873,0.03801548286959241,-0.026979648563158237
7.8000000000009395,0.039322252905557326,-0.027910051232286865
8.000000000001005,0.04064374920789942,-0.02884469952794122
8.200000000000895,0.04198018400831478,-0.029783405627993108
8.400000000000784,0.043331577605431076,-0.030725889301167878
8.600000000000673,0.04469784551576408,-0.03167188884200031
8.800000000000562,0.04607886080072471,-0.03262117056303384
9.000000000000451,0.0474744688479861,-0.03357341229588366
9.20000000000034,0.04888462389437821,-0.03452822525353419
9.40000000000023,0.05030919087494195,-0.0354853740766689
9.600000000000119,0.05174799905259242,-0.03644463224324069
9.800000000000008,0.05320104011776753,-0.03740570825254748
10.000999999999896,0.054661827253516364,-0.03836089108219661
10.200999999999786,0.05614340802935364,-0.039325018566142275
10.400999999999675,0.057638955658709176,-0.040290213492869126
10.600999999999564,0.05914825858949085,-0.041256288466948246
10.800999999999453,0.06067110521422371,-0.042222923794129535
11.000999999999342,0.06220743057982469,-0.04318974099047617
11.200999999999231,0.06375739094710603,-0.04415650462404102
11.40099999999912,0.06532113597223871,-0.045122760195819483
11.60099999999901,0.06689867136652375,-0.04608805033220941
11.800999999998899,0.06850890667520745,-0.047129504496801755
12.000999999998788,0.07014356909786472,-0.04809068578062809
12.200999999998677,0.07179817084121966,-0.04911935815252657
12.400999999998566,0.07346912691972637,-0.05015440991889531
12.600999999998455,0.07520777037969852,-0.05125452327818042
12.800999999998345,0.07695464398537388,-0.05233914408702424
13.000999999998234,0.07871766131424465,-0.053421900120341384
13.200999999998123,0.0804742474084444,-0.05447906194865825
13.400999999998012,0.08227013336879381,-0.05560637543978761
13.600999999997901,0.08411725815743203,-0.05672508925307043
13.80099999999779,0.0860159795749087,-0.05784246846708121
14.00099999999768,0.08794389837083011,-0.05895444689010476
14.200999999997569,0.08989191197036973,-0.06005130038049163
14.400999999997458,0.0918280290303966,-0.06112928188061072
14.600999999997347,0.0937756982693136,-0.06218991435718738
14.800999999997236,0.0957255250962114,-0.06323226651545827
15.000999999997125,0.0977269781354501,-0.06426674156594167
15.200999999997014,0.09972050960256132,-0.06527652418654234
15.400999999996904,0.10175001262253935,-0.06627351656384768
15.600999999996793,0.10379966061135218,-0.06726677005832259
15.800999999996682,0.10582373556038743,-0.06821532038518638
16.000999999996573,0.1077889080515063,-0.0691203192501204
16.200999999996817,0.10987620294204835,-0.07004903209053881
16.40099999999706,0.11192014556830282,-0.07093370099811663
16.600999999997306,0.11397566440759238,-0.07179587149726546
16.80099999999755,0.11603640464874326,-0.0726328835383249
17.000999999997795,0.11811985891656472,-0.07345875663720436
17.20099999999804,0.12021649390682414,-0.07425824851162591
17.400999999998284,0.12234637482545818,-0.07503035826548655
17.60099999999853,0.12446070219863292,-0.07577033791122607
17.800999999998773,0.12662253916096938,-0.07649221112872495
18.000999999999017,0.12884355968728955,-0.07717699913004769
18.20099999999926,0.13106104897739518,-0.0777989301473809
18.400999999999506,0.1331864582871226,-0.07836689816696045
18.60099999999975,0.13534181078926383,-0.07889721094491574
18.799999999999994,0.1375481455107619,-0.07937873946933781
19.000000000000238,0.13975361042173493,-0.07980964460759868
19.200000000000482,0.14199209630451387,-0.08019375560207745
19.400000000000727,0.14422206940576707,-0.08052709039586431
19.60000000000097,0.14641284390620893,-0.0808099603591769
19.800000000001216,0.14858738638219793,-0.08104545393775761
20.00000000000146,0.15084515328101136,-0.08123398027885254
