Time (s),X (m),Y (m)
0.001,-0.00042190612164786544,-0.0005916298972236683
0.20000000000000015,0.001334649468547106,0.00036073697571319146
0.4000000000000003,0.0026446876601459316,0.00022184862300680643
0.6000000000000004,0.0069246807924696575,0.003861424394291994
0.8000000000000006,0.013700663226840933,0.009345568287910553
1.0000000000000007,0.021321833280520806,0.016571690283087942
1.2009999999999785,0.025504351864552553,0.02276780553305448
1.4009999999999565,0.03176574848745723,0.02803986891855965
1.6009999999999345,0.04232532166504717,0.039672711318006065
1.8009999999999124,0.05336952542353552,0.041797472870661295
2.0009999999998906,0.06492790085000665,0.04070130597899994
2.2009999999998686,0.07262363944823673,0.04967739129803293
2.4009999999998466,0.08686006249222963,0.05890251285394067
2.6009999999998246,0.10228160144500212,0.07444223044024306
2.8009999999998025,0.11843298245900559,0.08873810009963108
3.0009999999997805,0.1329181721485776,0.09573180538813046
3.2009999999997585,0.14313564055470196,0.09897516177176331
3.4009999999997365,0.14797658575119327,0.10794877649507335
3.6009999999997144,0.15344136285004012,0.11986525703454945
3.8009999999996924,0.16053098389133486,0.13408483270121815
4.000999999999671,0.16933842320865988,0.15600122408331324
4.200999999999738,0.1804533053690029,0.17024792463320237
4.400999999999804,0.18826090600482406,0.1836463678929516
4.600999999999871,0.19278433855965224,0.19241039810811583
4.800999999999938,0.19933709246307654,0.20168309015486094
5.000000000000004,0.20556562268911385,0.21702834615496697
5.200000000000071,0.2119345724463396,0.2324882604844652
5.400000000000138,0.21715736875076724,0.2419756682672477
5.600000000000205,0.219550644935458,0.2500957170516828
5.800000000000272,0.21740589430221582,0.26089069958811645
6.000000000000338,0.2190337433111031,0.27103121153680065
6.200000000000405,0.22225961927733665,0.27866372871643447
6.400000000000472,0.22978939508709062,0.29379639208577657
6.600000000000539,0.23606583856176028,0.3072596738878288
6.800000000000606,0.24467979098020456,0.3272475381266801
7.000000000000672,0.2513768306937586,0.34451830521003873
7.200000000000739,0.2581606164956348,0.35730921722098724
7.400000000000806,0.2639548444590682,0.36849519212635273
7.600000000000873,0.2685286684454447,0.38876747841049264
7.8000000000009395,0.2735021881293153,0.39704121258512787
8.000000000001005,0.2763648609654284,0.4072766387144261
8.200000000000895,0.27707688253139967,0.4199168240996491
8.400000000000784,0.27788231517107387,0.4407796449343593
8.600000000000673,0.27810621345121045,0.45863038623363206
8.800000000000562,0.2808536977796434,0.4788514377231082
9.000000000000451,0.2856353534883159,0.4987171694837341
9.20000000000034,0.29216293916948094,0.5189869300079167
9.40000000000023,0.2973075223881775,0.5340088729308796
9.600000000000119,0.2980803707675848,0.5590846299038231
9.800000000000008,0.29964821505425077,0.5779138787450605
10.000999999999896,0.30089849628096055,0.5950149849013033
10.200999999999786,0.3027299947193366,0.6089930120915908
10.400999999999675,0.3019157915556171,0.6276128306257028
10.600999999999564,0.3033062376764014,0.6439135692557423
10.800999999999453,0.3080947428352783,0.6538325384908725
11.000999999999342,0.31381858580676075,0.6625144330161686
11.200999999999231,0.31785802934593316,0.6760549025562013
11.40099999999912,0.3252055752683218,0.6910563121198698
11.60099999999901,0.3341123822875408,0.7152360103482249
11.800999999998899,0.3382805643696396,0.7298455915437713
12.000999999998788,0.3437949947722737,0.7449162503292154
12.200999999998677,0.34788448217451917,0.763665355698935
12.400999999998566,0.35151637753993564,0.7789510738228471
12.600999999998455,0.3552721952567244,0.7985038327972963
12.800999999998345,0.3595957037494148,0.8201806850498918
13.000999999998234,0.36354432091756017,0.8472910584628678
13.200999999998123,0.36392946154835354,0.8662212801970569
13.400999999998012,0.3653122182218185,0.8883301386791814
13.600999999997901,0.3717555150947846,0.9124799093069117
13.80099999999779,0.382719548863488,0.9352791874053837
14.00099999999768,0.396361644447893,0.9569195304828292
14.200999999997569,0.40616743113822945,0.9753537267215449
14.400999999997458,0.40989390684308075,0.998072910620678
14.600999999997347,0.4084289004514689,1.01687486625171
14.800999999997236,0.4059035331570818,1.033721961190012
15.000999999997125,0.40500768498358797,1.0510600914029553
15.200999999997014,0.3997237503088259,1.078937159153438
15.400999999996904,0.3917721632018513,1.1089907326129989
15.600999999996793,0.3840365106303686,1.1341516851730424
15.800999999996682,0.3752845779776835,1.1582451237652809
16.000999999996573,0.3667360249750099,1.184509283283664
16.200999999996817,0.35723528045061853,1.2105500124703794
16.40099999999706,0.3504869795556001,1.2391904859714113
16.600999999997306,0.33727988306529055,1.2644371093082616
16.80099999999755,0.32681792503391766,1.289338389947885
17.000999999997795,0.318203473420346,1.3183583707061133
17.20099999999804,0.3097721920804418,1.3543126231462925
17.400999999998284,0.3017100079067763,1.3854525576476684
17.60099999999853,0.2992065743587802,1.4090827668964083
17.800999999998773,0.30359904242779867,1.4269460936224063
18.000999999999017,0.30699180566142825,1.454352842469598
18.20099999999926,0.30750156738277473,1.4840170952639427
18.400999999999506,0.3104403892259168,1.5087415689526755
18.60099999999975,0.31130434352338704,1.538156190468539
18.799999999999994,0.31296319097539893,1.5613740654820207
19.000000000000238,0.31248290965739267,1.5894735806196962
19.200000000000482,0.30396676846785065,1.6171582963410547
19.400000000000727,0.29056772371361766,1.6463871195883704
19.60000000000097,0.2764141848193754,1.6766696618647516
19.800000000001216,0.2647773101902887,1.699851431532547
20.00000000000146,0.2508868703191601,1.721816693206871
