Time (s),X (m),Y (m)
0.001,-0.00030633420604509907,0.0007293631428462583
0.20000000000000015,0.0007479864744048494,-5.9990694775616474e-05
0.4000000000000003,0.0013025078348278302,-0.0002193800562187229
0.6000000000000004,0.0020346366139690833,-0.0006895572233113278
0.8000000000000006,0.0026953422284338663,-0.0009973058282564714
1.0000000000000007,0.0036049327085807834,-0.001648454873603473
1.2009999999999785,0.004481759762764131,-0.002209232721124062
1.4009999999999565,0.005397855475501174,-0.0028087320682067974
1.6009999999999345,0.006354446389360951,-0.0034500520115473554
1.8009999999999124,0.007348713325391692,-0.004114271769365958
2.0009999999998906,0.008417077859314769,-0.004847715191563011
2.2009999999998686,0.009549672968965419,-0.005642055376843334
2.4009999999998466,0.010735940967950747,-0.006482590805427301
2.6009999999998246,0.011968010946726452,-0.007359325389175119
2.8009999999998025,0.013244607268312069,-0.008274091734575066
3.0009999999997805,0.014566621066294402,-0.009225728271441655
3.2009999999997585,0.015938494647232848,-0.010217546204449176
3.4009999999997365,0.017357679246268007,-0.01124656410861276
3.6009999999997144,0.018822950826393698,-0.012311325391979934
3.8009999999996924,0.02033395741258108,-0.013410575416136031
4.000999999999671,0.02188629946176022,-0.014539159202848696
4.200999999999738,0.02347922027417289,-0.015696373523139243
4.400999999999804,0.025110360980129687,-0.016879522480521058
4.600999999999871,0.02676970802105905,-0.01807667904307762
4.800999999999938,0.028453969398670148,-0.01928355656597683
5.000000000000004,0.030150862090796215,-0.02048953551722796
5.200000000000071,0.03188007420724033,-0.021711542316766017
5.400000000000138,0.0336291452036468,-0.022938761948271255
5.600000000000205,0.035397788726013,-0.024170357659110783
5.800000000000272,0.03718555148284072,-0.02540573203421078
6.000000000000338,0.03899210373676617,-0.026644310963755018
6.200000000000405,0.04081716581482398,-0.02788549888583981
6.400000000000472,0.04266023765784315,-0.029128555919253726
6.600000000000539,0.044472769693216736,-0.030444076469541188
6.800000000000606,0.04634761837552831,-0.03171883589488556
7.000000000000672,0.04822529756786439,-0.03306068051906693
7.200000000000739,0.05003759262215367,-0.034490841577468505
7.400000000000806,0.05186843586753873,-0.03588914267506319
7.600000000000873,0.05377257027799319,-0.03730190949083969
7.8000000000009395,0.055729946349207096,-0.03880422933612655
8.000000000001005,0.05773131317038675,-0.040305754315177994
8.200000000000895,0.05969604815522403,-0.04179064340245339
8.400000000000784,0.06172205950753287,-0.043264062378727125
8.600000000000673,0.06372634951049727,-0.044754392097086516
8.800000000000562,0.06570761681641847,-0.046173566558940615
9.000000000000451,0.06777811702555654,-0.04764517650272135
9.20000000000034,0.06994435884252508,-0.049103265165917516
9.40000000000023,0.0719419619500299,-0.050490578364411426
9.600000000000119,0.07411408513353245,-0.05188615276236838
9.800000000000008,0.07615147088847864,-0.05324509895258006
10.000999999999896,0.07825509807155337,-0.05455907982949954
10.200999999999786,0.08038210387251696,-0.05589806146679377
10.400999999999675,0.0824690359173819,-0.05714545807780602
10.600999999999564,0.08465622892653853,-0.05843893984476018
10.800999999999453,0.08678169882586727,-0.059636538644734026
11.000999999999342,0.08896171363728521,-0.06084657989247734
11.200999999999231,0.09112592540390832,-0.06195775799534208
11.40099999999912,0.09319508622955558,-0.06303387314858865
11.60099999999901,0.0953713404011138,-0.06405769211924639
11.800999999998899,0.09744239216108808,-0.06504278503238838
12.000999999998788,0.09958260249131354,-0.06596383539466762
12.200999999998677,0.10170313642905889,-0.06686622700250429
12.400999999998566,0.10395107474708178,-0.06770044249016456
12.600999999998455,0.10608305483731546,-0.06847222475095402
12.800999999998345,0.10825522191721908,-0.069133624330533
13.000999999998234,0.11040579786643323,-0.0697578724053575
13.200999999998123,0.1125211513579194,-0.07025424660028813
13.400999999998012,0.11470066987421498,-0.07072559747172485
13.600999999997901,0.11682684792808568,-0.07108124499140166
13.80099999999779,0.11907943337251801,-0.0714092887347401
14.00099999999768,0.1213268978064972,-0.07162740170492168
14.200999999997569,0.12352070326716606,-0.07181360121845833
14.400999999997458,0.12574884042620443,-0.07189371346687108
14.600999999997347,0.12784379683555763,-0.07196290649048832
14.800999999997236,0.1300926859183196,-0.07192581776718984
15.000999999997125,0.13218869854345724,-0.07189326028321326
15.200999999997014,0.13446485213646087,-0.07175005598469408
15.400999999996904,0.13668057281492998,-0.07159584575244167
15.600999999996793,0.1390091929962698,-0.07133796261953466
15.800999999996682,0.141276225940474,-0.07107213476657627
16.000999999996573,0.1435639905661293,-0.07071958111554118
16.200999999996817,0.14582548802806627,-0.07036154555812037
16.40099999999706,0.1480087032893792,-0.0699341340704765
16.600999999997306,0.15048560549162796,-0.06940526637703169
16.80099999999755,0.1530955367555714,-0.06876059746856325
17.000999999997795,0.15554637957513007,-0.0681271076845154
17.20099999999804,0.158178887583674,-0.06725913422952834
17.400999999998284,0.16058531637683401,-0.06652074071396812
17.60099999999853,0.16314243505365456,-0.06538519813072989
17.800999999998773,0.1656253871408674,-0.06442517728270468
18.000999999999017,0.1684249919012312,-0.06319222057223262
18.20099999999926,0.17101766316448463,-0.06197515000798468
18.400999999999506,0.17371050134180194,-0.06055721969797446
18.60099999999975,0.17632467349368208,-0.059238259962076864
18.799999999999994,0.178740261128543,-0.05764882531298421
19.000000000000238,0.18122911414780687,-0.05615891731429325
19.200000000000482,0.1836335459493928,-0.05445098076221205
19.400000000000727,0.1860983885393733,-0.05285463736737256
19.60000000000097,0.18841403598307127,-0.0510437831692753
19.800000000001216,0.19066765688345125,-0.04928008643314751
20.00000000000146,0.19277917476943285,-0.04732885019230021
