Time (s),X (m),Y (m)
0.001,-1.2891339751951317e-05,-0.0009348340498585851
0.20000000000000015,0.0007600380503763973,-0.00017518098196154974
0.4000000000000003,0.0012495835387229591,-6.357814929211907e-05
0.6000000000000004,0.002032920728906557,0.00040963041266582715
0.8000000000000006,0.002793471660237192,0.0005962606641944502
1.0000000000000007,0.003617770058087785,0.0008243514234862685
1.2009999999999785,0.004534270757499925,0.0013353998930519713
1.4009999999999565,0.005373696450713484,0.0017278343022432904
1.6009999999999345,0.006187719667393987,0.0020736277081948454
1.8009999999999124,0.00702036405448784,0.0024651949767069362
2.0009999999998906,0.007893596775005958,0.0029320411194498925
2.2009999999998686,0.008798077678684447,0.00345382406426654
2.4009999999998466,0.009715934059252885,0.004006774735836325
2.6009999999998246,0.010635831721043085,0.004573892267250942
2.8009999999998025,0.011549770331635921,0.0051490597778835155
3.0009999999997805,0.012462412192562607,0.0057364784450120625
3.2009999999997585,0.013407737059814092,0.006340506016509472
3.4009999999997365,0.014391366065652228,0.0069624092550803485
3.6009999999997144,0.015410564565345708,0.007600190258049548
3.8009999999996924,0.016461061722112993,0.008250652062819091
4.000999999999671,0.017539365716574405,0.008911687698870706
4.200999999999738,0.01864309868761004,0.009582324164604545
4.400999999999804,0.019770769455200527,0.010262491257965276
4.600999999999871,0.020921192499621752,0.010951454598218101
4.800999999999938,0.02209216567822163,0.011648481335665744
5.000000000000004,0.023274436441517644,0.012329254916727468
5.200000000000071,0.024474070590929597,0.013040540490506415
5.400000000000138,0.025667533040171945,0.013758791780466843
5.600000000000205,0.026853417610475844,0.014483444920675421
5.800000000000272,0.02803025271981985,0.015213870993028261
6.000000000000338,0.029196649081990406,0.015949526461010017
6.200000000000405,0.030350123784578846,0.016689502819481523
6.400000000000472,0.031475113109111164,0.017430178470953305
6.600000000000539,0.03256259736142538,0.0181699073983816
6.800000000000606,0.03361248731678518,0.018909028697994604
7.000000000000672,0.03462478038413205,0.01964778722651195
7.200000000000739,0.03559949966494056,0.020386325441667845
7.400000000000806,0.03653659275411276,0.02112450556496272
7.600000000000873,0.03743611106809565,0.02186207667781028
7.8000000000009395,0.038298299178076006,0.0225989323247804
8.000000000001005,0.03912304830409217,0.023335056388503896
8.200000000000895,0.039910455326704945,0.02407034992550246
8.400000000000784,0.04066066203073499,0.024804987995033587
8.600000000000673,0.04137149318642175,0.025539133750992437
8.800000000000562,0.0420109546973463,0.02627482119124636
9.000000000000451,0.042567997755416406,0.02701148257364169
9.20000000000034,0.043043181701037915,0.027748684956780616
9.40000000000023,0.043438832884159014,0.02848623813406202
9.600000000000119,0.04375729439803486,0.02922392228604792
9.800000000000008,0.04400221890654594,0.029961665613603063
10.000999999999896,0.044175256620713206,0.030721063751921254
10.200999999999786,0.04428432794356596,0.03145878530444657
10.400999999999675,0.04433062197504357,0.03219658995037309
10.600999999999564,0.04431850892661805,0.032934520806544715
10.800999999999453,0.04425200567872553,0.033672697158981385
11.000999999999342,0.04413618003332349,0.03441127170483305
11.200999999999231,0.04397670237452009,0.03515046339051894
11.40099999999912,0.043778338614686274,0.03589051045910848
11.60099999999901,0.043544553879306704,0.03663153047195923
11.800999999998899,0.043286188285700515,0.037374225925386355
12.000999999998788,0.043009589888050086,0.03811907663792202
12.200999999998677,0.0427149851699022,0.03886606979965276
12.400999999998566,0.04240384805037673,0.03961514317308865
12.600999999998455,0.042079266640966034,0.040366552177322636
12.800999999998345,0.04174179608322243,0.04112030528271015
13.000999999998234,0.04139427629552775,0.04187647710910213
13.200999999998123,0.04103896810488724,0.0426352021905546
13.400999999998012,0.040676186429818205,0.04339654888788587
13.600999999997901,0.040306403068145126,0.044160575716599294
13.80099999999779,0.03992990270950922,0.04492732447414858
14.00099999999768,0.03954677553328272,0.045696827757147146
14.200999999997569,0.03915707593285689,0.04646908763103613
14.400999999997458,0.0387608356018563,0.04724412368553121
14.600999999997347,0.03835806944921304,0.048022117724235355
14.800999999997236,0.037948667765716586,0.04880324488646688
15.000999999997125,0.03753261000985066,0.04958765421304442
15.200999999997014,0.03710993283780808,0.050375409112811576
15.400999999996904,0.0366807249974214,0.05116649777468067
15.600999999996793,0.03624496508805492,0.05196099179898399
15.800999999996682,0.03580263037805067,0.052759063453512674
16.000999999996573,0.0353536465432156,0.05356093953287061
16.200999999996817,0.034897962333354404,0.05436691471785562
16.40099999999706,0.034435543870131466,0.05517723832605136
16.600999999997306,0.03396634195963205,0.055992062915677175
16.80099999999755,0.033490316888019775,0.05681161110073563
17.000999999997795,0.033009231984583394,0.05763563535964842
17.20099999999804,0.032527673451877306,0.058461652018004684
17.400999999998284,0.03204574206805285,0.05928998927251317
17.60099999999853,0.031563781826347344,0.060121578683027366
17.800999999998773,0.031081909515271847,0.06095828153476575
18.000999999999017,0.030600077999485126,0.06180106387965996
18.20099999999926,0.030118438495982263,0.06265045766356053
18.400999999999506,0.029637142421665687,0.06350715140417143
18.60099999999975,0.029156008214015282,0.06437286825121825
18.799999999999994,0.028686988186458984,0.06522634840689569
19.000000000000238,0.02820576849237822,0.06611002622140824
19.200000000000482,0.02772436068685537,0.06700129198590217
19.400000000000727,0.02724269216980366,0.06789927598529476
19.60000000000097,0.0267607535135411,0.06880414368747034
19.800000000001216,0.02627815121789356,0.06971616529131237
20.00000000000146,0.025794687362983123,0.07063539918147994
