Time (s),X (m),Y (m)
0.001,0.0006899943756669482,0.0009963285817120476
0.20000000000000015,0.0007485354934358608,-0.0008461276484076299
0.4000000000000003,0.00387279970338084,0.001079332105139469
0.6000000000000004,0.01210560545949687,0.012207943699030223
0.8000000000000006,0.02200078272434013,0.015870853463270395
1.0000000000000007,0.03253125105673101,0.021666985578053376
1.2009999999999785,0.05389656397144676,0.03014678013113086
1.4009999999999565,0.0712684669240079,0.04330404232728559
1.6009999999999345,0.0864865588038097,0.052247775199603184
1.8009999999999124,0.10178226930724696,0.06433747061199983
2.0009999999998906,0.12306990636805566,0.08409596103668059
2.2009999999998686,0.144627044082995,0.09330182748555907
2.4009999999998466,0.16415345076967286,0.0913032803373381
2.6009999999998246,0.18759544145320645,0.09936745996976569
2.8009999999998025,0.21304051016667694,0.10861280449662959
3.0009999999997805,0.23729942355869255,0.1194002298865229
3.2009999999997585,0.24945672454608156,0.12265061373179169
3.4009999999997365,0.2624798609829413,0.12590735475343354
3.6009999999997144,0.2809123426980531,0.12672907913848203
3.8009999999996924,0.28878839222966907,0.12326198608464142
4.000999999999671,0.29419296380763094,0.11289485042621211
4.200999999999738,0.3028264278664185,0.1026497845815989
4.400999999999804,0.31557621632773514,0.09495394866994157
4.600999999999871,0.32194312607216197,0.08567565306708048
4.800999999999938,0.3378230381228698,0.08199153804224696
5.000000000000004,0.3580724149109557,0.08231191613200983
5.200000000000071,0.37896690593099003,0.08129252920588549
5.400000000000138,0.4135735130244957,0.08432629653697826
5.600000000000205,0.4449402544679186,0.08610640856750121
5.800000000000272,0.4679906679110882,0.08366511159783412
6.000000000000338,0.48535593860389636,0.08055188042290524
6.200000000000405,0.4897496146514647,0.06635194410416195
6.400000000000472,0.5071050431606374,0.06028489448612161
6.600000000000539,0.5348655487936372,0.06203901881524343
6.800000000000606,0.557129664040311,0.06098376284587073
7.000000000000672,0.585419571038887,0.06077725918188752
7.200000000000739,0.6077646200762064,0.05849367180019033
7.400000000000806,0.6268381778383838,0.056929906014637925
7.600000000000873,0.6347970457786121,0.045215819480982494
7.8000000000009395,0.6445939024829344,0.026107675440564148
8.000000000001005,0.653925920819228,-0.00042635687781508784
8.200000000000895,0.6552274582630863,-0.024398004833116504
8.400000000000784,0.6638254363619491,-0.04572422690834791
8.600000000000673,0.6714535064860351,-0.06674083165633878
8.800000000000562,0.6893662010059601,-0.09100811469343857
9.000000000000451,0.7126759919476717,-0.11492470801612822
9.20000000000034,0.7222179109403211,-0.1406544563015337
9.40000000000023,0.7216810081881633,-0.167535905648812
9.600000000000119,0.7277456602392952,-0.19771053618969853
9.800000000000008,0.736443656440139,-0.23008232536719977
10.000999999999896,0.7514988543691197,-0.2665442136159276
10.200999999999786,0.7557367912929719,-0.2946461568490192
10.400999999999675,0.7575680514650667,-0.31769756492042106
10.600999999999564,0.7636586714466521,-0.34241975243233314
10.800999999999453,0.7682188679484367,-0.3700982279162111
11.000999999999342,0.7739434117920048,-0.4053040888471315
11.200999999999231,0.7674351775220618,-0.4380752803148698
11.40099999999912,0.7675259202212291,-0.4709966467188135
11.60099999999901,0.7617486425238158,-0.5009113059336472
11.800999999998899,0.7725731998932728,-0.5298165366301123
12.000999999998788,0.7831776587216189,-0.5569362312124431
12.200999999998677,0.7766322481478667,-0.5807113737812122
12.400999999998566,0.7812254643348844,-0.605112703051815
12.600999999998455,0.7930461188251842,-0.6341675155906659
12.800999999998345,0.8013079741110304,-0.6679139478892765
13.000999999998234,0.807681298617598,-0.6981837148825413
13.200999999998123,0.8086820029364402,-0.7244084734814911
13.400999999998012,0.8128623982758074,-0.7531433943621701
13.600999999997901,0.8146282717889537,-0.7767516759083327
13.80099999999779,0.8124091747214207,-0.8013839954007639
14.00099999999768,0.814608062457999,-0.8302037259826299
14.200999999997569,0.8140965064700557,-0.8595442580480822
14.400999999997458,0.8062507053180578,-0.8883175707821163
14.600999999997347,0.8023679224864855,-0.9148503579364937
14.800999999997236,0.8013654771163309,-0.9399364975982534
15.000999999997125,0.7975559106798041,-0.9726042335896281
15.200999999997014,0.801611053469026,-1.0114322677763532
15.400999999996904,0.8056209775154866,-1.047216432606408
15.600999999996793,0.8097512129437516,-1.0842953963983184
15.800999999996682,0.8124945571729507,-1.1163377570773614
16.000999999996573,0.818009064399736,-1.1507061989923357
16.200999999996817,0.8262009515830718,-1.1894042641895752
16.40099999999706,0.8264418528283475,-1.2223075295769252
16.600999999997306,0.8222229293095626,-1.249369005401459
16.80099999999755,0.8239415860370712,-1.272962615587506
17.000999999997795,0.818533830203675,-1.2971077661671582
17.20099999999804,0.81934983383427,-1.3311352484462233
17.400999999998284,0.8222307640477886,-1.363302934835573
17.60099999999853,0.8244966269593407,-1.3975215143800626
17.800999999998773,0.8207507922800267,-1.4327430609077276
18.000999999999017,0.8209301921648239,-1.4674805627334573
18.20099999999926,0.8183776423367289,-1.5022534882916518
18.400999999999506,0.8215767136590036,-1.5337904467978418
18.60099999999975,0.8180025657382097,-1.5600377480842376
18.799999999999994,0.8093005962168499,-1.584969348908252
19.000000000000238,0.8092874207194791,-1.6174190311249066
19.200000000000482,0.8109425164962303,-1.6566224539007508
19.400000000000727,0.8112107300235795,-1.692251522139611
19.60000000000097,0.8025300725360169,-1.711112418806174
19.800000000001216,0.7875923193476417,-1.7404861449974875
20.00000000000146,0.7738171962857353,-1.7737478615633822
