Time (s),X (m),Y (m)
0.001,0.0008589492133542695,-0.0009348340498585851
0.20000000000000015,0.000814131361089472,-1.3674070336110173e-05
0.4000000000000003,0.001311238569543917,-0.0003519780772515546
0.6000000000000004,0.002096291676388184,-0.0006162176086160952
0.8000000000000006,0.003025827878512224,-0.0009179404177621709
1.0000000000000007,0.004778609843406224,-0.0011987356086314719
1.2009999999999785,0.0070945109025561046,-0.0015377397683062875
1.4009999999999565,0.00962417693523295,-0.0017887382511875853
1.6009999999999345,0.011342444487563852,-0.0018895076858792778
1.8009999999999124,0.013320328383301883,-0.0011119932542680425
2.0009999999998906,0.01625998899959285,-0.0015229610684656435
2.2009999999998686,0.01852108773148673,-0.0008701747986857344
2.4009999999998466,0.020765410103703825,-2.803372588394945e-05
2.6009999999998246,0.02336294301285252,0.00015825488702462436
2.8009999999998025,0.02573850633347524,0.0011058567885266217
3.0009999999997805,0.02810167452669235,0.0019319398563493516
3.2009999999997585,0.030311634966275286,0.0022528406250377072
3.4009999999997365,0.032361583982835576,0.003018210140740961
3.6009999999997144,0.034677715605635484,0.0036299584527346015
3.8009999999996924,0.036263571457537815,0.004608684272235908
4.000999999999671,0.037628712702880464,0.005621566253071528
4.200999999999738,0.03902413596671272,0.006880162701981105
4.400999999999804,0.04071881143948914,0.008355476896853162
4.600999999999871,0.04165364631219746,0.01019791255368752
4.800999999999938,0.041993819211506085,0.012274599262395323
5.000000000000004,0.04284181613892518,0.014709260718829864
5.200000000000071,0.044031253403492766,0.01730845327748294
5.400000000000138,0.04501321360255355,0.02062624747541636
5.600000000000205,0.04541072128336591,0.02397606420060521
5.800000000000272,0.04564140537370197,0.027016977468791756
6.000000000000338,0.045303503358602795,0.030160321649472507
6.200000000000405,0.04602422213934048,0.03404404132975869
6.400000000000472,0.046024081546489834,0.03775551639118424
6.600000000000539,0.046709054325273655,0.04168041220807925
6.800000000000606,0.04577477278642737,0.044958241236868556
7.000000000000672,0.04514979588446837,0.049630140496280874
7.200000000000739,0.0442484973321095,0.053980487623076605
7.400000000000806,0.04334198776051322,0.05844859358802835
7.600000000000873,0.04226379435945574,0.06214285013645411
7.8000000000009395,0.04136789183787409,0.06544130324310163
8.000000000001005,0.04221669107158065,0.06777682762612479
8.200000000000895,0.04080807397493662,0.0709505431869736
8.400000000000784,0.039383446155861604,0.07281941229342356
8.600000000000673,0.0380060703585357,0.07507185028106252
8.800000000000562,0.03530313910885366,0.07756328422463823
9.000000000000451,0.032729639120507956,0.0798160702643163
9.20000000000034,0.029589131144232415,0.08140070631313084
9.40000000000023,0.026361209450261762,0.08311505425638648
9.600000000000119,0.022885874367867317,0.08368918698544517
9.800000000000008,0.019377592420266994,0.08491995049982519
10.000999999999896,0.015823816063016437,0.08531209376702652
10.200999999999786,0.012109399050707181,0.08576834467771122
10.400999999999675,0.008099003401359639,0.08586509377745405
10.600999999999564,0.003941682362319089,0.08638720934086845
10.800999999999453,-3.371433683572198e-05,0.08690464202946899
11.000999999999342,-0.003655340981945717,0.08655560275341678
11.200999999999231,-0.008128911003419182,0.08638195909101812
11.40099999999912,-0.011516569824854243,0.08636900597594656
11.60099999999901,-0.016075276554622923,0.0859658781874844
11.800999999998899,-0.021397978888457903,0.08519486887527031
12.000999999998788,-0.0253676250873382,0.08422398981421764
12.200999999998677,-0.029765499984881594,0.08282110991687512
12.400999999998566,-0.032995439121302865,0.08213967671230676
12.600999999998455,-0.03564833521658674,0.08128048337753135
12.800999999998345,-0.039040761673899534,0.08014839426351907
13.000999999998234,-0.041506686503135534,0.07914681560383055
13.200999999998123,-0.04420588641323012,0.07672089659171645
13.400999999998012,-0.04583825057157817,0.07444335721771674
13.600999999997901,-0.047979586411802395,0.07275260235484325
13.80099999999779,-0.04952209229881358,0.07087939459883602
14.00099999999768,-0.05094403813428597,0.06791867107512652
14.200999999997569,-0.05222167753214304,0.06452006678693227
14.400999999997458,-0.053002600538956605,0.06109805892266954
14.600999999997347,-0.05360421881550806,0.05712202922340386
14.800999999997236,-0.05419141928891156,0.05337684674320427
15.000999999997125,-0.05435215512968032,0.04922636576615587
15.200999999997014,-0.05460289708067884,0.04524969755493535
15.400999999996904,-0.05490658342300474,0.04113732607903602
15.600999999996793,-0.05471437051795034,0.03683326047900392
15.800999999996682,-0.05481715282891092,0.032163751338070964
16.000999999996573,-0.05467888576159685,0.02842119966888374
16.200999999996817,-0.05459129701318773,0.023336311163050908
16.40099999999706,-0.0541716042763436,0.01910028409963918
16.600999999997306,-0.05388667750762957,0.015054914815280228
16.80099999999755,-0.05339492798245926,0.011262078979026957
17.000999999997795,-0.05241923696833079,0.007297437663850236
17.20099999999804,-0.05124456168255738,0.003579632191064209
17.400999999998284,-0.05019744891880279,-0.0003508906341705017
17.60099999999853,-0.04907031710908167,-0.0037737943347955923
17.800999999998773,-0.04827495103181992,-0.006972187354226327
18.000999999999017,-0.04621297640993142,-0.010145182595777659
18.20099999999926,-0.04408247677227741,-0.012973033183619852
18.400999999999506,-0.04185987595817176,-0.015312157355385434
18.60099999999975,-0.03917546268330154,-0.01727574104284402
18.799999999999994,-0.036099612384897034,-0.019160802368686104
19.000000000000238,-0.032838034700350224,-0.021109774478913577
19.200000000000482,-0.02957479498530037,-0.022448527461377685
19.400000000000727,-0.02560878646274334,-0.02363139911125807
19.60000000000097,-0.021783547767842477,-0.024776716871157706
19.800000000001216,-0.017475363480956695,-0.025099991517948225
20.00000000000146,-0.013215305664419913,-0.02595225098023848
