Time (s),X (m),Y (m)
0.001,-0.00023999057263828476,-0.0007901558823345064
0.20000000000000015,0.0014127820255247989,0.0004116911645255832
0.4000000000000003,0.00044932166690160217,-0.0029965197316983543
0.6000000000000004,0.0012222633985430214,-0.004505929018027907
0.8000000000000006,0.004886580180245867,-0.00023009925557648914
1.0000000000000007,0.005095238175026334,0.003427362234005163
1.2009999999999785,0.009626077126467727,0.005041328058302867
1.4009999999999565,0.022727051453882804,0.01706858828809554
1.6009999999999345,0.03545108129156775,0.021506586518125783
1.8009999999999124,0.04951734137915194,0.021461578130387092
2.0009999999998906,0.06302340189821998,0.021478930077546223
2.2009999999998686,0.07626483749462486,0.029591726544920302
2.4009999999998466,0.08894948653544667,0.03905523159339848
2.6009999999998246,0.10086785874220966,0.05357654130987849
2.8009999999998025,0.11088212915243784,0.05928804547423499
3.0009999999997805,0.12048908250020311,0.06109285502121628
3.2009999999997585,0.1306737632968371,0.07637314382974296
3.4009999999997365,0.1402410247614186,0.0763726657428364
3.6009999999997144,0.15382609484055607,0.08052728631410155
3.8009999999996924,0.1669658195700866,0.0850242145913718
4.000999999999671,0.17828456137355525,0.09529560075345454
4.200999999999738,0.1895185150160615,0.10806741522135956
4.400999999999804,0.19888513835858795,0.1285294760372725
4.600999999999871,0.20470272247627838,0.14727252111263978
4.800999999999938,0.20917752556006425,0.16418892560006548
5.000000000000004,0.21480459750907893,0.17681825927281317
5.200000000000071,0.21641719249269475,0.1907701863801455
5.400000000000138,0.22172588659077072,0.20370258014147144
5.600000000000205,0.22957452891709548,0.23026775982879769
5.800000000000272,0.23930043141730786,0.2518001390869165
6.000000000000338,0.2523518514626005,0.2756277715866331
6.200000000000405,0.26126230237204945,0.29248948670305175
6.400000000000472,0.2692846490110266,0.3026723580099515
6.600000000000539,0.27040125938701226,0.3248162841243141
6.800000000000606,0.27255966464788917,0.33797123257977396
7.000000000000672,0.277693651429534,0.3549082153105854
7.200000000000739,0.2905474249648768,0.3647747917302018
7.400000000000806,0.30257394765198825,0.3804398381217459
7.600000000000873,0.3126164278448174,0.4002366355307861
7.8000000000009395,0.32147210140060667,0.4191070329745209
8.000000000001005,0.33369048447506944,0.4359828360230993
8.200000000000895,0.34409953524007836,0.4505237263712772
8.400000000000784,0.3520136488180395,0.4568458235106439
8.600000000000673,0.3651324381760178,0.4727599893730191
8.800000000000562,0.3764920052517935,0.4919614003760826
9.000000000000451,0.3840193131837218,0.5139258556135835
9.20000000000034,0.3914347525491244,0.5295205807907902
9.40000000000023,0.40108633555292905,0.5527439944839134
9.600000000000119,0.4078659637257529,0.5809744994386151
9.800000000000008,0.4115946945955841,0.6071115771425588
10.000999999999896,0.4128459629041937,0.6297614599680009
10.200999999999786,0.41744558595766745,0.6518483354302408
10.400999999999675,0.4240114502008171,0.6781177715744747
10.600999999999564,0.4334647163139927,0.714893472656298
10.800999999999453,0.4416998174812225,0.7457250690181553
11.000999999999342,0.44974017809208705,0.7782538758276634
11.200999999999231,0.4644837526858813,0.7960295635638197
11.40099999999912,0.4811221397264648,0.8128883086343929
11.60099999999901,0.4951303112745135,0.8315211194004248
11.800999999998899,0.5092110654151843,0.8408327943457458
12.000999999998788,0.5218333319924346,0.8588305021329474
12.200999999998677,0.534297502359061,0.8784886917735396
12.400999999998566,0.5509631182998245,0.8947709544573332
12.600999999998455,0.5705354776270267,0.9108480242286642
12.800999999998345,0.5893650799909507,0.9356097314554431
13.000999999998234,0.606773351232916,0.9623832152951151
13.200999999998123,0.6251976003045979,0.974112117306376
13.400999999998012,0.6399668541368296,0.9959960068359867
13.600999999997901,0.6497305977353628,1.023334947640515
13.80099999999779,0.6575942565307011,1.0486024838763741
14.00099999999768,0.666715912950756,1.0733100095999368
14.200999999997569,0.6769254865944183,1.1088946287940165
14.400999999997458,0.6899987477439301,1.1334512895306066
14.600999999997347,0.7077849740880032,1.156261765736035
14.800999999997236,0.7326145927080789,1.168435123863455
15.000999999997125,0.7603395765744702,1.1923909073126242
15.200999999997014,0.7834259233127896,1.2179818629913268
15.400999999996904,0.8057742371211104,1.2330605652475235
15.600999999996793,0.8291181423491846,1.2542179030628156
15.800999999996682,0.8495955273777668,1.2840595946660702
16.000999999996573,0.8632022790422499,1.324084760860471
16.200999999996817,0.8669776896439434,1.354260040028253
16.40099999999706,0.8701674329077864,1.3886041952837846
16.600999999997306,0.8690344176160195,1.4169658298872096
16.80099999999755,0.8754316483352492,1.4445821258727776
17.000999999997795,0.8880466438230841,1.4651221209650114
17.20099999999804,0.8978406686157526,1.4873444979097643
17.400999999998284,0.9002162612569373,1.5173859852673244
17.60099999999853,0.8994806756142134,1.5600309144859594
17.800999999998773,0.9006376019123619,1.5974236860102136
18.000999999999017,0.9027092649631334,1.6316304708742233
18.20099999999926,0.9005558294773203,1.6832123233858511
18.400999999999506,0.8920802352315088,1.7294345513955476
18.60099999999975,0.8905435286408024,1.7652960322178834
18.799999999999994,0.8925430537816282,1.7932935262830971
19.000000000000238,0.8933054165679667,1.8241803455389793
19.200000000000482,0.88300585754844,1.8716631345163603
19.400000000000727,0.8685423752944357,1.9179754612378122
19.60000000000097,0.8525540466317642,1.9690766825120378
19.800000000001216,0.837031922952438,2.01272436448039
20.00000000000146,0.8236399768116243,2.060742274498618
