Time (s),X (m),Y (m)
0.001,0.00042302893680115855,0.0010314752485082437
0.20000000000000015,0.0008187887709860624,6.15442990295162e-05
0.4000000000000003,0.0012316733411015458,-8.362342930178484e-05
0.6000000000000004,0.001796617792057756,-3.095573632486734e-05
0.8000000000000006,0.002668951722224229,-8.639363575209464e-06
1.0000000000000007,0.0036849771175282067,-6.740260578560389e-05
1.2009999999999785,0.004720567395809597,-0.00013768481401933643
1.4009999999999565,0.005674313540044241,-0.00010007851657546513
1.6009999999999345,0.006571419216438503,-8.356134088389587e-05
1.8009999999999124,0.007489465560440252,-6.149163183135493e-05
2.0009999999998906,0.008481371099465762,-5.403213331363386e-05
2.2009999999998686,0.009540595946544628,-8.848915988200875e-05
2.4009999999998466,0.010639720681803575,-0.00013657729933309564
2.6009999999998246,0.01176945677820158,-0.00018828174939806668
2.8009999999998025,0.012909542594903983,-0.0002591701604525321
3.0009999999997805,0.014050773744564189,-0.00033437436032456404
3.2009999999997585,0.015199461589715225,-0.00041402111635194353
3.4009999999997365,0.016345642857852213,-0.0004977906628623072
3.6009999999997144,0.017510541407101142,-0.0005895216028116495
3.8009999999996924,0.01870275044366087,-0.0006849656354922492
4.000999999999671,0.019921958648065247,-0.0007884139118472902
4.200999999999738,0.021165846346916893,-0.0009020260039216067
4.400999999999804,0.022432469178615973,-0.001025013435090515
4.600999999999871,0.023716550036221425,-0.001157711123513848
4.800999999999938,0.02498617650538367,-0.0013011970539449425
5.000000000000004,0.02621971580926902,-0.0014384165791761032
5.200000000000071,0.027435456008650612,-0.0016003614922494823
5.400000000000138,0.02862165833667091,-0.0017706384119191897
5.600000000000205,0.029777357847651377,-0.0019497032128839322
5.800000000000272,0.030901751172502864,-0.0021383184817831227
6.000000000000338,0.03199407830206266,-0.0023350191535029185
6.200000000000405,0.03305300336648795,-0.002537923394341133
6.400000000000472,0.0340776808006615,-0.002747936917371205
6.600000000000539,0.035066662895465756,-0.002965468699583773
6.800000000000606,0.036019836290523424,-0.0031924449099533596
7.000000000000672,0.03693673143517507,-0.0034293971578165396
7.200000000000739,0.03782005087939619,-0.0036751627253394635
7.400000000000806,0.03868241719500164,-0.003931605806762808
7.600000000000873,0.03955120458518327,-0.0041979759517613525
7.8000000000009395,0.04050965032437474,-0.004440794156984647
8.000000000001005,0.04216362184299955,-0.004634039898624981
8.200000000000895,0.04389397408933727,-0.004932253009333112
8.400000000000784,0.04485070969049565,-0.005517113018692667
8.600000000000673,0.045804033508457416,-0.006075837217087248
8.800000000000562,0.046742715841448026,-0.006799932866081004
9.000000000000451,0.04768660286284278,-0.007336641381924843
9.20000000000034,0.04920045167664809,-0.007505693931281264
9.40000000000023,0.05155285788032865,-0.007400520922942417
9.600000000000119,0.053668035486861096,-0.007098621924427039
9.800000000000008,0.055603056293273334,-0.006857808676326906
10.000999999999896,0.057735690014406545,-0.0060687971916090905
10.200999999999786,0.05935986715054132,-0.005700290754265751
10.400999999999675,0.061187203872749646,-0.005047788102417517
10.600999999999564,0.06285383906484956,-0.004268769445367337
10.800999999999453,0.0643096283502882,-0.0037924577835614162
11.000999999999342,0.0656355546843662,-0.0036573597127288336
11.200999999999231,0.0668542705861585,-0.0031133357390781486
11.40099999999912,0.06812429753643634,-0.0024181235262293794
11.60099999999901,0.06925184920719571,-0.001773532624815318
11.800999999998899,0.06973140943313687,-0.0015197869431996984
12.000999999998788,0.07015415108321645,-0.001125557982926709
12.200999999998677,0.0705168715050513,-0.0006015064718937528
12.400999999998566,0.07085013706356076,6.780614785442188e-05
12.600999999998455,0.07117919268540888,0.000865129698582789
12.800999999998345,0.07152554978579355,0.0018864518934341543
13.000999999998234,0.07201528370033741,0.002897581646707359
13.200999999998123,0.07234085520519563,0.004147195637711994
13.400999999998012,0.07278439589015921,0.005388235738577571
13.600999999997901,0.07341833846479726,0.006708276129484891
13.80099999999779,0.07400874519921434,0.008141796632144758
14.00099999999768,0.07445400719937961,0.009679541849925736
14.200999999997569,0.07491839032491232,0.01127891809550622
14.400999999997458,0.07528518964174995,0.013015450909371238
14.600999999997347,0.07572112015548983,0.014722685687739661
14.800999999997236,0.07609666384024999,0.016560804153979092
15.000999999997125,0.0763859072031773,0.018413657324622006
15.200999999997014,0.07670348817766946,0.020312214880396827
15.400999999996904,0.07704887256029135,0.0222690647180057
15.600999999996793,0.07741681007202904,0.024280325717324684
15.800999999996682,0.07779614187593638,0.026302831805637493
16.000999999996573,0.07817780420034408,0.028308968570158202
16.200999999996817,0.07856169605379126,0.03028623116140303
16.40099999999706,0.07894910046293326,0.03223641604596077
16.600999999997306,0.07933843210964,0.03418715725369454
16.80099999999755,0.07972794249858135,0.03613180087566491
17.000999999997795,0.08011941775370354,0.038068739441150544
17.20099999999804,0.08051457791186893,0.039974058345935176
17.400999999998284,0.08091307499438395,0.04182559430582881
17.60099999999853,0.08131903472878026,0.0436245937831751
17.800999999998773,0.0817330749021711,0.04537570084165883
18.000999999999017,0.08221184096311983,0.04701968711018174
18.20099999999926,0.08289523657331573,0.04869292817796454
18.400999999999506,0.08359719341115585,0.050324125363280584
18.60099999999975,0.0843025956833984,0.05184648959640749
18.799999999999994,0.08496704043139108,0.053324046080944196
19.000000000000238,0.0857319994655795,0.054794984352529226
19.200000000000482,0.08665703078452278,0.0562306281085713
19.400000000000727,0.08751328483870477,0.05759873436851405
19.60000000000097,0.08830252584967557,0.05890090782642374
19.800000000001216,0.08907309078377364,0.06007485953470191
20.00000000000146,0.08972282021476267,0.0611969477721847
