Time (s),X (m),Y (m)
0.001,0.001152392079647418,-0.000729363142846258
0.20000000000000015,0.0006655752075201773,0.00021846954731331758
0.4000000000000003,0.001296675500367938,-0.00026190612413722774
0.6000000000000004,0.0018895115469452115,-0.000567683837023649
0.8000000000000006,0.0024302713413109703,-0.000734479344146147
1.0000000000000007,0.0032821682255572255,-0.0013554245922381707
1.2009999999999785,0.004061092771785323,-0.00185147008320195
1.4009999999999565,0.004830172174108997,-0.002348638695775712
1.6009999999999345,0.005574925999852281,-0.002816774510527653
1.8009999999999124,0.006357915232028122,-0.0033245974330160678
2.0009999999998906,0.007225013683247163,-0.003933109368521801
2.2009999999998686,0.008145814324337426,-0.004606350092554327
2.4009999999998466,0.009081471059140136,-0.00529876355376736
2.6009999999998246,0.010019836043120059,-0.005995324238131573
2.8009999999998025,0.010966781578740727,-0.0067023583829092254
3.0009999999997805,0.011928511861396731,-0.007426329698376169
3.2009999999997585,0.012908436566083006,-0.008171621532734194
3.4009999999997365,0.013906702086930213,-0.008936876529242589
3.6009999999997144,0.014920689456886571,-0.009716164806515475
3.8009999999996924,0.015947756674535667,-0.01050533410743381
4.000999999999671,0.016986937954791555,-0.011303574651485957
4.200999999999738,0.01803846451860466,-0.012110633022196901
4.400999999999804,0.019103533498326167,-0.01292714246188384
4.600999999999871,0.020182889203378965,-0.01375329107142097
4.800999999999938,0.021276314754042843,-0.01458866212519379
5.000000000000004,0.02236424301212638,-0.015411754150352397
5.200000000000071,0.023485052247129292,-0.01626389148038991
5.400000000000138,0.02461974068338694,-0.017123738825392355
5.600000000000205,0.025768644256612273,-0.017991159730715543
5.800000000000272,0.02693184757453988,-0.01886589430788417
6.000000000000338,0.02810935314450803,-0.01974747015603665
6.200000000000405,0.029301065265033337,-0.020635545315759715
6.400000000000472,0.03050694562314613,-0.021529959360080217
6.600000000000539,0.031727416423861086,-0.022430366072257027
6.800000000000606,0.032962635309291145,-0.023336253596899788
7.000000000000672,0.03421248717256245,-0.02424720140067626
7.200000000000739,0.03547705322458253,-0.025163259261674474
7.400000000000806,0.03675622373370304,-0.026084353748680327
7.600000000000873,0.03804996094656983,-0.027010089408236834
7.8000000000009395,0.03935861173053829,-0.027940281731741536
8.000000000001005,0.04068224889564085,-0.028874817241084354
8.200000000000895,0.04202072721238943,-0.02981339770762552
8.400000000000784,0.04337390731504928,-0.030755683566002282
8.600000000000673,0.04474174753971586,-0.0317013359214362
8.800000000000562,0.046124219129135405,-0.03264996444488921
9.000000000000451,0.047521246764656744,-0.03360122766271545
9.20000000000034,0.048932665730607186,-0.03455502522134599
9.40000000000023,0.050358528710423366,-0.03551117047016272
9.600000000000119,0.051798838439220306,-0.03646944085477676
9.800000000000008,0.0532534119670796,-0.037429536081436114
10.000999999999896,0.054743282742795815,-0.0384081942337923
10.200999999999786,0.05622595683430849,-0.039370926834946335
10.400999999999675,0.05772256584307219,-0.04033454719386647
10.600999999999564,0.05923299461246275,-0.041298768533053795
10.800999999999453,0.060757036195875115,-0.042263319492853904
11.000999999999342,0.062294514020077164,-0.043227998145723735
11.200999999999231,0.06384542848865353,-0.04419252384779709
11.40099999999912,0.06541004544111932,-0.045156423068951276
11.60099999999901,0.06698864088185194,-0.04611944704870771
11.800999999998899,0.06857577126393272,-0.047123263074579966
12.000999999998788,0.070230930645873,-0.04811495466554866
12.200999999998677,0.07188366800984865,-0.049137588547423845
12.400999999998566,0.07355405299661825,-0.050160342376552716
12.600999999998455,0.07527484875626847,-0.051267891247140124
12.800999999998345,0.07701936030289505,-0.05234332706201947
13.000999999998234,0.07877645383828212,-0.05341993003179309
13.200999999998123,0.08056936301091532,-0.05452581716805107
13.400999999998012,0.08242361695483964,-0.055633794000214135
13.600999999997901,0.08429428481145253,-0.05675942401166438
13.80099999999779,0.0862046035566982,-0.05788108517050751
14.00099999999768,0.08812487619196169,-0.05898288109232197
14.200999999997569,0.0900664658684827,-0.06007308642500168
14.400999999997458,0.09198788846865229,-0.06114372181122203
14.600999999997347,0.09397884587770801,-0.062214619066591204
14.800999999997236,0.09595477421048666,-0.06326181106525303
15.000999999997125,0.09793807277645561,-0.06428850118949754
15.200999999997014,0.09995440533724716,-0.06530282263266447
15.400999999996904,0.10197674778215658,-0.0662922785394017
15.600999999996793,0.10400505358694762,-0.0672677359076582
15.800999999996682,0.10602029512182648,-0.06822555870810733
16.000999999996573,0.1081540091672362,-0.06919252448642475
16.200999999996817,0.1101468626473083,-0.07008232588501402
16.40099999999706,0.11218818697079663,-0.07096403243751008
16.600999999997306,0.11428546667798255,-0.07183134540378003
16.80099999999755,0.11637553377854432,-0.07268449568615283
17.000999999997795,0.11842264315528446,-0.07349216520337896
17.20099999999804,0.12056076570717633,-0.07429020894522423
17.400999999998284,0.122681100095154,-0.07506668843655384
17.60099999999853,0.12482185374354766,-0.07582309637657556
17.800999999998773,0.12692835026029764,-0.07651933815908646
18.000999999999017,0.1291024721517752,-0.07719439742637127
18.20099999999926,0.13127935489271805,-0.07782394810183718
18.400999999999506,0.13342580346578145,-0.07838000511607471
18.60099999999975,0.13561977209587292,-0.07890578515568224
18.799999999999994,0.13780742339037094,-0.07937299894457782
19.000000000000238,0.1399906410430372,-0.07979700437126798
19.200000000000482,0.14217277406301362,-0.08017172866153183
19.400000000000727,0.14439330899757025,-0.08050154113447612
19.60000000000097,0.14663133462237699,-0.08078025036539561
19.800000000001216,0.14878482817317817,-0.0810054677278971
20.00000000000146,0.15105977945501414,-0.08119397357313902
