Time (s),X (m),Y (m)
0.001,-0.0006084463117070853,3.3283562657668553e-19
0.20000000000000015,0.0007493706926538926,-7.737796976397335e-05
0.4000000000000003,0.001360501281572409,-9.520587981462303e-05
0.6000000000000004,0.0022935243428964776,-7.169891141913869e-05
0.8000000000000006,0.0037653002223986026,0.00020924743315334584
1.0000000000000007,0.00577168284080337,0.0007071496417196784
1.2009999999999785,0.007159115784467605,0.0012934796450502076
1.4009999999999565,0.009312220066061099,0.0018767081191342623
1.6009999999999345,0.011465754288113585,0.002582960860941937
1.8009999999999124,0.013825199735587303,0.003430932996428824
2.0009999999998906,0.01619945298813001,0.004473625036574492
2.2009999999998686,0.018889561744023353,0.005570627986532834
2.4009999999998466,0.021824138527755506,0.0068171176184372104
2.6009999999998246,0.02461210776233219,0.008163926199883298
2.8009999999998025,0.027437694125409903,0.009586235358656445
3.0009999999997805,0.030017452402805473,0.010959634706626026
3.2009999999997585,0.03291427972901075,0.012547496583491307
3.4009999999997365,0.03586583820070494,0.014132660874475556
3.6009999999997144,0.0391324263466286,0.01590413920813667
3.8009999999996924,0.04234023527165993,0.01769205510581203
4.000999999999671,0.045852769856116485,0.019702878780766063
4.200999999999738,0.0494609975269982,0.0217854767194589
4.400999999999804,0.053009123838732596,0.024124396232423774
4.600999999999871,0.056334149758388304,0.026439713656136773
4.800999999999938,0.06013239110511292,0.02890233649126752
5.000000000000004,0.06397557089276959,0.031560683186856744
5.200000000000071,0.06735723030320653,0.03417017279574299
5.400000000000138,0.07145507689976577,0.03711657285454644
5.600000000000205,0.07524466850994913,0.039802062936336445
5.800000000000272,0.0795038208200322,0.04291728497742323
6.000000000000338,0.08327133164177832,0.04618490931574592
6.200000000000405,0.08724073475476242,0.04945223563479114
6.400000000000472,0.09116002174758825,0.052383055462400206
6.600000000000539,0.09537978251817467,0.055588661830108126
6.800000000000606,0.0999966796874579,0.059081340719335046
7.000000000000672,0.10427891587906338,0.06272595146637999
7.200000000000739,0.1082398383384518,0.06614849435547444
7.400000000000806,0.11204932626630981,0.06943006994648253
7.600000000000873,0.11669637882121157,0.07323571703310552
7.8000000000009395,0.1215968911395233,0.07720489348283426
8.000000000001005,0.12647151564367326,0.08124352536919967
8.200000000000895,0.1315296914031745,0.08548375709455851
8.400000000000784,0.13661795836337656,0.08979544818729644
8.600000000000673,0.14114482827262934,0.09385637998271325
8.800000000000562,0.1457308129757002,0.09801160500534119
9.000000000000451,0.1500334002631936,0.10209271246318821
9.20000000000034,0.15430649632417806,0.10619152951667836
9.40000000000023,0.15866134530991255,0.11040616086626842
9.600000000000119,0.1630405392712417,0.11470307883008012
9.800000000000008,0.16741561478814584,0.11903292571831244
10.000999999999896,0.17190879160390254,0.12352645537661162
10.200999999999786,0.17638435955132958,0.12805907162587643
10.400999999999675,0.1808527396223566,0.1326327586815052
10.600999999999564,0.18537424425184784,0.13733059919912438
10.800999999999453,0.19022431269951956,0.14216108235667008
11.000999999999342,0.1939496127461695,0.14697426570781189
11.200999999999231,0.19798213088255864,0.1515823839229988
11.40099999999912,0.20192089390839163,0.15594207812237654
11.60099999999901,0.2064126162972959,0.16084291507280216
11.800999999998899,0.2104463497230877,0.16619583461746135
12.000999999998788,0.21450711724654178,0.1717379907635061
12.200999999998677,0.21844785914383186,0.17638332702943046
12.400999999998566,0.22255670704022223,0.18146607975959006
12.600999999998455,0.22685346204230156,0.18672506259327298
12.800999999998345,0.22995750433544093,0.19075201682386342
13.000999999998234,0.23312392127372458,0.19491096518922527
13.200999999998123,0.2364128811108638,0.19944911870806828
13.400999999998012,0.23990137343698176,0.2042506274611625
13.600999999997901,0.24407228213010404,0.21005497034255322
13.80099999999779,0.24710660540029297,0.21416246343692122
14.00099999999768,0.24981244895701082,0.21820695010557736
14.200999999997569,0.252465539406124,0.22248820525509666
14.400999999997458,0.25614502911468484,0.22820769055923906
14.600999999997347,0.25967030104611327,0.23409625305161114
14.800999999997236,0.2624992571367639,0.23824645008842357
15.000999999997125,0.2651129021609952,0.24310447459079296
15.200999999997014,0.26818315974057383,0.24845903151215804
15.400999999996904,0.2714561804462558,0.2545627180825882
15.600999999996793,0.2743071332193148,0.2598007889477104
15.800999999996682,0.2768531817024968,0.26431890768486216
16.000999999996573,0.2790032556641843,0.2691018214062396
16.200999999996817,0.281907614963357,0.2754873938143866
16.40099999999706,0.2847179504203194,0.2816115856017843
16.600999999997306,0.2867196354838281,0.28633816115209293
16.80099999999755,0.28847656216576884,0.29139016040154614
17.000999999997795,0.29082635854526273,0.2975295290180317
17.20099999999804,0.29292053967146003,0.30481846036951116
17.400999999998284,0.29469763218606043,0.3099808519271257
17.60099999999853,0.29591663873984836,0.31485056822178203
17.800999999998773,0.29705110269099183,0.320363471744637
18.000999999999017,0.2981172992848548,0.32637518656317205
18.20099999999926,0.299241813440823,0.33258473151167284
18.400999999999506,0.30004556653011516,0.3393154293483413
18.60099999999975,0.30054926496434015,0.34436490664689134
18.799999999999994,0.3009753109809866,0.35123667606239906
19.000000000000238,0.30122744046286815,0.35656844352732403
19.200000000000482,0.30089655471905047,0.3615930303069968
19.400000000000727,0.3002065484860728,0.36662141867306347
19.60000000000097,0.2994554078962259,0.3713968353519615
19.800000000001216,0.29807389773450627,0.37742583958234305
20.00000000000146,0.2964157896447702,0.3834220219390753
