Time (s),X (m),Y (m)
0.001,0.0006021427340131596,0.0010158048217711127
0.20000000000000015,0.0008042605787205801,-0.00017352494671836233
0.4000000000000003,0.0012999325663513265,1.5724884558153857e-05
0.6000000000000004,0.002092582295975678,0.00012669137924955516
0.8000000000000006,0.0031387807999716183,0.0001889874274861995
1.0000000000000007,0.0043848075765091695,-2.915287630911082e-05
1.2009999999999785,0.005684700750457815,-1.8529065811849075e-05
1.4009999999999565,0.007589917518908619,0.00032397572527192666
1.6009999999999345,0.009528624242490864,0.001248161254579253
1.8009999999999124,0.012075077898326037,0.001409153208640029
2.0009999999998906,0.014234623310193022,0.001752982505110063
2.2009999999998686,0.016772455304154235,0.0025912992354828897
2.4009999999998466,0.01935947020449064,0.003313696175012319
2.6009999999998246,0.02174651304326746,0.0038222079649161264
2.8009999999998025,0.023697156946928,0.004361837522138158
3.0009999999997805,0.02577388678274799,0.0044777953000737225
3.2009999999997585,0.027968932656481874,0.004935266791197163
3.4009999999997365,0.03036015482834462,0.005179539414474906
3.6009999999997144,0.03262263580911916,0.00500358480243249
3.8009999999996924,0.03364216813201307,0.0056927190706880515
4.000999999999671,0.03561068193066698,0.006374434775646615
4.200999999999738,0.03690467669429858,0.007241334723421583
4.400999999999804,0.03858494051266865,0.008001348247027104
4.600999999999871,0.040001112228409255,0.00970430695334474
4.800999999999938,0.04214705489974445,0.010775124286225018
5.000000000000004,0.042437191449483595,0.012227183020937457
5.200000000000071,0.04351687283862698,0.013989279690231967
5.400000000000138,0.04441411538079555,0.01579565015426723
5.600000000000205,0.0451621792555095,0.018801162438634295
5.800000000000272,0.0449453739403687,0.02137954797682497
6.000000000000338,0.045601705777922795,0.023750784064252774
6.200000000000405,0.04573688465598608,0.02587958988951849
6.400000000000472,0.04588672127337355,0.028485214580831447
6.600000000000539,0.04590176326347472,0.031079117091882387
6.800000000000606,0.04745251409468047,0.03307921956089137
7.000000000000672,0.04733995873773263,0.035144685626394855
7.200000000000739,0.047619720479661246,0.03790558541508259
7.400000000000806,0.04904347148375609,0.04054266742584296
7.600000000000873,0.049796362597300595,0.043541360992777084
7.8000000000009395,0.04924748743961265,0.04684457099499823
8.000000000001005,0.04917119413696222,0.05054630023336502
8.200000000000895,0.04945734665080919,0.05447972032354811
8.400000000000784,0.0494499989001313,0.05822004584421687
8.600000000000673,0.05028587186407551,0.06213018099630647
8.800000000000562,0.05025757030412969,0.06586807403853291
9.000000000000451,0.049999983944353794,0.06960952280330834
9.20000000000034,0.048859741139580894,0.07309605142223313
9.40000000000023,0.04832000104862621,0.07708440476157058
9.600000000000119,0.047496616814645995,0.07968449030925233
9.800000000000008,0.04673432759882627,0.08135709334284809
10.000999999999896,0.046655325817365714,0.08325354802541819
10.200999999999786,0.04568466398410054,0.08582411038281462
10.400999999999675,0.044956387748482846,0.08730212159285626
10.600999999999564,0.04354237420281382,0.08858275828856389
10.800999999999453,0.04271634819448902,0.09108943535939305
11.000999999999342,0.04048496889630947,0.09304575721503204
11.200999999999231,0.036960276567472916,0.09340644361319335
11.40099999999912,0.0344128857260695,0.09401729727753755
11.60099999999901,0.03225023015972218,0.09638030817065683
11.800999999998899,0.029095869822118172,0.09692240712353435
12.000999999998788,0.02642243615618399,0.0984981440799843
12.200999999998677,0.022982112514269896,0.09913552938673316
12.400999999998566,0.020182484967035473,0.09999150378296792
12.600999999998455,0.017764360809033142,0.10012588413060555
12.800999999998345,0.015826121112706378,0.10150184007917862
13.000999999998234,0.012311187750853997,0.10174197453528251
13.200999999998123,0.008506124454750729,0.10129049678637948
13.400999999998012,0.005186178534400094,0.10198086166788455
13.600999999997901,0.0019757733665025463,0.10252746499282593
13.80099999999779,-0.0015488101151107862,0.10281272648611733
14.00099999999768,-0.005335093209151122,0.10331984279404398
14.200999999997569,-0.00923792383395412,0.10321444017468301
14.400999999997458,-0.013318711307153206,0.1035488517187673
14.600999999997347,-0.01739191775188313,0.10414508952378725
14.800999999997236,-0.020716745553722878,0.10267291932963339
15.000999999997125,-0.0241108495715448,0.10256256838449379
15.200999999997014,-0.02690456634019655,0.10175052191174629
15.400999999996904,-0.02923876385068708,0.10145302055929534
15.600999999996793,-0.031787230710634495,0.10003544541653711
15.800999999996682,-0.03456269569437048,0.09821128514958795
16.000999999996573,-0.036037140253379445,0.09647745998087269
16.200999999996817,-0.03741232165733037,0.09554710961164191
16.40099999999706,-0.03868014482908817,0.092838022739195
16.600999999997306,-0.0398743546305316,0.09118094594331004
16.80099999999755,-0.04121383913914249,0.08866565272150614
17.000999999997795,-0.04307280384774373,0.08598126141573258
17.20099999999804,-0.04309491900379126,0.0819564425182466
17.400999999998284,-0.044479183367482224,0.08026423748581976
17.60099999999853,-0.04505073297817503,0.07830454031403801
17.800999999998773,-0.04543400342631117,0.07530619684341526
18.000999999999017,-0.046145273644579335,0.07285499726681247
18.20099999999926,-0.04705646993493713,0.07117706495737698
18.400999999999506,-0.04783988695465816,0.06864711331737558
18.60099999999975,-0.04792658597737644,0.06577158810062916
18.799999999999994,-0.04846822666290747,0.06341602584990048
19.000000000000238,-0.048909312309773065,0.0608078965828522
19.200000000000482,-0.049976327135190686,0.05749083018199695
19.400000000000727,-0.05052616737496409,0.05395313849727668
19.60000000000097,-0.050558851284630925,0.05009144322982001
19.800000000001216,-0.05072203190980858,0.04576867997781139
20.00000000000146,-0.05075046597810792,0.04152586556090993
