Time (s),X (m),Y (m)
0.001,-0.0004702548317818469,-0.0005157376242541218
0.20000000000000015,0.0011907660955489056,0.00021718047555127176
0.4000000000000003,0.002876212173082108,0.000244496183782912
0.6000000000000004,0.0015693532163351493,-0.0018124993337191955
0.8000000000000006,0.0026224222718443,-0.0006773835503946766
1.0000000000000007,0.009982545384175163,0.0006500089151439948
1.2009999999999785,0.016038360743754056,0.003968343607374714
1.4009999999999565,0.02247915761332617,0.011528358527029273
1.6009999999999345,0.030901401109214247,0.02371934023917991
1.8009999999999124,0.038253301558964135,0.03296846168090475
2.0009999999998906,0.04448145281495109,0.03849742034259206
2.2009999999998686,0.051224865465246586,0.04651295092748434
2.4009999999998466,0.05753769407871931,0.05649699186939201
2.6009999999998246,0.06294021894748689,0.06847560127824347
2.8009999999998025,0.07214509092427925,0.08409650270855129
3.0009999999997805,0.08224390445551377,0.10063549272613727
3.2009999999997585,0.09204862053695817,0.11434242596395103
3.4009999999997365,0.1012479524761982,0.11753098031763473
3.6009999999997144,0.10920822881859016,0.11899493169543084
3.8009999999996924,0.11492021469380437,0.13348290145876054
4.000999999999671,0.12449384225242031,0.14164555389593478
4.200999999999738,0.12708244817893624,0.16038935754112743
4.400999999999804,0.13183131339543108,0.17354740679486283
4.600999999999871,0.1320780533271129,0.18720930122028429
4.800999999999938,0.13374215796670313,0.18809726122070886
5.000000000000004,0.13661547415436295,0.19754562153622032
5.200000000000071,0.14150383917670922,0.20155393626717874
5.400000000000138,0.1412104906252188,0.21389474610109738
5.600000000000205,0.13814587593566416,0.2280629300169078
5.800000000000272,0.13521857558567912,0.2471816346017268
6.000000000000338,0.13444071711308922,0.26158563222301134
6.200000000000405,0.13537457066671293,0.2782158390584794
6.400000000000472,0.13604374474897477,0.29911542971930916
6.600000000000539,0.13711118616145312,0.31381346820310246
6.800000000000606,0.13840863405747672,0.3258289545866128
7.000000000000672,0.13861281285174049,0.34614352829098005
7.200000000000739,0.1373144314551333,0.3627546690226491
7.400000000000806,0.1364011330160383,0.38043331838205335
7.600000000000873,0.13546695511277937,0.4008054164424314
7.8000000000009395,0.1354213926308474,0.4304304394717311
8.000000000001005,0.13466244329718022,0.4572252640703644
8.200000000000895,0.13620005553533976,0.48000249174918463
8.400000000000784,0.14025006025931916,0.49623962557394985
8.600000000000673,0.1448966154953158,0.5059294978979082
8.800000000000562,0.1493692721957393,0.5228335428712426
9.000000000000451,0.15798148134670917,0.5433714602948487
9.20000000000034,0.1613501798656411,0.5638892974376173
9.40000000000023,0.16318736581450718,0.5794843451708053
9.600000000000119,0.16365425676567186,0.5979502972757459
9.800000000000008,0.16256576196542005,0.6112176311614883
10.000999999999896,0.16071251862947963,0.6279317103842877
10.200999999999786,0.16002198020456612,0.6463632679296208
10.400999999999675,0.15487149184062074,0.6681152061001692
10.600999999999564,0.15227427292756326,0.6836284279270337
10.800999999999453,0.14988916798659965,0.7004273940911032
11.000999999999342,0.15013427044275734,0.7211098476876618
11.200999999999231,0.15110425976936237,0.7408683541321749
11.40099999999912,0.1508118117897044,0.7537355883314363
11.60099999999901,0.1500139262651441,0.7663287429755463
11.800999999998899,0.14852260545312224,0.79190065913654
12.000999999998788,0.1473261697984706,0.8209452608539151
12.200999999998677,0.1466131200996721,0.8534026265860489
12.400999999998566,0.14745718395137164,0.8792391335049157
12.600999999998455,0.1466916091829255,0.9030193202583044
12.800999999998345,0.14901474082944116,0.9246287732687059
13.000999999998234,0.14690543305971676,0.9414961364195535
13.200999999998123,0.14046890947877932,0.9580435468537049
13.400999999998012,0.13478925248393597,0.9736913057441107
13.600999999997901,0.12488318569976362,0.9979393382922933
13.80099999999779,0.11680568646481723,1.0261309299169827
14.00099999999768,0.11267760298448028,1.048555957156704
14.200999999997569,0.10640623632300017,1.0745733579253365
14.400999999997458,0.10048523254660145,1.0994186895418618
14.600999999997347,0.09476088950346731,1.1201132214660159
14.800999999997236,0.08884604871624702,1.14116607605159
15.000999999997125,0.08068520625731838,1.167524137963102
15.200999999997014,0.07156260303115101,1.1957236230182036
15.400999999996904,0.06743067895779924,1.2106249469666277
15.600999999996793,0.06950594267931877,1.2233234475233494
15.800999999996682,0.07069045598510122,1.244560977284322
16.000999999996573,0.0737360407547659,1.2636137400257508
16.200999999996817,0.07894474566223099,1.2796055093053995
16.40099999999706,0.08058362975489403,1.3002846650601214
16.600999999997306,0.08250079485616618,1.3181664052766926
16.80099999999755,0.08561002064993246,1.344597663812467
17.000999999997795,0.09216305224127153,1.3663168386300202
17.20099999999804,0.09154917402598786,1.3939122161790447
17.400999999998284,0.09103503193749853,1.4156143213048205
17.60099999999853,0.08573377846158449,1.4394041697244297
17.800999999998773,0.0780122207293522,1.460122909345277
18.000999999999017,0.06894398327149186,1.4791048279073866
18.20099999999926,0.060903404151950544,1.4932836294694225
18.400999999999506,0.05611071523112373,1.512157333400294
18.60099999999975,0.049852151332122244,1.5405629324626455
18.799999999999994,0.04051775426989189,1.562970452220256
19.000000000000238,0.0327549114856997,1.589159402948424
19.200000000000482,0.02548507720228872,1.6091077735087123
19.400000000000727,0.016987514195709853,1.6297654239803971
19.60000000000097,0.007094602588985923,1.659206536964724
19.800000000001216,-0.0056057290765378995,1.688387560429543
20.00000000000146,-0.01528176749794317,1.7142195092826504
