Time (s),X (m),Y (m)
0.001,0.0014505791105779379,-8.989899140956135e-05
0.20000000000000015,0.0006259521465771503,-7.617512620108687e-05
0.4000000000000003,0.0022990493701184737,-0.0003078253888701507
0.6000000000000004,0.003360313884236455,-0.0004740873750042995
0.8000000000000006,0.01185136085947868,1.5778332370005429e-06
1.0000000000000007,0.022262900511966728,-0.0038045587737568607
1.2009999999999785,0.029700396232889923,-0.002519256101404961
1.4009999999999565,0.030620215728324667,0.0006035357205833288
1.6009999999999345,0.035093290834902584,0.0016840982515279048
1.8009999999999124,0.03988811992880718,0.0012978802662577931
2.0009999999998906,0.04828838672800377,-0.0046178533689045335
2.2009999999998686,0.05663989594175281,-0.0048583469339754486
2.4009999999998466,0.06324710431014015,-0.0065564070059276405
2.6009999999998246,0.08041858782379341,-0.01321860012318465
2.8009999999998025,0.0909805084810259,-0.015610548551109403
3.0009999999997805,0.0997411347110039,-0.019251779453113925
3.2009999999997585,0.11207611068058482,-0.020535748150523846
3.4009999999997365,0.12235167243653404,-0.021798486037826765
3.6009999999997144,0.12307927563404532,-0.018880726603648684
3.8009999999996924,0.1332368400368443,-0.02094201161262009
4.000999999999671,0.14896250769355301,-0.029741059635283743
4.200999999999738,0.1647775858206068,-0.03859031838904842
4.400999999999804,0.17407613924682971,-0.04436799210195776
4.600999999999871,0.1878138655661578,-0.05169110709834251
4.800999999999938,0.20203582319725552,-0.05658341655264343
5.000000000000004,0.21393319777532363,-0.06213923191244669
5.200000000000071,0.23269287474264316,-0.06453198438804791
5.400000000000138,0.2531302875238683,-0.06967424780687387
5.600000000000205,0.27121676286290497,-0.0769348144488009
5.800000000000272,0.29697711001244015,-0.09220517264871582
6.000000000000338,0.31805776650047235,-0.10296499006061902
6.200000000000405,0.3370027959935241,-0.11267579556269831
6.400000000000472,0.350224253246741,-0.12170725858502979
6.600000000000539,0.3715337267352507,-0.13498048590294565
6.800000000000606,0.39808836610199144,-0.14889438644137867
7.000000000000672,0.42272366273336576,-0.16013012876026095
7.200000000000739,0.44612451329055913,-0.16906129408960524
7.400000000000806,0.4668516465304461,-0.17742742140042636
7.600000000000873,0.4835318308624113,-0.18014212514468037
7.8000000000009395,0.5006833806465537,-0.1839742858418249
8.000000000001005,0.5218796542027228,-0.19424411992564192
8.200000000000895,0.5480109983840131,-0.20906509762647962
8.400000000000784,0.5630667743377171,-0.21757992674977078
8.600000000000673,0.5887140920907378,-0.2294680433734467
8.800000000000562,0.6083040286580527,-0.24042966513626501
9.000000000000451,0.6277842771518979,-0.24709992749275717
9.20000000000034,0.6539751748882955,-0.25567812560041175
9.40000000000023,0.6722263464648154,-0.26032883093834197
9.600000000000119,0.6920206422057515,-0.2634803514277233
9.800000000000008,0.7219983690454437,-0.27604604679644495
10.000999999999896,0.747490745823157,-0.29296048727816404
10.200999999999786,0.7686568717518405,-0.2999860036513545
10.400999999999675,0.7946525598041715,-0.3109897744836714
10.600999999999564,0.8230621042739407,-0.3256957534837748
10.800999999999453,0.8431358958627087,-0.33522467305587783
11.000999999999342,0.864704926715432,-0.3474687359617441
11.200999999999231,0.8936577993294407,-0.36282267331737267
11.40099999999912,0.9262686717679304,-0.378809638540957
11.60099999999901,0.9546689772595485,-0.3971540106197495
11.800999999998899,0.979901626295025,-0.41086645804923394
12.000999999998788,1.0077895072760261,-0.4241105042813665
12.200999999998677,1.0333705062139666,-0.4372162713519091
12.400999999998566,1.059408867726498,-0.45695252496775235
12.600999999998455,1.090515280525715,-0.47984987872079937
12.800999999998345,1.118437688613094,-0.49600509842471296
13.000999999998234,1.1465688106610454,-0.5157276956029119
13.200999999998123,1.1719098234270906,-0.5287353859705092
13.400999999998012,1.195825745217163,-0.5456802903248935
13.600999999997901,1.2276951315980256,-0.5642315107631968
13.80099999999779,1.2531831012814099,-0.5733658038897883
14.00099999999768,1.286859312839835,-0.5894697509450089
14.200999999997569,1.3161354683181987,-0.6068661503043689
14.400999999997458,1.339299447320633,-0.6210008819704099
14.600999999997347,1.3678831930510242,-0.6427460793948472
14.800999999997236,1.3936637146931845,-0.66522197032118
15.000999999997125,1.4160284867085662,-0.6862016660113928
15.200999999997014,1.4332704191019003,-0.7049270967335614
15.400999999996904,1.4463795908587653,-0.7260237276107232
15.600999999996793,1.4584311234707001,-0.7549600800200239
15.800999999996682,1.4654519444242824,-0.7706302749870436
16.000999999996573,1.4718765627443045,-0.7895239548166592
16.200999999996817,1.4822235120226432,-0.8020308478470101
16.40099999999706,1.4903604876309007,-0.8259290671720261
16.600999999997306,1.492667078358688,-0.8536266272669297
16.80099999999755,1.4889621936563373,-0.8784110860124829
17.000999999997795,1.4852669152413154,-0.9005318171733483
17.20099999999804,1.4825257609598632,-0.9236859138413486
17.400999999998284,1.477858622074981,-0.9463686430374159
17.60099999999853,1.4732606647845636,-0.970027207335842
17.800999999998773,1.4647566168983341,-0.9940127304249914
18.000999999999017,1.4552661083005176,-1.0180818247471433
18.20099999999926,1.4440200952194744,-1.0440709058314719
18.400999999999506,1.4360398777038736,-1.0655846574260879
18.60099999999975,1.4292255903693556,-1.0874532982523282
18.799999999999994,1.4144698070924349,-1.1099728478902016
19.000000000000238,1.3971702926434741,-1.1365426862331303
19.200000000000482,1.3777415458445352,-1.1689103775977754
19.400000000000727,1.3603368932280921,-1.2012125423885047
19.60000000000097,1.347151241712556,-1.2273119009925046
19.800000000001216,1.336098187254888,-1.2532302644829272
20.00000000000146,1.3248364048063765,-1.2778454819653933
