Time (s),X (m),Y (m)
0.001,0.0014388337585722719,-0.0001791137972120003
0.20000000000000015,0.0007092584714469422,-6.25347016794264e-05
0.4000000000000003,0.002580351045644242,-0.0005059910311836598
0.6000000000000004,0.009193160992630092,-0.002577129340458877
0.8000000000000006,0.0151038509386702,-0.004270907955049601
1.0000000000000007,0.021825948098632232,-0.006302390087225107
1.2009999999999785,0.0339453054648491,-0.008565419160645949
1.4009999999999565,0.04388485817253917,-0.01298552460069554
1.6009999999999345,0.052070966252300246,-0.018137489607799887
1.8009999999999124,0.05896017090897994,-0.02450686292582941
2.0009999999998906,0.06694270869745006,-0.025839267866684112
2.2009999999998686,0.07327751556828335,-0.02672192593227556
2.4009999999998466,0.0740531178936727,-0.029791875213246763
2.6009999999998246,0.07363147693246727,-0.02808975125344362
2.8009999999998025,0.07629659797835606,-0.027085160705159206
3.0009999999997805,0.08528725391087685,-0.03384217772943014
3.2009999999997585,0.09740429298054802,-0.03893485012039621
3.4009999999997365,0.10889386867576953,-0.040754905446825654
3.6009999999997144,0.1171593126740278,-0.04395787379164791
3.8009999999996924,0.12195812791336787,-0.04372399428174634
4.000999999999671,0.12965138158699707,-0.04442014251635451
4.200999999999738,0.13893906327836975,-0.05017932826657591
4.400999999999804,0.14457178874636176,-0.0530687721395076
4.600999999999871,0.15804753129983878,-0.06066415927500474
4.800999999999938,0.17505318636505976,-0.07110295159924182
5.000000000000004,0.18113206929735406,-0.0753206815893201
5.200000000000071,0.18877779935481762,-0.08048859240597067
5.400000000000138,0.2021131656032746,-0.0838390140036138
5.600000000000205,0.21833507332387675,-0.09017779528333282
5.800000000000272,0.23294772179288453,-0.09649623443039577
6.000000000000338,0.2530293553782646,-0.11063325223134761
6.200000000000405,0.2714136069944539,-0.1250320815646661
6.400000000000472,0.28778005113876726,-0.13538374168243109
6.600000000000539,0.30104982501234456,-0.14644335791367943
6.800000000000606,0.3130136785315494,-0.1573744387972924
7.000000000000672,0.3290877617523255,-0.16296105309813133
7.200000000000739,0.3460839627241179,-0.17398355219082856
7.400000000000806,0.366368007212753,-0.18749497336704632
7.600000000000873,0.38648784096422983,-0.20332241124705172
7.8000000000009395,0.4059121733361132,-0.21903170086239562
8.000000000001005,0.4261472967511742,-0.23466838965957346
8.200000000000895,0.44567481674083637,-0.25088784670559533
8.400000000000784,0.4636501506700606,-0.2699996304795045
8.600000000000673,0.4811093289681928,-0.2846086453267421
8.800000000000562,0.4964050678487203,-0.30215752200645957
9.000000000000451,0.5112430805013404,-0.3161243234092293
9.20000000000034,0.5191118816401764,-0.3274593998140409
9.40000000000023,0.5227883564371825,-0.3387917170052443
9.600000000000119,0.5287009227012277,-0.3559415644920777
9.800000000000008,0.5316023552299134,-0.37370552629077036
10.000999999999896,0.5275110226623593,-0.3973196508910669
10.200999999999786,0.5250333497833557,-0.41305266062662827
10.400999999999675,0.52358171713469,-0.43258091478441857
10.600999999999564,0.5172362587005189,-0.45427158138216983
10.800999999999453,0.5082461424894064,-0.47905044255194723
11.000999999999342,0.49625750413638225,-0.49959330574587857
11.200999999999231,0.48468904876889285,-0.5177145897348387
11.40099999999912,0.4740853194587175,-0.5362996086870736
11.60099999999901,0.465582512962934,-0.5564340104037235
11.800999999998899,0.46028043745357466,-0.5727020906019545
12.000999999998788,0.45033726854417644,-0.5916187148790216
12.200999999998677,0.4408748949708587,-0.6113693678414444
12.400999999998566,0.4313115479998157,-0.6297937658990026
12.600999999998455,0.41803438532409654,-0.6529665669304529
12.800999999998345,0.4076930910955,-0.6747122588194857
13.000999999998234,0.4027573973923927,-0.690156015485505
13.200999999998123,0.39285638824798885,-0.7078779054202811
13.400999999998012,0.38112119914184545,-0.7271381661178823
13.600999999997901,0.36973579983462085,-0.7463931142450292
13.80099999999779,0.3571150602495773,-0.7722412513671713
14.00099999999768,0.3428446983982429,-0.8003867480258151
14.200999999997569,0.32746761056878776,-0.8288290763644741
14.400999999997458,0.3167496837527846,-0.8494665843064517
14.600999999997347,0.30521929086750327,-0.8698167074787817
14.800999999997236,0.2980644765785315,-0.8929679277538335
15.000999999997125,0.2835436737605572,-0.915285462948827
15.200999999997014,0.2708818930224585,-0.9413871515370901
15.400999999996904,0.258267302024903,-0.9634881498802497
15.600999999996793,0.24438837669315713,-0.9907921687184351
15.800999999996682,0.2270680167148677,-1.0162042405952723
16.000999999996573,0.20849379307110505,-1.0353857546118228
16.200999999996817,0.1964808576417009,-1.0518847528527075
16.40099999999706,0.1818156476720563,-1.0713723318901525
16.600999999997306,0.15822351428885517,-1.0891174733818687
16.80099999999755,0.14068434954231654,-1.1034388459877693
17.000999999997795,0.1270289810108879,-1.1106520207498114
17.20099999999804,0.11194123370162072,-1.1117355990465407
17.400999999998284,0.09294643247307985,-1.1123876493865619
17.60099999999853,0.07355548790560502,-1.1143353003096064
17.800999999998773,0.05725209816200249,-1.112333730266368
18.000999999999017,0.04284892344418394,-1.109343267784762
18.20099999999926,0.01498984704860127,-1.1072645227178173
18.400999999999506,0.0008973955896501059,-1.1047010416306557
18.60099999999975,-0.012547620822131955,-1.1021648750013022
18.799999999999994,-0.032118381039501445,-1.0996557412992658
19.000000000000238,-0.05886014838959513,-1.0911486530537227
19.200000000000482,-0.08566970540196478,-1.0825061129005242
19.400000000000727,-0.11126216479070127,-1.0754602103632658
19.60000000000097,-0.12914176204723496,-1.069631200422712
19.800000000001216,-0.15622632745028556,-1.0588823547014197
20.00000000000146,-0.18241304748507015,-1.0472443383921806
