Time (s),X (m),Y (m)
0.001,-0.00023999057263828476,0.0007901558823345071
0.20000000000000015,0.0009352046379875915,-0.0003562241562497798
0.4000000000000003,0.004604900669940259,-0.002128483330228864
0.6000000000000004,0.0106789404435292,-0.004273730303108963
0.8000000000000006,0.014519308517515138,-0.004419465654235966
1.0000000000000007,0.01887634339906608,-0.008499278672731965
1.2009999999999785,0.027449971653604546,-0.01402374013000572
1.4009999999999565,0.033161558059238275,-0.018315806599559288
1.6009999999999345,0.03946558651873094,-0.02245297397346254
1.8009999999999124,0.04345573310116567,-0.017961114269471168
2.0009999999998906,0.047766760177709505,-0.015364676481624161
2.2009999999998686,0.055438982571613865,-0.018150431048430067
2.4009999999998466,0.060033015159151416,-0.01720449034284312
2.6009999999998246,0.06282703452211762,-0.010335805848772233
2.8009999999998025,0.07230548264965972,-0.008327048177305544
3.0009999999997805,0.08198775516652293,-0.0023183787088011227
3.2009999999997585,0.09182663343579771,0.0019318724057557834
3.4009999999997365,0.10719687749953917,0.0040450584096691925
3.6009999999997144,0.12135263098562005,0.006121854197322446
3.8009999999996924,0.13188788479944083,0.010740009396067205
4.000999999999671,0.13929305982389437,0.014745982744902202
4.200999999999738,0.14743249669438216,0.015254305708040941
4.400999999999804,0.1622312280087216,0.010996836924160898
4.600999999999871,0.17462590640534537,0.009706898750909906
4.800999999999938,0.18329899201169828,0.011429780928342403
5.000000000000004,0.1926620789729032,0.012254218164927581
5.200000000000071,0.19890083871068848,0.013836406807189852
5.400000000000138,0.20264007125428976,0.017941955238970454
5.600000000000205,0.21796353507633015,0.017506091379981138
5.800000000000272,0.23610034333981944,0.014571882992138468
6.000000000000338,0.2509464447973043,0.011179135903377666
6.200000000000405,0.26669329048457235,0.010846920087252968
6.400000000000472,0.2725701188903969,0.018394178050047377
6.600000000000539,0.2810098489981776,0.02450233789752944
6.800000000000606,0.2953855412725713,0.02849021655704048
7.000000000000672,0.3149700843800906,0.030436393098160305
7.200000000000739,0.33061547399406094,0.032395833864424066
7.400000000000806,0.3376009015670534,0.03555624559128312
7.600000000000873,0.35078170020330307,0.04005774652814165
7.8000000000009395,0.3654042376650292,0.0449021274608979
8.000000000001005,0.3715068681291711,0.051145795184799656
8.200000000000895,0.3838652879761718,0.058280239995603715
8.400000000000784,0.39465263696706276,0.0620099099575208
8.600000000000673,0.4044109067507116,0.064941987819819
8.800000000000562,0.4123761503707961,0.07031597562412253
9.000000000000451,0.4176558620934574,0.07739757928188579
9.20000000000034,0.4190928457618115,0.0905260865306421
9.40000000000023,0.4278273501816795,0.10369756525860205
9.600000000000119,0.4398423679513215,0.11126355518089234
9.800000000000008,0.4482419867194655,0.11549473945745917
10.000999999999896,0.46390143881208307,0.11793065223723546
10.200999999999786,0.47639214409863756,0.12329132247679458
10.400999999999675,0.48753584327812405,0.1275160623089858
10.600999999999564,0.5053698998882489,0.13000975471928675
10.800999999999453,0.5215597812064561,0.13011107901161914
11.000999999999342,0.5340131396603318,0.1351600280496789
11.200999999999231,0.5573933859927699,0.13612345242622084
11.40099999999912,0.5714352970650003,0.14038422638490541
11.60099999999901,0.5808901186058453,0.14282062595852688
11.800999999998899,0.5900973899865006,0.14689259851226164
12.000999999998788,0.6010800044631357,0.15604924618386026
12.200999999998677,0.6112322316487644,0.1645928460231774
12.400999999998566,0.6232430596478608,0.17147517448875577
12.600999999998455,0.6358036689203153,0.17674985984506655
12.800999999998345,0.6475823010461018,0.18089305046343188
13.000999999998234,0.6595255884990807,0.1861870519012239
13.200999999998123,0.6746282762583385,0.18656471410622355
13.400999999998012,0.6856853663796387,0.1872508044376253
13.600999999997901,0.7006660062301863,0.1929139821382073
13.80099999999779,0.7152026851149689,0.19844277037840555
14.00099999999768,0.7295210315497386,0.20140793897687018
14.200999999997569,0.7519867351364324,0.20253427705216454
14.400999999997458,0.7729594217927982,0.20677566735314307
14.600999999997347,0.7943204176147205,0.2095194489469461
14.800999999997236,0.8152909822608431,0.21131011038921071
15.000999999997125,0.8297071328552766,0.2177497868710864
15.200999999997014,0.8475061573969518,0.22327002100284782
15.400999999996904,0.8702331802721598,0.22063590162474994
15.600999999996793,0.8936031544166728,0.21523535532320268
15.800999999996682,0.914850553623231,0.21306969790485453
16.000999999996573,0.9251364526020286,0.2185316955951856
16.200999999996817,0.9368410238804503,0.22610417414540446
16.40099999999706,0.9553849040720829,0.22766257557547492
16.600999999997306,0.9725682529788113,0.22525456157528567
16.80099999999755,0.9844671758699768,0.2260176884023
17.000999999997795,0.9913650279392086,0.22911352445058517
17.20099999999804,1.0022501417586795,0.23274007728932233
17.400999999998284,1.0055657490758823,0.24026423866920088
17.60099999999853,1.0237860548184488,0.2473277394033529
17.800999999998773,1.0329479997988749,0.25132851559641345
18.000999999999017,1.0330842520753973,0.26203897851827124
18.20099999999926,1.048895298749886,0.2727936798576319
18.400999999999506,1.0656920616611296,0.27979441062130495
18.60099999999975,1.0757728221208334,0.2884194747609004
18.799999999999994,1.0901874747113052,0.2926861165547697
19.000000000000238,1.1056076731758697,0.2987060136870137
19.200000000000482,1.1265442327969928,0.3081268581293076
19.400000000000727,1.150610960334227,0.3153410124218542
19.60000000000097,1.165050393612212,0.31855322348933934
19.800000000001216,1.1824397143639507,0.3200101033882462
20.00000000000146,1.1837374644064307,0.32766609968227167
