Time (s),X (m),Y (m)
0.001,0.001267963995250183,0.0005916298972236683
0.20000000000000015,0.0006688687609975769,4.0281695602086886e-05
0.4000000000000003,0.005877404735047443,0.001050883638925985
0.6000000000000004,0.01353840916548147,0.004843050291302369
0.8000000000000006,0.02443636926073568,0.008323678787547051
1.0000000000000007,0.03512697605999722,0.010266762308596218
1.2009999999999785,0.04344876607267615,0.008854226410902229
1.4009999999999565,0.052732472500261536,0.0015898005226855849
1.6009999999999345,0.06558292239299117,-0.014637607673644139
1.8009999999999124,0.08375737762062122,-0.03304738004398103
2.0009999999998906,0.10263524496346409,-0.04916003263026298
2.2009999999998686,0.1199740517912771,-0.061168574986959816
2.4009999999998466,0.14021619186967646,-0.07317047537467421
2.6009999999998246,0.163462742810669,-0.08951200360355435
2.8009999999998025,0.1868082535453165,-0.10940661988426637
3.0009999999997805,0.21032605966068293,-0.1334589841616158
3.2009999999997585,0.21936918837931635,-0.15322946853618474
3.4009999999997365,0.23363575188395797,-0.17454480294811142
3.6009999999997144,0.24575058176143474,-0.19150193910092833
3.8009999999996924,0.2648689310214942,-0.202085431666415
4.000999999999671,0.29102138103013,-0.20629871122789067
4.200999999999738,0.3204811446019795,-0.20389551937200892
4.400999999999804,0.34292309285639,-0.20297208127597574
4.600999999999871,0.3699517631140007,-0.20534781498682092
4.800999999999938,0.40429327105203816,-0.21682980845378147
5.000000000000004,0.4456933908278194,-0.2277908171024899
5.200000000000071,0.48578202358696554,-0.23515133286023993
5.400000000000138,0.525303585794983,-0.24376992067193679
5.600000000000205,0.561055558228415,-0.25509810654241327
5.800000000000272,0.5878084316311585,-0.2694458194714376
6.000000000000338,0.6175973989758119,-0.2913584121627636
6.200000000000405,0.6476045836856665,-0.31072773466801334
6.400000000000472,0.6841975252023483,-0.32467999239189
6.600000000000539,0.7248253202080249,-0.33868045960554916
6.800000000000606,0.7553539699206613,-0.357695241295945
7.000000000000672,0.7768154091433869,-0.3849126408225478
7.200000000000739,0.792217838129442,-0.4144780215475297
7.400000000000806,0.8024981008059938,-0.44409368016604794
7.600000000000873,0.8255568901682199,-0.47601282392371547
7.8000000000009395,0.8565925930027845,-0.5093153328522416
8.000000000001005,0.8956894755433636,-0.5444277159797403
8.200000000000895,0.9380964036655031,-0.5791174645072604
8.400000000000784,0.9688987594356371,-0.6067002462639461
8.600000000000673,1.0077960242578918,-0.6263310472504554
8.800000000000562,1.0591004961216663,-0.647715398971846
9.000000000000451,1.1129196051968357,-0.6714136668803985
9.20000000000034,1.1369130981397717,-0.6991147802942649
9.40000000000023,1.1543919768133264,-0.7212349198708106
9.600000000000119,1.1771429088680752,-0.7387581463569519
9.800000000000008,1.2129008684587432,-0.7566329204201827
10.000999999999896,1.2595942433813643,-0.7766684150369421
10.200999999999786,1.3088378509085041,-0.8038380882806654
10.400999999999675,1.353799396381434,-0.8312646320778144
10.600999999999564,1.3842928976846818,-0.8598177130293772
10.800999999999453,1.4159499965941145,-0.8898439377440938
11.000999999999342,1.4527892320611204,-0.9264723550811159
11.200999999999231,1.489369420735449,-0.9738598705747944
11.40099999999912,1.526108563300458,-1.0230824714494249
11.60099999999901,1.5595900840271595,-1.0720038307668822
11.800999999998899,1.5985165521324922,-1.1115906890587675
12.000999999998788,1.6412268186835968,-1.1359071366641413
12.200999999998677,1.6800236069537395,-1.150968513699222
12.400999999998566,1.711342560485235,-1.1672698739941465
12.600999999998455,1.7414806168391908,-1.177188114125039
12.800999999998345,1.7782308171312307,-1.181808835978638
13.000999999998234,1.829208187600103,-1.1847335873746232
13.200999999998123,1.8744927197230332,-1.1895091668027962
13.400999999998012,1.923966216988059,-1.1926405621683909
13.600999999997901,1.966533684007194,-1.203205180769368
13.80099999999779,2.0098324761826913,-1.228885013250325
14.00099999999768,2.061994255549132,-1.2654698564353593
14.200999999997569,2.1087548439419335,-1.302709236284417
14.400999999997458,2.1455065884329825,-1.336751982558394
14.600999999997347,2.187049111636707,-1.3601439932451214
14.800999999997236,2.235239723198347,-1.3705616354073125
15.000999999997125,2.28044502446827,-1.3808488792599436
15.200999999997014,2.3086210516445616,-1.3948321752535382
15.400999999996904,2.3538871188973642,-1.41005077160215
15.600999999996793,2.4120834615894093,-1.4229534518262559
15.800999999996682,2.4681051398653393,-1.4425016797045882
16.000999999996573,2.5184304825026755,-1.4739701533426062
16.200999999996817,2.5641607663778734,-1.516945890530568
16.40099999999706,2.604812322185927,-1.5656575888592874
16.600999999997306,2.651855351854322,-1.6137853566668077
16.80099999999755,2.7060115706443155,-1.6666796411762375
17.000999999997795,2.762928743794277,-1.718675088660511
17.20099999999804,2.8220029210103914,-1.7649249517790129
17.400999999998284,2.8715263752329,-1.803331029132919
17.60099999999853,2.9214206924596082,-1.8302266050548144
17.800999999998773,2.967071066115081,-1.8566075960873007
18.000999999999017,3.0101490100036385,-1.8823620633682894
18.20099999999926,3.066774947027159,-1.912233411782293
18.400999999999506,3.1213311848015883,-1.9407831576336834
18.60099999999975,3.1636429713922833,-1.9528118546931224
18.799999999999994,3.2148239742539584,-1.9515195523277975
19.000000000000238,3.271584428132809,-1.9481358715931423
19.200000000000482,3.3295663551717376,-1.9388583978356608
19.400000000000727,3.3850149259986493,-1.9329110628132251
19.60000000000097,3.438534870939598,-1.9326593881081628
19.800000000001216,3.4940204614909858,-1.9313861763353892
20.00000000000146,3.533051012370693,-1.933548834483153
