Time (s),X (m),Y (m)
0.001,-1.2891339751951317e-05,0.0009348340498585851
0.20000000000000015,0.001102483250753899,-0.0008435855712323506
0.4000000000000003,0.005611434942799028,-0.004355086254595606
0.6000000000000004,0.011603307301377099,-0.009016793208193003
0.8000000000000006,0.01980972298170271,-0.011140565205037213
1.0000000000000007,0.028207627555060486,-0.010226609300123009
1.2009999999999785,0.0351282647762372,-0.004758896762911278
1.4009999999999565,0.042595489984965734,6.63664974832098e-05
1.6009999999999345,0.05255007138925131,0.0017079578588988502
1.8009999999999124,0.06293750862843356,0.007773667788609759
2.0009999999998906,0.07105148841277331,0.011157783113997575
2.2009999999998686,0.0853740117963668,0.005581081816728469
2.4009999999998466,0.09990566200697416,0.01583099360069916
2.6009999999998246,0.116539172047284,0.02621226857952927
2.8009999999998025,0.13346591010652353,0.024567336328944204
3.0009999999997805,0.15270985259060035,0.0202636364205432
3.2009999999997585,0.16869212021467037,0.00394774163808501
3.4009999999997365,0.18985916240535428,0.00220314191590118
3.6009999999997144,0.2007711816828997,-0.008262234012789653
3.8009999999996924,0.20694031153775644,-0.028118681990190207
4.000999999999671,0.21498943150161648,-0.04301363959505369
4.200999999999738,0.22654985560276794,-0.04622908796594243
4.400999999999804,0.24258511517603687,-0.04807665686652769
4.600999999999871,0.251030091146751,-0.059544612723518874
4.800999999999938,0.2573142835422317,-0.07178503157653018
5.000000000000004,0.26674389464945686,-0.07500862950369185
5.200000000000071,0.27932863597408314,-0.07054040293385103
5.400000000000138,0.2943871231482894,-0.06933869943728965
5.600000000000205,0.31080273858023033,-0.06694080235754547
5.800000000000272,0.32828370601841117,-0.06067692416547261
6.000000000000338,0.3398431940792746,-0.05707575858822267
6.200000000000405,0.35274658051646424,-0.06096624384150158
6.400000000000472,0.3675335572041796,-0.06962680619605748
6.600000000000539,0.3836438207271655,-0.06567797538654871
6.800000000000606,0.4009676644809169,-0.06417256448766832
7.000000000000672,0.4160900608518077,-0.06400392124535308
7.200000000000739,0.431458469710977,-0.07206538770168815
7.400000000000806,0.44980789925020215,-0.08373005268169126
7.600000000000873,0.46226226609152143,-0.08913701266431255
7.8000000000009395,0.4742004182334613,-0.0889390127785738
8.000000000001005,0.48796921923673925,-0.09499030499738821
8.200000000000895,0.500586743165504,-0.10645438250230572
8.400000000000784,0.5121652038489362,-0.1213888664646932
8.600000000000673,0.5194820428907578,-0.13796520516920965
8.800000000000562,0.5319412642036516,-0.14465901814884796
9.000000000000451,0.5422641916859334,-0.15081341291836287
9.20000000000034,0.5505727406343971,-0.17304496769486602
9.40000000000023,0.5641592865806814,-0.1839643067358484
9.600000000000119,0.5743465910871138,-0.18571154281175375
9.800000000000008,0.5826051747215676,-0.19020673159942714
10.000999999999896,0.5947952964760616,-0.1983653772203095
10.200999999999786,0.6063005212503362,-0.20976929731736493
10.400999999999675,0.6216996190951859,-0.21187321288772148
10.600999999999564,0.6376290349139625,-0.19962415818155282
10.800999999999453,0.6557055313886759,-0.19937636138576567
11.000999999999342,0.6723886120235956,-0.20558751860827107
11.200999999999231,0.6883915319047217,-0.22380481059905588
11.40099999999912,0.706303177246918,-0.236569258051386
11.60099999999901,0.7167631483509469,-0.24982610984694514
11.800999999998899,0.7319787246686125,-0.2564345424588707
12.000999999998788,0.743447628731274,-0.27062065845919164
12.200999999998677,0.7588943650647739,-0.27210609160424787
12.400999999998566,0.7752746799043119,-0.2768163934198575
12.600999999998455,0.7902524037861318,-0.29181914095520944
12.800999999998345,0.8052273011042814,-0.30005742873446345
13.000999999998234,0.8175920118040487,-0.30350447391010144
13.200999999998123,0.8320973762574678,-0.3112479156829758
13.400999999998012,0.8473321041398524,-0.321212643388066
13.600999999997901,0.8640692300554417,-0.32908265361836214
13.80099999999779,0.8803246654933672,-0.33732864567516985
14.00099999999768,0.8906190306570794,-0.35011482122093696
14.200999999997569,0.9004347054894034,-0.36199568215632033
14.400999999997458,0.9133898155604293,-0.36521773290253357
14.600999999997347,0.9230561764279615,-0.36959539767390626
14.800999999997236,0.9311365833176731,-0.37274135597622454
15.000999999997125,0.9355122593469876,-0.38117413448065424
15.200999999997014,0.939941671642885,-0.39022596700679496
15.400999999996904,0.9483155136278791,-0.39570077673119025
15.600999999996793,0.9651207538559604,-0.38474362607339974
15.800999999996682,0.9811763347059215,-0.38451209373026735
16.000999999996573,0.9965745392810508,-0.3897020272840614
16.200999999996817,1.0099429301416685,-0.3899441879443562
16.40099999999706,1.0214811104579287,-0.3919932257755675
16.600999999997306,1.0337970485612542,-0.3999515965936227
16.80099999999755,1.0470217831642634,-0.4063024466032055
17.000999999997795,1.0563863411510641,-0.4106790896198463
17.20099999999804,1.0668539167544604,-0.41795326577673636
17.400999999998284,1.0795550399624905,-0.41773697821428796
17.60099999999853,1.0950966452980255,-0.42001858619617694
17.800999999998773,1.108345634749048,-0.4236415154071364
18.000999999999017,1.126201702805396,-0.43373747366255544
18.20099999999926,1.1434781710898272,-0.4441365207596127
18.400999999999506,1.15576095070121,-0.4442847893347494
18.60099999999975,1.1666256594442626,-0.45325559578970825
18.799999999999994,1.1792061708001127,-0.4531175140702499
19.000000000000238,1.193546620195616,-0.4519985356810841
19.200000000000482,1.2055308164747467,-0.4610582653162389
19.400000000000727,1.2145806654358688,-0.4791908042181788
19.60000000000097,1.229502155698237,-0.4921447783363845
19.800000000001216,1.2465225468735073,-0.5008676581571597
20.00000000000146,1.2589781519019998,-0.5047743274580059
