Time (s),X (m),Y (m)
0.001,-0.0004702548317818469,0.0005157376242541224
0.20000000000000015,0.0007385996991179041,-6.783402426790037e-05
0.4000000000000003,0.00135675784529299,-0.00023565992606485852
0.6000000000000004,0.002251538518639031,-0.0007485114546183992
0.8000000000000006,0.003157958072301513,-0.001293143618717171
1.0000000000000007,0.004069814407015055,-0.0018603082581098848
1.2009999999999785,0.00525908600351649,-0.002658093717661794
1.4009999999999565,0.006436380954498015,-0.003436481719329738
1.6009999999999345,0.007649925093170517,-0.004237322140430348
1.8009999999999124,0.008953151655996553,-0.005109377310014073
2.0009999999998906,0.010371688588714206,-0.00607321136791188
2.2009999999998686,0.011891046616390382,-0.007114357054728059
2.4009999999998466,0.013513631731296086,-0.008233074334962818
2.6009999999998246,0.015220430148441365,-0.009414943506437732
2.8009999999998025,0.01699490471292391,-0.010636354753530074
3.0009999999997805,0.018838675619801258,-0.01190431657944919
3.2009999999997585,0.020740412019427446,-0.013210668395510073
3.4009999999997365,0.022703892832031867,-0.014554170830610091
3.6009999999997144,0.024731030188382148,-0.015933076072697117
3.8009999999996924,0.026820266621200926,-0.01734331658942578
4.000999999999671,0.028966796843151937,-0.018782099907123376
4.200999999999738,0.031169355793695782,-0.02024688860185801
4.400999999999804,0.03342152745725687,-0.021727863157536276
4.600999999999871,0.035709887330558944,-0.023208158856488786
4.800999999999938,0.03803220337230024,-0.024684719593321146
5.000000000000004,0.04035873108187033,-0.026141973636693815
5.200000000000071,0.04274337874366051,-0.027606453726542957
5.400000000000138,0.04516519770286583,-0.02903806099960992
5.600000000000205,0.04769443176896629,-0.030417288146219044
5.800000000000272,0.05023969402017435,-0.03168979291546034
6.000000000000338,0.05312830688881141,-0.032964561075105744
6.200000000000405,0.05614069675942265,-0.03424391200125762
6.400000000000472,0.059011206378152326,-0.035316398941241035
6.600000000000539,0.06211320198720806,-0.036283178629587465
6.800000000000606,0.06502380689727362,-0.037149800250051455
7.000000000000672,0.06782988802480255,-0.03792013724676013
7.200000000000739,0.07056729750228298,-0.03864268861527839
7.400000000000806,0.07328383810809122,-0.03932190593982864
7.600000000000873,0.07605820509592445,-0.039971718334572325
7.8000000000009395,0.07894385535392147,-0.04059277741592379
8.000000000001005,0.08195429090812233,-0.04117128944318588
8.200000000000895,0.08450632787818571,-0.04155590296485161
8.400000000000784,0.08712702132559433,-0.041850132107889404
8.600000000000673,0.08951460395251674,-0.04201386537316763
8.800000000000562,0.09245150330156611,-0.042162682312698346
9.000000000000451,0.09505910655907439,-0.04215195812904619
9.20000000000034,0.09767593601919965,-0.04203428714310459
9.40000000000023,0.10032049386921144,-0.04180567650514853
9.600000000000119,0.1030109820942848,-0.04148030682839403
9.800000000000008,0.10577845153172968,-0.04105785876338665
10.000999999999896,0.10868076500038369,-0.040531256146851054
10.200999999999786,0.11151719507344435,-0.039903460505335206
10.400999999999675,0.11370095698261946,-0.03908476953040752
10.600999999999564,0.11578979302944974,-0.03818828866141216
10.800999999999453,0.11778266107565706,-0.037201239775053546
11.000999999999342,0.1197889451992233,-0.03614365475045902
11.200999999999231,0.1219056248804677,-0.03503404188923356
11.40099999999912,0.12393679914667724,-0.033845670100984514
11.60099999999901,0.12592637661257292,-0.03254338477925443
11.800999999998899,0.12809165588324803,-0.031165873435143147
12.000999999998788,0.13041415620689112,-0.02971185387327603
12.200999999998677,0.13286277384165301,-0.02818440954644907
12.400999999998566,0.13541991103374215,-0.02658056116314532
12.600999999998455,0.137474513656684,-0.02487042279799071
12.800999999998345,0.13922644519848715,-0.023065942217798483
13.000999999998234,0.1409472690499824,-0.021207143835965944
13.200999999998123,0.14264587518008887,-0.019273080359510347
13.400999999998012,0.1444053653135482,-0.017282596349216372
13.600999999997901,0.14628818808535574,-0.015243066883287689
13.80099999999779,0.1483662628671873,-0.013147772841774699
14.00099999999768,0.15031759520013424,-0.01055886934199344
14.200999999997569,0.1519435739962461,-0.007778788712128133
14.400999999997458,0.15355628381840017,-0.004945340138640318
14.600999999997347,0.15528902169494638,-0.0020117891854918826
14.800999999997236,0.15697482985006245,0.0010521839660225778
15.000999999997125,0.1585984172226852,0.004660383468940966
15.200999999997014,0.16014314319811063,0.008503321585722558
15.400999999996904,0.16184156926957174,0.012362460580182593
15.600999999996793,0.1636248101076137,0.016292517340743204
15.800999999996682,0.1654929791215748,0.020286055583331335
16.000999999996573,0.16713541965311188,0.02498818732770539
16.200999999996817,0.16889668229419819,0.029956516992597028
16.40099999999706,0.1703456338205261,0.03519985615521821
16.600999999997306,0.1718194148906706,0.040661677097973296
16.80099999999755,0.17346702129393193,0.04608879197510758
17.000999999997795,0.17500922483511328,0.05166784064026738
17.20099999999804,0.17647950448814442,0.057397962096766425
17.400999999998284,0.17780578143399595,0.06415856906302252
17.60099999999853,0.1797799382866709,0.0715661972444534
17.800999999998773,0.18171805160434223,0.0783872180952259
18.000999999999017,0.18398265469342454,0.08562807492638629
18.20099999999926,0.18655834183953382,0.09368489114016455
18.400999999999506,0.18920287060534105,0.10109960885534187
18.60099999999975,0.19312773794950186,0.11001734096580518
18.799999999999994,0.19613808958757362,0.11711188700040495
19.000000000000238,0.19891203772672725,0.12501734210517274
19.200000000000482,0.2012480302664398,0.13244851018653478
19.400000000000727,0.20406923100029215,0.1403844773774872
19.60000000000097,0.2078466383292262,0.1494064970496633
19.800000000001216,0.21087460538586916,0.15757132817927402
20.00000000000146,0.21426700041666902,0.16719538764239114
