Time (s),X (m),Y (m)
0.001,0.0005129279282107199,0.0010275501737767782
0.20000000000000015,0.0008339954849790279,-0.0009783370407654452
0.4000000000000003,0.0023501629487032312,-0.001179900221634231
0.6000000000000004,0.006425869645447825,0.004066248827557467
0.8000000000000006,0.013863481641428383,0.0020277195510587905
1.0000000000000007,0.022754729953990978,0.004982819197361062
1.2009999999999785,0.03481608882664082,0.0014210914073436883
1.4009999999999565,0.04446776761470727,0.007378018284792896
1.6009999999999345,0.05155960638292504,0.010193327650223315
1.8009999999999124,0.05763224288141959,0.009788244205186016
2.0009999999998906,0.06606204368321134,0.015899457879017545
2.2009999999998686,0.07665740006953929,0.018662695845344888
2.4009999999998466,0.08607914689711199,0.016819463898939783
2.6009999999998246,0.09755698738387943,0.01668199963146118
2.8009999999998025,0.1086542140185633,0.02299137947488798
3.0009999999997805,0.12508615755916597,0.03512626135565283
3.2009999999997585,0.14069383134589702,0.04648211327406357
3.4009999999997365,0.1643943556044378,0.05808030147742696
3.6009999999997144,0.18682239993973246,0.05720566049928761
3.8009999999996924,0.19907498802294124,0.05446186606598791
4.000999999999671,0.21477771854855557,0.055847501390931316
4.200999999999738,0.23585053655564578,0.05595597345917305
4.400999999999804,0.2618269915730662,0.059376533793760795
4.600999999999871,0.2912608387853589,0.06273570057178424
4.800999999999938,0.3195211179626059,0.07469099766578008
5.000000000000004,0.3522333814010243,0.08557657362815642
5.200000000000071,0.37368281361765276,0.08811421988818198
5.400000000000138,0.3886040365216831,0.09154646418746464
5.600000000000205,0.39873642220831973,0.08014243407632424
5.800000000000272,0.4049479065473378,0.06615183221998185
6.000000000000338,0.41889021780635216,0.0541561486497795
6.200000000000405,0.43352951739324536,0.04143249353657182
6.400000000000472,0.4476506645005725,0.03313955242255651
6.600000000000539,0.4644041108373397,0.028499720811569238
6.800000000000606,0.4810701390134879,0.020602935028898615
7.000000000000672,0.5021856283102925,0.023153584735823716
7.200000000000739,0.5275802379922827,0.025420458627916087
7.400000000000806,0.5449546306071448,0.022813573755829385
7.600000000000873,0.5646053514254475,0.030831243716532113
7.8000000000009395,0.5910259570240906,0.038127507118319914
8.000000000001005,0.6144440585261803,0.03666268220355475
8.200000000000895,0.6404188547023173,0.04695275945491421
8.400000000000784,0.6587277291641168,0.04327022351133028
8.600000000000673,0.6795736626705047,0.04904194279875602
8.800000000000562,0.6996043161965704,0.048064603035058155
9.000000000000451,0.7239024518995049,0.05135936751883786
9.20000000000034,0.7404290758199669,0.04639018841568045
9.40000000000023,0.7566560547396702,0.04467483602578332
9.600000000000119,0.7881728470820506,0.06177000023744824
9.800000000000008,0.8186101426710154,0.07338380963423141
10.000999999999896,0.8453949431611789,0.08212644693443368
10.200999999999786,0.8689804286387248,0.0924290111480302
10.400999999999675,0.8877618486203159,0.08873879730807918
10.600999999999564,0.9038483368922573,0.08351311035941096
10.800999999999453,0.9202052295739106,0.07362264551613197
11.000999999999342,0.9410294137861803,0.07248286403664499
11.200999999999231,0.9609241298655273,0.06927468211749857
11.40099999999912,0.9872738720258795,0.06703770376891235
11.60099999999901,1.0131203943390361,0.07318143740043752
11.800999999998899,1.0288146434394183,0.07458917387058331
12.000999999998788,1.0466545052829928,0.08130459398693822
12.200999999998677,1.0705708287674194,0.07965504599748059
12.400999999998566,1.0953550866031492,0.08188581844626107
12.600999999998455,1.1270830371752498,0.08910718168006958
12.800999999998345,1.1577554285412504,0.10138976782359833
13.000999999998234,1.1801014820792077,0.09713748551352179
13.200999999998123,1.2036535741792305,0.0967277167269917
13.400999999998012,1.227937522447212,0.09212237609109518
13.600999999997901,1.2487731502554178,0.09460879290453178
13.80099999999779,1.2684677182961526,0.09356929837271132
14.00099999999768,1.2912816331950179,0.08618576507003961
14.200999999997569,1.3199617464810856,0.09251686713375606
14.400999999997458,1.344803174467237,0.09817095581962576
14.600999999997347,1.3742972362490973,0.10137856639263594
14.800999999997236,1.401792057978395,0.1032045563658829
15.000999999997125,1.4221175513284567,0.09547134341059445
15.200999999997014,1.4443920447521525,0.08500247514174819
15.400999999996904,1.4722312518408347,0.08777647318921195
15.600999999996793,1.497727419712404,0.08333827557001554
15.800999999996682,1.5140509177837156,0.06803112011483432
16.000999999996573,1.5387149580129422,0.056892258321589645
16.200999999996817,1.5621941895855407,0.04643129399875175
16.40099999999706,1.5715187000785782,0.03168649742371324
16.600999999997306,1.5773980610314373,0.01662228021886165
16.80099999999755,1.5865457063359343,-0.0042493502409433215
17.000999999997795,1.5922097926033079,-0.030653104095990667
17.20099999999804,1.604877439691622,-0.05739110909048864
17.400999999998284,1.629864110091118,-0.08269964482834433
17.60099999999853,1.6451300666592477,-0.1064514733853086
17.800999999998773,1.6570625891022812,-0.13371495607620604
18.000999999999017,1.6671172195060748,-0.16324364995317842
18.20099999999926,1.6843808466280872,-0.1899066566783337
18.400999999999506,1.6893309454467509,-0.2175115340033793
18.60099999999975,1.6920108687398738,-0.24409406914182927
18.799999999999994,1.6872684852611135,-0.26854403532682564
19.000000000000238,1.688737549073541,-0.29376083918807866
19.200000000000482,1.7024661374117278,-0.3195539726892584
19.400000000000727,1.70915428452616,-0.35412806330009833
19.60000000000097,1.7112182490258157,-0.3839752867876651
19.800000000001216,1.709991791120827,-0.4070132520795864
20.00000000000146,1.7166729097355087,-0.4305628441092316
