Time (s),X (m),Y (m)
0.001,-0.0005118051130574255,-0.0004359202765531099
0.20000000000000015,0.0009402534378195643,0.00010716181583229369
0.4000000000000003,0.0011475303644045629,-9.914448926316703e-05
0.6000000000000004,0.001758534311701243,6.502294838543571e-05
0.8000000000000006,0.0026748214300147985,0.0004468033661075985
1.0000000000000007,0.003322792326946163,0.0006635517989959606
1.2009999999999785,0.004172858381181393,0.0009745125938197581
1.4009999999999565,0.004844051939788515,0.0011924700033949093
1.6009999999999345,0.005546302814927443,0.0014409050377114689
1.8009999999999124,0.0063349909774871975,0.0017448359448576473
2.0009999999998906,0.007149728705095493,0.002073466380483507
2.2009999999998686,0.007989541200048227,0.00242568999466344
2.4009999999998466,0.008855321128841992,0.002801581645074683
2.6009999999998246,0.009733356037085184,0.0031931025550359002
2.8009999999998025,0.010625220904375182,0.0036003596093338616
3.0009999999997805,0.011534298052983975,0.0040266518363791925
3.2009999999997585,0.01246302454951468,0.004473722835022521
3.4009999999997365,0.013410404969668971,0.004940076719877945
3.6009999999997144,0.0143741313345556,0.005424218969569819
3.8009999999996924,0.015352848876271785,0.005925945462855629
4.000999999999671,0.016345231136913746,0.00644414366284138
4.200999999999738,0.017350753155848973,0.006978065298437844
4.400999999999804,0.018368960016214575,0.007527938933646927
4.600999999999871,0.019398679308132317,0.008093553122374616
4.800999999999938,0.020439313274694088,0.008674388873068364
5.000000000000004,0.021487577992878953,0.009269869648201881
5.200000000000071,0.022548971160701717,0.009880432321735003
5.400000000000138,0.02362018135864797,0.010505249935126287
5.600000000000205,0.02470093438027637,0.011143919350122137
5.800000000000272,0.025791050959438816,0.011796331697707144
6.000000000000338,0.026890395276875426,0.012462275903979005
6.200000000000405,0.027998831596866513,0.013141492783429323
6.400000000000472,0.029116155885873622,0.013833897327381776
6.600000000000539,0.030242141301176695,0.014539245264421869
6.800000000000606,0.031376740792904145,0.015257531571838904
7.000000000000672,0.03251979099183829,0.015988744884273594
7.200000000000739,0.03367108220586723,0.01673266084208551
7.400000000000806,0.03483035631303202,0.017489108446699726
7.600000000000873,0.03599736444482924,0.018257938766241474
7.8000000000009395,0.037172025921266845,0.019039269661792455
8.000000000001005,0.03835446259930058,0.019833295562419893
8.200000000000895,0.039544595210038204,0.020639909526695987
8.400000000000784,0.040742243321488854,0.021458989470716408
8.600000000000673,0.04194718550264388,0.022290438478839256
8.800000000000562,0.0431592834889733,0.023134177457762754
9.000000000000451,0.04437837534704178,0.023990137930815187
9.20000000000034,0.045604364148046375,0.024858387733812885
9.40000000000023,0.04683720063155107,0.025738999634931346
9.600000000000119,0.04807686539994085,0.02663193882664548
9.800000000000008,0.04932327443042118,0.027537323952470702
10.000999999999896,0.05058277971424933,0.028458387182353405
10.200999999999786,0.05184220523277022,0.02938870784591493
10.400999999999675,0.05310786950332478,0.03033141227310938
10.600999999999564,0.05437960429158258,0.03128649091250013
10.800999999999453,0.05565725976479275,0.03225397021415308
11.000999999999342,0.056940763307410845,0.03323404474847156
11.200999999999231,0.058229970194031505,0.03422675093963931
11.40099999999912,0.05952484734800709,0.0352320802947832
11.60099999999901,0.060825339483759094,0.03625003152715433
11.800999999998899,0.06213127429682222,0.037280620997442906
12.000999999998788,0.06344248169389737,0.03832386876748502
12.200999999998677,0.06475880337920864,0.03937979971660856
12.400999999998566,0.06608013407096082,0.04044844245477662
12.600999999998455,0.06740632829781683,0.04152985612732014
12.800999999998345,0.06873732433076221,0.04262421766349916
13.000999999998234,0.07007316953339979,0.04373171867265132
13.200999999998123,0.07141370209657558,0.04485237873618806
13.400999999998012,0.07275873623299126,0.04598622219594032
13.600999999997901,0.07410808206799206,0.04713327215977112
13.80099999999779,0.07546157151708542,0.04829354447243081
14.00099999999768,0.07681910264507612,0.04946705876098464
14.200999999997569,0.07818059700878272,0.05065390004368232
14.400999999997458,0.07954591340439908,0.05185424885019998
14.600999999997347,0.08091489792597117,0.05306822886529053
14.800999999997236,0.08228752292098349,0.05429593189885455
15.000999999997125,0.08366361923110276,0.05553739675632707
15.200999999997014,0.0850429878779047,0.05679265702397257
15.400999999996904,0.08648888917790176,0.058153233965161547
15.600999999996793,0.08787911190898508,0.05943356375558011
15.800999999996682,0.08932383547940742,0.06081208412378002
16.000999999996573,0.090781612606476,0.06221423741285156
16.200999999996817,0.09224322136433354,0.06363430936469275
16.40099999999706,0.09370592512134582,0.06507147865661847
16.600999999997306,0.09522082078576288,0.06661478907484499
16.80099999999755,0.09675278201213108,0.06817417022528126
17.000999999997795,0.09826237451978093,0.06973666769482806
17.20099999999804,0.09979742828208442,0.07133726413684821
17.400999999998284,0.10132960812394147,0.07295274906736833
17.60099999999853,0.10288110978883526,0.07464384783283329
17.800999999998773,0.10445951450141883,0.07637961425893065
18.000999999999017,0.10603853327412666,0.07813652638202691
18.20099999999926,0.10763064785795443,0.0799208231675421
18.400999999999506,0.10924345097413507,0.08174029510757296
18.60099999999975,0.11083778744637855,0.0835595135496063
18.799999999999994,0.11241041517785601,0.08539738196764779
19.000000000000238,0.11399449037768707,0.08728552147958069
19.200000000000482,0.11558174407495855,0.08919129128225704
19.400000000000727,0.11715876132829553,0.09110902098585613
19.60000000000097,0.11872277983685253,0.09305361022778384
19.800000000001216,0.12028730330272087,0.09502362534190618
20.00000000000146,0.12186582761726562,0.09702444908456925
