Time (s),X (m),Y (m)
0.001,-1.2891339751951317e-05,-0.0009348340498585851
0.20000000000000015,0.0008292266089318125,-2.8103662048218905e-05
0.4000000000000003,0.001890070673145783,-0.00010926111056033538
0.6000000000000004,0.0033490292821306187,-0.001261049352810006
0.8000000000000006,0.006526305390851246,-0.001064552719390968
1.0000000000000007,0.010365975152176157,7.509400556131006e-05
1.2009999999999785,0.015223235920433571,0.0041157706269361535
1.4009999999999565,0.020290375164994438,0.005219079339989314
1.6009999999999345,0.02428133541432809,0.005320959599427118
1.8009999999999124,0.029132669360584944,0.003467699642178411
2.0009999999998906,0.03316963436101517,0.004649242742882618
2.2009999999998686,0.03903465972051079,0.006590036793910452
2.4009999999998466,0.047255312758059276,0.012331468161689944
2.6009999999998246,0.05338843793510469,0.015972691023060072
2.8009999999998025,0.059708286903280325,0.018613649095345006
3.0009999999997805,0.06768348905648029,0.022647269715867557
3.2009999999997585,0.07418697878072013,0.025753621945416028
3.4009999999997365,0.0833764873481393,0.03074841888947111
3.6009999999997144,0.09159990821361011,0.0326247430589323
3.8009999999996924,0.09926797738860062,0.036978546570805036
4.000999999999671,0.10725870226468553,0.040592885971898154
4.200999999999738,0.11658923668890489,0.04750552582434225
4.400999999999804,0.1234000734082945,0.05084963654746942
4.600999999999871,0.13116469158212476,0.05831358547281849
4.800999999999938,0.14097819701621378,0.06616874877366546
5.000000000000004,0.15026000855639532,0.06895853057541292
5.200000000000071,0.15937231631953555,0.07513782873765988
5.400000000000138,0.1677758033611855,0.081843811294925
5.600000000000205,0.17715021198744738,0.08502422470719376
5.800000000000272,0.1823298552819446,0.09369097715186858
6.000000000000338,0.19054184519436318,0.09941335808138922
6.200000000000405,0.19773879454700652,0.10386626079988426
6.400000000000472,0.20951001727952046,0.10940762795158684
6.600000000000539,0.22064442194854383,0.11552758779121552
6.800000000000606,0.226259496830528,0.12050376274858321
7.000000000000672,0.2302199616690028,0.1304274015357479
7.200000000000739,0.23341294549529729,0.13989449534749976
7.400000000000806,0.23591068085437883,0.15432127591940487
7.600000000000873,0.2380587098202483,0.1660689269174484
7.8000000000009395,0.23894299280807949,0.18187379103881712
8.000000000001005,0.23883572529857405,0.19301351663551136
8.200000000000895,0.24145080352659673,0.2030714162467139
8.400000000000784,0.24226975443452634,0.2159080485181356
8.600000000000673,0.239993783032738,0.22857884303383963
8.800000000000562,0.24064489528788077,0.23972199937876706
9.000000000000451,0.24077282957564589,0.2508768469485662
9.20000000000034,0.23486507236379467,0.26561250508509343
9.40000000000023,0.23499594514693492,0.2766139082338506
9.600000000000119,0.22761462044158662,0.28969564178921375
9.800000000000008,0.22199675281793224,0.3031418662700256
10.000999999999896,0.2154883211331101,0.31531084951536714
10.200999999999786,0.20726081017489895,0.328345161638824
10.400999999999675,0.2030652731081267,0.33900468715801296
10.600999999999564,0.19623875894031845,0.3503175210823734
10.800999999999453,0.18811372920254366,0.36356756031947896
11.000999999999342,0.18093946036547198,0.3774957930311964
11.200999999999231,0.17523246291940037,0.38843933395792785
11.40099999999912,0.17130045086231824,0.398765881961638
11.60099999999901,0.16338714030459103,0.4108719800426933
11.800999999998899,0.15764251421941203,0.4216838911563147
12.000999999998788,0.1485439420388014,0.4328612073852073
12.200999999998677,0.14131728104533417,0.4426910205963964
12.400999999998566,0.1335199575448018,0.4514432214262201
12.600999999998455,0.12614683492808057,0.459829525684555
12.800999999998345,0.11837449223400377,0.47137388104021305
13.000999999998234,0.11415502832532999,0.47943249158287327
13.200999999998123,0.10720191537065336,0.4839369007221844
13.400999999998012,0.09608468587325669,0.48966435729489444
13.600999999997901,0.08555488036758184,0.49458378089729266
13.80099999999779,0.07415306045837898,0.49980250532409265
14.00099999999768,0.06260491700310562,0.5049027245698687
14.200999999997569,0.05024842653522865,0.5103303832982984
14.400999999997458,0.03817041396639826,0.5137674412014969
14.600999999997347,0.025036588741863874,0.5157483802495445
14.800999999997236,0.009289762795275804,0.5134004129198685
15.000999999997125,-0.0028183196210715385,0.5136294582149915
15.200999999997014,-0.01680276536745858,0.513489433502912
15.400999999996904,-0.030270608415255387,0.5139575626583986
15.600999999996793,-0.044984096934611244,0.5145203688696803
15.800999999996682,-0.05951999945955495,0.511231332042032
16.000999999996573,-0.07359111684641417,0.507661486861225
16.200999999996817,-0.08625523095120607,0.5070076337689308
16.40099999999706,-0.09924268952627457,0.5020703768425792
16.600999999997306,-0.11425129791973397,0.497076517985632
16.80099999999755,-0.1302661514882597,0.4916433604734903
17.000999999997795,-0.14482313809371722,0.4843548017706349
17.20099999999804,-0.1569044076648876,0.47768242898316704
17.400999999998284,-0.17049752304906454,0.47014715268338625
17.60099999999853,-0.18257784472176905,0.465315270140126
17.800999999998773,-0.19568009721028365,0.4580413845355852
18.000999999999017,-0.20926155741365093,0.4519853350600478
18.20099999999926,-0.2217284442515984,0.4458996324637239
18.400999999999506,-0.23313801172767534,0.4374589898235881
18.60099999999975,-0.24624747213056297,0.43023687823240647
18.799999999999994,-0.2578580165563035,0.42329080481719766
19.000000000000238,-0.2684712523337113,0.41355136838318246
19.200000000000482,-0.2769332670160207,0.401899922417216
19.400000000000727,-0.2865860819242223,0.39189892746193805
19.60000000000097,-0.29283923060246403,0.3785530683407751
19.800000000001216,-0.29813832892917946,0.3684195049782592
20.00000000000146,-0.30555561928061176,0.3593707052383895
