Time (s),X (m),Y (m)
0.001,0.0005129279282107199,-0.0010275501737767782
0.20000000000000015,0.0008272213988380003,0.00028830465718443553
0.4000000000000003,0.0012228059030724042,-0.00033759738539156905
0.6000000000000004,0.0016712601053659483,-0.0002769219313986116
0.8000000000000006,0.0021858013293793695,-0.00039118528457832716
1.0000000000000007,0.0026968536154599898,-0.00022755695268572283
1.2009999999999785,0.003198133818511811,-0.0004163270738364421
1.4009999999999565,0.0036714204952546896,-0.00047281725564946416
1.6009999999999345,0.004134758518632448,-0.0005158229850021371
1.8009999999999124,0.004606482729057718,-0.0006409477812055483
2.0009999999998906,0.005086636015053175,-0.0007775351654538265
2.2009999999998686,0.005574001776775893,-0.0009101373469887708
2.4009999999998466,0.006063503045867037,-0.001053829154788274
2.6009999999998246,0.006552551605771653,-0.0012078096632583955
2.8009999999998025,0.00703496534820537,-0.0013707418993527938
3.0009999999997805,0.007513028635640271,-0.0015432270763213328
3.2009999999997585,0.007988738380238067,-0.001723556033289943
3.4009999999997365,0.008464146660371126,-0.0019109009378966452
3.6009999999997144,0.008937817775746041,-0.0021049792171336543
3.8009999999996924,0.009409041863208048,-0.0023059076521150168
4.000999999999671,0.00987792753239436,-0.0025137831718501685
4.200999999999738,0.01034489618205478,-0.002728572666087703
4.400999999999804,0.010810494894703933,-0.002949995076055557
4.600999999999871,0.011274961184060276,-0.0031774430688140047
4.800999999999938,0.011738150618226625,-0.003410630912990192
5.000000000000004,0.012200190722707817,-0.0036569763132930128
5.200000000000071,0.01266110132514456,-0.0039014402178022605
5.400000000000138,0.013120987705352149,-0.004151512802085294
5.600000000000205,0.01357989579745881,-0.0044071060755864295
5.800000000000272,0.014038061811324663,-0.004668251352438034
6.000000000000338,0.014495727472163279,-0.004934820786697252
6.200000000000405,0.014952933043605711,-0.005206560245758302
6.400000000000472,0.015409742529245997,-0.00548337144631242
6.600000000000539,0.015866172544962615,-0.005765174675071519
6.800000000000606,0.01632125091913732,-0.006051641587646118
7.000000000000672,0.016773699857199335,-0.00634209884820357
7.200000000000739,0.01722348238543881,-0.006636248016542926
7.400000000000806,0.0176706416796497,-0.006933792594391321
7.600000000000873,0.01811523606677247,-0.007234605638697227
7.8000000000009395,0.018557323488819197,-0.007538527350045233
8.000000000001005,0.018996434529653092,-0.00784540262411701
8.200000000000895,0.019432145755753263,-0.00815511307446813
8.400000000000784,0.019865196360585285,-0.008467605157832032
8.600000000000673,0.020296169893067432,-0.008782935210893164
8.800000000000562,0.020725223855367455,-0.009101120765684246
9.000000000000451,0.02115175158775027,-0.009422081817393622
9.20000000000034,0.021575301405221004,-0.009745695929571448
9.40000000000023,0.021996154609066287,-0.010071772727707247
9.600000000000119,0.02241520936124895,-0.010400193637318348
9.800000000000008,0.022832421563898333,-0.010730871241098157
10.000999999999896,0.023245968032221582,-0.01105622647395596
10.200999999999786,0.02365866178210846,-0.011391313138245878
10.400999999999675,0.024068849283986418,-0.011728463926415331
10.600999999999564,0.024477824994618046,-0.012067704135827764
10.800999999999453,0.0248855273420904,-0.012408998248107695
11.000999999999342,0.02529215533265181,-0.012752267117351331
11.200999999999231,0.025699058984851517,-0.013097389425933924
11.40099999999912,0.026106209233500093,-0.01344465815776644
11.60099999999901,0.026514106457480566,-0.013794137734347654
11.800999999998899,0.0269257910654308,-0.014146622728986192
12.000999999998788,0.02734275006987353,-0.014502798425844439
12.200999999998677,0.027765228555558585,-0.01486283771348231
12.400999999998566,0.028193498700517967,-0.01522685898512957
12.600999999998455,0.02862787864873247,-0.015594782027994481
12.800999999998345,0.02906845442471959,-0.01596655133479365
13.000999999998234,0.029515291457171577,-0.016342096042258312
13.200999999998123,0.029968520095963756,-0.01672158787845726
13.400999999998012,0.030428154424334244,-0.017105043195109127
13.600999999997901,0.030894130369510296,-0.01749226063385976
13.80099999999779,0.03136653409693038,-0.017883057780708644
14.00099999999768,0.031845366608122136,-0.01827726722060302
14.200999999997569,0.03232974132531087,-0.01867454220141369
14.400999999997458,0.03281903792598023,-0.019074710004325094
14.600999999997347,0.03331335158683168,-0.01947767937468042
14.800999999997236,0.03381264240595665,-0.019883249583591816
15.000999999997125,0.03431689300292711,-0.020291520239228693
15.200999999997014,0.0348259603831357,-0.02070238817800274
15.400999999996904,0.03533962175920784,-0.02111562396375114
15.600999999996793,0.03585790663012714,-0.021531115935577393
15.800999999996682,0.036380778751902175,-0.021948618031921347
16.000999999996573,0.03690830767036721,-0.022367922085985186
16.200999999996817,0.03744044372059512,-0.02278877822550873
16.40099999999706,0.037977129566624516,-0.023210947507253513
16.600999999997306,0.038518384086673026,-0.02363416763525811
16.80099999999755,0.0390640984904981,-0.02405791522096399
17.000999999997795,0.039613988182034286,-0.024481119518127682
17.20099999999804,0.040167871196403485,-0.024903178957928977
17.400999999998284,0.04072559959486042,-0.025324062038091937
17.60099999999853,0.04128707736561015,-0.025743702507328856
17.800999999998773,0.041852230953938335,-0.02616193953390908
18.000999999999017,0.042421073989896786,-0.026578271054276386
18.20099999999926,0.04299338026380869,-0.02699230570579829
18.400999999999506,0.0435689797144202,-0.027403715414674047
18.60099999999975,0.0441476941303538,-0.027812049443726734
18.799999999999994,0.04473091449212063,-0.02821972276912601
19.000000000000238,0.04531524042342812,-0.028620118286475864
19.200000000000482,0.0459020732840094,-0.029016227628531937
19.400000000000727,0.04649115903629471,-0.029408081642908784
19.60000000000097,0.0470823076193942,-0.02979567697992246
19.800000000001216,0.04767545899435853,-0.03017890468562725
20.00000000000146,0.04827051349990176,-0.030557945948704993
