Time (s),X (m),Y (m)
0.001,-0.00042190612164786544,-0.0005916298972236683
0.20000000000000015,0.0008341320816924069,-9.12470087483205e-06
0.4000000000000003,0.002449368605237586,0.0005852827717341651
0.6000000000000004,0.003672539556746226,0.00021521389087987615
0.8000000000000006,0.006647942054761097,0.0027909808096869787
1.0000000000000007,0.01049887899925727,0.005603588070697473
1.2009999999999785,0.01314933329763385,0.0051992294460585535
1.4009999999999565,0.01612930859630096,0.0012064533859075593
1.6009999999999345,0.01969493082149383,0.003070776356936513
1.8009999999999124,0.023585315095342372,0.004826868746035778
2.0009999999998906,0.028211480937716145,0.006731736299709232
2.2009999999998686,0.033059244249432025,0.010709290775451442
2.4009999999998466,0.03850726775975689,0.014243424702770437
2.6009999999998246,0.04420044675215581,0.017752770155073077
2.8009999999998025,0.05100166568970693,0.02398607696489103
3.0009999999997805,0.05599961149338336,0.028396344605327306
3.2009999999997585,0.06177004691915002,0.03435761273405351
3.4009999999997365,0.06678578314392905,0.042655924133194155
3.6009999999997144,0.072845313031222,0.04795696370252501
3.8009999999996924,0.07764022120570954,0.0547417040722068
4.000999999999671,0.08510752500111474,0.06303728061956398
4.200999999999738,0.09325215116430895,0.07350241849995179
4.400999999999804,0.09957077614831619,0.0850654385575892
4.600999999999871,0.10523933389370257,0.09308722106324707
4.800999999999938,0.10865902097450691,0.10692817761244681
5.000000000000004,0.113658673216017,0.11354651702191706
5.200000000000071,0.11632774362853417,0.12142511846922015
5.400000000000138,0.12169511514246878,0.12700954800374586
5.600000000000205,0.12245704781334041,0.13860012721075596
5.800000000000272,0.12236348880606247,0.1492811901022182
6.000000000000338,0.1254355463778153,0.155085783883191
6.200000000000405,0.12786915572740476,0.16469783207839245
6.400000000000472,0.12849691687712197,0.1727640535023008
6.600000000000539,0.12982841165164336,0.18087871166699515
6.800000000000606,0.13452528333208508,0.18821271871482445
7.000000000000672,0.1352593981518773,0.2012126724902104
7.200000000000739,0.13566727904500386,0.21153674806990974
7.400000000000806,0.14077470031012707,0.21601955649280052
7.600000000000873,0.14459334836644802,0.22470851754304275
7.8000000000009395,0.14551647879819718,0.23630613561152125
8.000000000001005,0.14288439613972434,0.24986599629802586
8.200000000000895,0.13995939534623117,0.262356533981412
8.400000000000784,0.1364332832054364,0.2788098168794537
8.600000000000673,0.13735371967786986,0.2859613401875344
8.800000000000562,0.13743651990049302,0.2944437722825866
9.000000000000451,0.13660924654627138,0.3045629514998093
9.20000000000034,0.13379859119679618,0.31762313253225116
9.40000000000023,0.1301658838218546,0.3312780338405384
9.600000000000119,0.13036336596670794,0.3378492941469072
9.800000000000008,0.12746687400343543,0.34949124739811377
10.000999999999896,0.12243056803333713,0.36389993493145445
10.200999999999786,0.1205613736290308,0.37466386956943765
10.400999999999675,0.1134154543336867,0.3891392863521549
10.600999999999564,0.10867065269075742,0.40168035923888434
10.800999999999453,0.10513296418245396,0.41358395257847536
11.000999999999342,0.1009715309788186,0.42491134323853513
11.200999999999231,0.0954217116303955,0.436076660303699
11.40099999999912,0.08751412703364589,0.4496849720547829
11.60099999999901,0.08113703131885018,0.4632744727010341
11.800999999998899,0.07133785089493563,0.4754691278868896
12.000999999998788,0.06277265483826752,0.4901016460370297
12.200999999998677,0.0516065979890662,0.5051144056880504
12.400999999998566,0.04475569409072366,0.5163944278069408
12.600999999998455,0.035786638938702785,0.5257204348422734
12.800999999998345,0.03059121279694677,0.5356086363238843
13.000999999998234,0.019918179187343208,0.5470795712208725
13.200999999998123,0.00770438051588535,0.5577131443396175
13.400999999998012,-0.004320243694124695,0.5642599760709999
13.600999999997901,-0.012857894505706036,0.5685242009502549
13.80099999999779,-0.022373484454149283,0.5735221670892636
14.00099999999768,-0.0304435436025447,0.5788309438582796
14.200999999997569,-0.04251131476259431,0.5816898093555644
14.400999999997458,-0.06065750400602451,0.5837822046183977
14.600999999997347,-0.07072912641789722,0.5909720951049783
14.800999999997236,-0.07671246350237389,0.5974590467689719
15.000999999997125,-0.08542483743959726,0.6020006339444646
15.200999999997014,-0.09605367465551216,0.6054066348240137
15.400999999996904,-0.1101093547089722,0.6074296263253722
15.600999999996793,-0.12018250511479811,0.6100254538828355
15.800999999996682,-0.12758748974548514,0.6141542446199874
16.000999999996573,-0.14103700934930957,0.6163039294850295
16.200999999996817,-0.14873580166051267,0.6184410356143281
16.40099999999706,-0.16070027512379123,0.619413908258177
16.600999999997306,-0.17441342344945782,0.6206828348670371
16.80099999999755,-0.18637197852591383,0.6235940033701122
17.000999999997795,-0.19763038659502571,0.6252133995947006
17.20099999999804,-0.2057908467610017,0.6245656468525258
17.400999999998284,-0.21249264006122645,0.625187485015458
17.60099999999853,-0.22639783564401839,0.6242094561740104
17.800999999998773,-0.24421720261720084,0.6209721479073298
18.000999999999017,-0.25602647919232124,0.6193047715999691
18.20099999999926,-0.2658384177390494,0.6176101014062803
18.400999999999506,-0.27647056716984075,0.6144140442347594
18.60099999999975,-0.2864303688611219,0.6100925466944472
18.799999999999994,-0.29775546085757465,0.607082492588888
19.000000000000238,-0.31286225727481204,0.6030010385399346
19.200000000000482,-0.32214936963009005,0.6026986387238829
19.400000000000727,-0.33354490784148877,0.5993665565049975
19.60000000000097,-0.34634781543741316,0.5952950491250809
19.800000000001216,-0.3600035521544688,0.5894033384771118
20.00000000000146,-0.3729077844379511,0.5834831248680998
