Time (s),X (m),Y (m)
0.001,0.0012131848191356664,0.000663019509439443
0.20000000000000015,0.0008102089171975415,-9.828181651184829e-05
0.4000000000000003,0.004524861841974331,-0.0010658669903763813
0.6000000000000004,0.007905543935371916,-0.00027251502220676987
0.8000000000000006,0.008599005081721414,-0.001930973799375452
1.0000000000000007,0.007656951967156422,-0.009086676144993248
1.2009999999999785,0.015053000168328915,-0.004340341402093567
1.4009999999999565,0.03155291872376369,0.002900022285156057
1.6009999999999345,0.0398989794298532,0.008280761311865474
1.8009999999999124,0.046978825391520866,0.009983560765698294
2.0009999999998906,0.05699550964463655,0.01714835939939595
2.2009999999998686,0.06857246745991238,0.021910321068443882
2.4009999999998466,0.07859937890269883,0.029382973928009537
2.6009999999998246,0.08612457879932511,0.039010547933892824
2.8009999999998025,0.09616047716570958,0.05338193631487058
3.0009999999997805,0.1079585447822924,0.05518964279749767
3.2009999999997585,0.11958476541093632,0.06560757564968821
3.4009999999997365,0.13179732034798014,0.07028346581361593
3.6009999999997144,0.1437741693054424,0.08776800676751983
3.8009999999996924,0.15343744127033726,0.10772425684479374
4.000999999999671,0.16117598539315853,0.11190924639437269
4.200999999999738,0.16717713244761057,0.11980518354668007
4.400999999999804,0.1760734323718156,0.139898948599914
4.600999999999871,0.1878865242257683,0.16110931066941594
4.800999999999938,0.2040361520099298,0.17176108260013376
5.000000000000004,0.22216669939937433,0.18240337922190158
5.200000000000071,0.23527462285454953,0.1948225234703079
5.400000000000138,0.23932839663719915,0.2166581208136875
5.600000000000205,0.2433142636455679,0.2349487067583722
5.800000000000272,0.2483945857187887,0.2549207449357529
6.000000000000338,0.25426067213780446,0.2764527386646621
6.200000000000405,0.2579002010678518,0.29955052566565366
6.400000000000472,0.2617424368770216,0.31700967324340756
6.600000000000539,0.2642878195605562,0.34063970977042
6.800000000000606,0.2655123611453273,0.36181481678412925
7.000000000000672,0.2689827862287864,0.38865451300728354
7.200000000000739,0.2733234947302666,0.4084855541700414
7.400000000000806,0.2792064722217874,0.4254589895992121
7.600000000000873,0.28088135594647773,0.4499626684489116
7.8000000000009395,0.27995062633470474,0.47717859013529407
8.000000000001005,0.27852865109973207,0.49998411019171196
8.200000000000895,0.274873118050145,0.5261676020216257
8.400000000000784,0.2714421445228184,0.5538555488085226
8.600000000000673,0.2647885512081583,0.5861719948801833
8.800000000000562,0.2603548050605855,0.6094398758820709
9.000000000000451,0.25563703190996334,0.6351246441331443
9.20000000000034,0.2569604274133943,0.6535689246153817
9.40000000000023,0.26636960041401914,0.6715711037591053
9.600000000000119,0.28650962155180204,0.6866984179792992
9.800000000000008,0.3082127564127726,0.7002955786306829
10.000999999999896,0.3255024698444263,0.721877337872857
10.200999999999786,0.3428375493237662,0.7424097349153526
10.400999999999675,0.3588255955918015,0.7632235799573145
10.600999999999564,0.37464493541378485,0.7880560918347498
10.800999999999453,0.38934937327051794,0.7980209712309747
11.000999999999342,0.4035071530911323,0.8155415630168713
11.200999999999231,0.4178062247666757,0.8400219633352115
11.40099999999912,0.43129692743428155,0.8676711646275689
11.60099999999901,0.44698961773944756,0.8840960266968562
11.800999999998899,0.45859858854315355,0.9049770343228416
12.000999999998788,0.46564994267654114,0.9355498630224526
12.200999999998677,0.4721407252366587,0.9650295817696533
12.400999999998566,0.4726464138915175,0.9935867599511112
12.600999999998455,0.4671097266826686,1.0132120078940976
12.800999999998345,0.46751955936437034,1.0307300118326255
13.000999999998234,0.4680294920672314,1.0549333010269075
13.200999999998123,0.4656074297521827,1.0873196392262447
13.400999999998012,0.4560557888615451,1.1178116574007393
13.600999999997901,0.45190072560404265,1.1514004456736375
13.80099999999779,0.4402397019668566,1.18714312733407
14.00099999999768,0.4199382226051085,1.2274560891610613
14.200999999997569,0.4067684933931259,1.2616937167772626
14.400999999997458,0.39867691245448184,1.290918755604721
14.600999999997347,0.38755822580432286,1.321970198769563
14.800999999997236,0.36963630072284637,1.3538357549254145
15.000999999997125,0.3439928431935588,1.3800758264463902
15.200999999997014,0.3197935506064944,1.4026593619727552
15.400999999996904,0.29915306541884207,1.4288135008800613
15.600999999996793,0.2708276065602258,1.4536230184582086
15.800999999996682,0.2475838340144422,1.4794376860779004
16.000999999996573,0.23092137973124227,1.5083978367923956
16.200999999996817,0.2110548845144655,1.5381431400784087
16.40099999999706,0.19478114125344909,1.5638788491646543
16.600999999997306,0.17102011537327977,1.5854677518362306
16.80099999999755,0.14021783289293163,1.6009070582581455
17.000999999997795,0.10694300272189293,1.6121295002706526
17.20099999999804,0.08039409290039602,1.619983980480155
17.400999999998284,0.05000681967619154,1.6354528070618293
17.60099999999853,0.02553759607068779,1.6628777630197995
17.800999999998773,0.006751325622025682,1.693618488575872
18.000999999999017,-0.025650905910511865,1.7302784097748214
18.20099999999926,-0.05967021954570625,1.7659798674855731
18.400999999999506,-0.08548127942395774,1.7991152421302545
18.60099999999975,-0.11493596122828775,1.8186364401282509
18.799999999999994,-0.14287846465801074,1.827406473934013
19.000000000000238,-0.17554021040757578,1.828386021129038
19.200000000000482,-0.21186182919913807,1.824991934822372
19.400000000000727,-0.24025763283638235,1.8212979622474597
19.60000000000097,-0.27382092642898276,1.8200548864216775
19.800000000001216,-0.3106926860211943,1.824017931605272
20.00000000000146,-0.3458750249672083,1.8356385785768
