Time (s),X (m),Y (m)
0.001,-0.00042190612164786544,-0.0005916298972236683
0.20000000000000015,0.0011439130215363134,0.00021389850893956033
0.4000000000000003,0.0025547299836089373,0.0006432643121579714
0.6000000000000004,0.006421725959548641,0.003254779361611114
0.8000000000000006,0.01150851028222684,0.006709590011763
1.0000000000000007,0.013644207995393797,0.006759423751973485
1.2009999999999785,0.017524088799981918,0.008715751811578328
1.4009999999999565,0.02095868393751889,0.008408865757200918
1.6009999999999345,0.03107760332579806,0.01379048592033725
1.8009999999999124,0.034791697088472406,0.017587728461002552
2.0009999999998906,0.0382150792532522,0.02170240026452729
2.2009999999998686,0.04033344777830087,0.02215686760123748
2.4009999999998466,0.042681909447865755,0.026937320188007655
2.6009999999998246,0.04812258539077431,0.03429725615033402
2.8009999999998025,0.05864607107227738,0.05017321273751734
3.0009999999997805,0.06828003975362064,0.06270147771310633
3.2009999999997585,0.07834241665177606,0.0729427709519678
3.4009999999997365,0.08463997566520134,0.0777122503350188
3.6009999999997144,0.09196493659289179,0.09576128511634835
3.8009999999996924,0.10244146477992534,0.11083667132440271
4.000999999999671,0.11010099867466877,0.11748898830022758
4.200999999999738,0.11791780060472311,0.13330137182501792
4.400999999999804,0.12231807070873402,0.14143031182185084
4.600999999999871,0.13094008176734603,0.149443130158585
4.800999999999938,0.13977716696153247,0.1686853164109555
5.000000000000004,0.1457223846936141,0.19143239975943263
5.200000000000071,0.15051808127712848,0.21018718942692607
5.400000000000138,0.15785460292131043,0.22886692882710558
5.600000000000205,0.16596358852548712,0.24797585017613788
5.800000000000272,0.1744352306772699,0.2598406373456521
6.000000000000338,0.1839033343669302,0.2711878526973652
6.200000000000405,0.19284083617131553,0.28578743082724645
6.400000000000472,0.200232331607431,0.2914922368959278
6.600000000000539,0.20028094221061807,0.2955898257520282
6.800000000000606,0.1976012024400315,0.30068185929695346
7.000000000000672,0.19459220247581932,0.31370770197911635
7.200000000000739,0.19442755745163456,0.32984182942552276
7.400000000000806,0.19469170797766588,0.3485394460719423
7.600000000000873,0.19235202305607121,0.373207516585056
7.8000000000009395,0.18963428676734423,0.40056760415313036
8.000000000001005,0.18579432472955665,0.41853173837251456
8.200000000000895,0.18390690480591032,0.4397121291436397
8.400000000000784,0.18212217166089345,0.45473416910010267
8.600000000000673,0.18040513412083528,0.47411260330933386
8.800000000000562,0.1801879325899623,0.49068318462790084
9.000000000000451,0.18104346980903838,0.5098470639842384
9.20000000000034,0.18030547446127487,0.530507482710462
9.40000000000023,0.18024869642822028,0.5513825210646194
9.600000000000119,0.17977815307253314,0.5769773968270127
9.800000000000008,0.17934889640645146,0.5934694192552572
10.000999999999896,0.17682148610887907,0.6028337240584012
10.200999999999786,0.17218520495515738,0.6192789109461594
10.400999999999675,0.1674969878832486,0.6373229877746306
10.600999999999564,0.16375349923103932,0.6561908354571825
10.800999999999453,0.16283739366750427,0.6671469108076874
11.000999999999342,0.1642248119091889,0.6815368429524679
11.200999999999231,0.16124140992188815,0.7003252138026227
11.40099999999912,0.155131714435366,0.7222536467710776
11.60099999999901,0.14990535739723485,0.7410710168239778
11.800999999998899,0.14403664950297299,0.7648862240479245
12.000999999998788,0.13842655405475923,0.7831032158162429
12.200999999998677,0.1280374035782163,0.8021316799276148
12.400999999998566,0.11986117486349339,0.815109617551132
12.600999999998455,0.10607720102288813,0.829694141281895
12.800999999998345,0.09727503979270474,0.8491549466809037
13.000999999998234,0.08447714831034708,0.8694598065011206
13.200999999998123,0.07191721574777295,0.8884296579956378
13.400999999998012,0.06340852880045189,0.9065642359452327
13.600999999997901,0.05742514760235592,0.9237996108001595
13.80099999999779,0.05322338507598961,0.9384131801768247
14.00099999999768,0.028057634861895362,0.9535408758105764
14.200999999997569,0.002708910315576878,0.9701413402038721
14.400999999997458,-0.01923041851621776,0.9846731883113661
14.600999999997347,-0.04167241317020932,0.9990107941170034
14.800999999997236,-0.06071218670207359,1.0125016624901753
15.000999999997125,-0.0818882276306947,1.02024074611581
15.200999999997014,-0.10917170060175894,1.0251788064639291
15.400999999996904,-0.13433005792635075,1.0284698106925299
15.600999999996793,-0.15302776725960496,1.0344584992633403
15.800999999996682,-0.17995252841870438,1.0371967421976955
16.000999999996573,-0.21287761119529441,1.0359673169900627
16.200999999996817,-0.23868538199217354,1.034049959420947
16.40099999999706,-0.26283035958866974,1.0329616807923716
16.600999999997306,-0.2823997181336947,1.0363004402827314
16.80099999999755,-0.30410202235158373,1.038826797140648
17.000999999997795,-0.33951604417889947,1.0362751598972932
17.20099999999804,-0.3628020888000032,1.0356390495423424
17.400999999998284,-0.3863989366872638,1.0352442499420242
17.60099999999853,-0.407497796613302,1.0367831390583007
17.800999999998773,-0.43448222311206514,1.035561789791629
18.000999999999017,-0.4596442021766436,1.0328312331158391
18.20099999999926,-0.48216732879176205,1.0311279042272479
18.400999999999506,-0.5077948455611246,1.031840168647592
18.60099999999975,-0.5286097561577582,1.0346132416415543
18.799999999999994,-0.5478467108827949,1.0339743983213625
19.000000000000238,-0.5749499204521364,1.0319046814145334
19.200000000000482,-0.5940933818417358,1.0318807117514013
19.400000000000727,-0.6184896564982271,1.0261594275676
19.60000000000097,-0.6362738609486268,1.0236936835980255
19.800000000001216,-0.6528626095763825,1.022216197645648
20.00000000000146,-0.6749920840901446,1.020159569831788
