Time (s),X (m),Y (m)
0.001,0.00015606349793537,-0.0009963285817120471
0.20000000000000015,0.0012331187656604591,0.0007513436078736443
0.4000000000000003,0.004123718942856884,0.0021915231116557067
0.6000000000000004,0.010197481832634171,0.0008781095090539175
0.8000000000000006,0.01850643086659942,-0.00576696840635331
1.0000000000000007,0.02416186325916085,-0.005964649242096692
1.2009999999999785,0.03274475715424927,-0.00022091272212535593
1.4009999999999565,0.041325817944934944,-0.002001494345576629
1.6009999999999345,0.052186683231786046,-0.0008223840652980646
1.8009999999999124,0.06715325306569893,0.005998881948299567
2.0009999999998906,0.0804440516753629,0.019211986466670772
2.2009999999998686,0.08925757563153114,0.021414471717527923
2.4009999999998466,0.09939561186697511,0.013535791360532115
2.6009999999998246,0.11495122134202489,0.014627207444923547
2.8009999999998025,0.13572066190777854,0.02618400358497341
3.0009999999997805,0.15146386591943722,0.03354925686485991
3.2009999999997585,0.16855954041541563,0.03871167287092125
3.4009999999997365,0.18572699983483384,0.04285661433491348
3.6009999999997144,0.20361202935647674,0.03246713820032373
3.8009999999996924,0.21731154936841218,0.024489323465586094
4.000999999999671,0.22293282665099817,0.018480950655047502
4.200999999999738,0.23524786679947832,0.02062861112789241
4.400999999999804,0.25233905062912976,0.0270513218666548
4.600999999999871,0.2743992603446412,0.029589368486664765
4.800999999999938,0.29644388374467656,0.03315148026865275
5.000000000000004,0.31754647067980984,0.03972978713834653
5.200000000000071,0.3434118390729654,0.04598867545952424
5.400000000000138,0.36048874581382484,0.04411631696329881
5.600000000000205,0.37722430073076735,0.05375383353160089
5.800000000000272,0.39786841219449737,0.06659935311697884
6.000000000000338,0.4157806906450455,0.07330933817816956
6.200000000000405,0.44106525073225916,0.0833377758044708
6.400000000000472,0.4683563420022721,0.09096289299658178
6.600000000000539,0.4925938064184334,0.09455276027210897
6.800000000000606,0.5164140923295012,0.10012359221074896
7.000000000000672,0.5403375452471727,0.10278313583164962
7.200000000000739,0.5642299517663476,0.10623432905657085
7.400000000000806,0.5865079326504488,0.10867306960062235
7.600000000000873,0.6086595494999343,0.10354361978921507
7.8000000000009395,0.6239771348757799,0.1002657020066847
8.000000000001005,0.6385791351262795,0.08790854227328866
8.200000000000895,0.6598969911127169,0.09133958689247648
8.400000000000784,0.6871278454817037,0.10520696476150614
8.600000000000673,0.7156987474037553,0.12253052160452804
8.800000000000562,0.7427912795527319,0.13571789299335155
9.000000000000451,0.767684439859578,0.14930536059348593
9.20000000000034,0.7939335108471989,0.16387404261011732
9.40000000000023,0.8220851913632854,0.17812759012175639
9.600000000000119,0.8482159745912631,0.18525249368018393
9.800000000000008,0.8729962391018773,0.1854069793265735
10.000999999999896,0.8996210417886825,0.18196559276119983
10.200999999999786,0.9238453610897112,0.18373065821712226
10.400999999999675,0.9501156599098984,0.18128777206961214
10.600999999999564,0.9735207002664162,0.1783478829196108
10.800999999999453,1.0106589957642444,0.18584329793858698
11.000999999999342,1.039192700681123,0.18707694092916574
11.200999999999231,1.0626672323823292,0.18407969694099843
11.40099999999912,1.0872515294300895,0.17565896151714053
11.60099999999901,1.1074641686542246,0.16976527068015435
11.800999999998899,1.124373156297678,0.16026458399823737
12.000999999998788,1.1490106041248795,0.15866668341419096
12.200999999998677,1.1749712233435732,0.15384152849709404
12.400999999998566,1.2070412631345533,0.15086836186827507
12.600999999998455,1.242888440346323,0.15404517185630487
12.800999999998345,1.2759942362101682,0.15599224475286316
13.000999999998234,1.3141121647994414,0.1612159836565832
13.200999999998123,1.346249033572259,0.15250108318221606
13.400999999998012,1.3631273262011918,0.13853738000195892
13.600999999997901,1.3827068089701344,0.12027104643462709
13.80099999999779,1.401611335253975,0.10119765030443564
14.00099999999768,1.415450846711872,0.08770908869328527
14.200999999997569,1.4371842185825643,0.07952866973617383
14.400999999997458,1.4523150585982123,0.06586960403140256
14.600999999997347,1.4637686441374214,0.05090717315556839
14.800999999997236,1.4690278610768976,0.03660204241446054
15.000999999997125,1.483335447498,0.02048300939322229
15.200999999997014,1.4939189731786433,0.0019370558678488221
15.400999999996904,1.5150005943764464,-0.014316716806884278
15.600999999996793,1.5400520877261683,-0.027240287795906353
15.800999999996682,1.5453649410717645,-0.04305540317067333
16.000999999996573,1.5560845629065112,-0.06021316789793434
16.200999999996817,1.5711821002665267,-0.08430163338254255
16.40099999999706,1.5707394509275032,-0.11176625006193469
16.600999999997306,1.5707635790182004,-0.13958469744354443
16.80099999999755,1.5730497126918075,-0.16560345221628545
17.000999999997795,1.5790064265192536,-0.19320089051110803
17.20099999999804,1.580030006767943,-0.21804236693350385
17.400999999998284,1.5860815203971603,-0.2423895485687127
17.60099999999853,1.6021483316740606,-0.2646583539614367
17.800999999998773,1.6157439645132572,-0.2886116135342384
18.000999999999017,1.6318411010936107,-0.31635204280457474
18.20099999999926,1.6409461824246594,-0.343241604906078
18.400999999999506,1.6425449355409576,-0.3690821849251519
18.60099999999975,1.6325016582495944,-0.393723181328833
18.799999999999994,1.6478292006826296,-0.4154900239164039
19.000000000000238,1.6561628374366084,-0.4342949239610722
19.200000000000482,1.670787204620641,-0.4507123253118008
19.400000000000727,1.6900153550080645,-0.46489640175465113
19.60000000000097,1.7105758347862114,-0.485083250123289
19.800000000001216,1.72761457779707,-0.5045559263982169
20.00000000000146,1.7471384703993147,-0.520726254672819
