Time (s),X (m),Y (m)
0.001,0.001086048446240603,-0.0007901558823345071
0.20000000000000015,0.0008337751747046482,-1.9658777332877266e-05
0.4000000000000003,0.0026172929467105873,1.4592931507503404e-05
0.6000000000000004,0.002978084054267739,0.0022994251393106038
0.8000000000000006,0.002847374193811156,0.005369138487428431
1.0000000000000007,0.0026112726949694023,0.00854891559202445
1.2009999999999785,0.008340044115561876,0.004637592804523561
1.4009999999999565,0.012436275462409814,0.0025208737784146386
1.6009999999999345,0.016768129848105395,0.0011327303645628187
1.8009999999999124,0.02600120946308419,0.001265132135681997
2.0009999999998906,0.03583495768185747,-0.0015794769086148793
2.2009999999998686,0.05505077001182971,-0.01066909046993029
2.4009999999998466,0.07378697512818942,-0.016755887312674578
2.6009999999998246,0.08079696558070078,-0.017533936092379656
2.8009999999998025,0.08773964454939831,-0.02090525212955827
3.0009999999997805,0.09907996920387731,-0.01639737839171799
3.2009999999997585,0.108262602366195,-0.012426049457091045
3.4009999999997365,0.1202285207420036,-0.01387218603312633
3.6009999999997144,0.12642571508719352,-0.012526705876945553
3.8009999999996924,0.1356660777827948,-0.01255913440192335
4.000999999999671,0.14330416569158494,-0.005672484012854313
4.200999999999738,0.1473035225278599,0.002856606743487417
4.400999999999804,0.1576550569919124,0.004579377621662499
4.600999999999871,0.17213134171911945,0.002908678701164017
4.800999999999938,0.18628115289802932,-0.0021605882100632643
5.000000000000004,0.1925457385313455,-0.0018808831881755358
5.200000000000071,0.19707543357106425,-0.000767421242430758
5.400000000000138,0.20503536020413338,0.0005456937618135292
5.600000000000205,0.21053495740942926,-0.004278163740693639
5.800000000000272,0.22078637450948976,-0.007927302187436439
6.000000000000338,0.23299779610071739,-0.008697067133656701
6.200000000000405,0.24097564780089445,-0.00427784533936734
6.400000000000472,0.24822742712981435,0.00381736894199383
6.600000000000539,0.26541605099802346,0.0025935881805787546
6.800000000000606,0.2802205456145669,0.003530010451473782
7.000000000000672,0.2875468047164124,0.011623319548589849
7.200000000000739,0.30028950985046177,0.01831684325212908
7.400000000000806,0.31412533702409345,0.02212792795781834
7.600000000000873,0.32251052442661277,0.02623134597012573
7.8000000000009395,0.32134173676739786,0.03342926624431054
8.000000000001005,0.3299197252613069,0.04123142614657983
8.200000000000895,0.3434056535152909,0.04769385580493952
8.400000000000784,0.35290461638691484,0.05116642490686315
8.600000000000673,0.35701020399275357,0.052483275339694026
8.800000000000562,0.3746689747461255,0.052930577191069875
9.000000000000451,0.38377882246687767,0.053753846215692506
9.20000000000034,0.3922901238190251,0.05833925302482439
9.40000000000023,0.4084551282871241,0.0579275194103555
9.600000000000119,0.41772112079270307,0.0577582333338672
9.800000000000008,0.4254669518467767,0.06082261993436135
10.000999999999896,0.4372038267569753,0.06552199351186308
10.200999999999786,0.4483533000408526,0.06516801273805103
10.400999999999675,0.45211141221214846,0.07174376944340326
10.600999999999564,0.4556243074505463,0.07836921876073871
10.800999999999453,0.464274126738292,0.08639908434026582
11.000999999999342,0.4710798052147688,0.0930420386853802
11.200999999999231,0.48574651478447123,0.09786097557916106
11.40099999999912,0.502647151802423,0.10173516548133214
11.60099999999901,0.5209108878782156,0.10441766389222669
11.800999999998899,0.5347712820533824,0.11173931609695746
12.000999999998788,0.5419462101459429,0.1153682804538656
12.200999999998677,0.5479184550443839,0.11957599217546783
12.400999999998566,0.5537479675095127,0.1280164339886302
12.600999999998455,0.5572583488685525,0.13488528179761675
12.800999999998345,0.5711589121355066,0.14326456282801653
13.000999999998234,0.5759125552148884,0.15181130387931624
13.200999999998123,0.5822155921453365,0.1584733831838973
13.400999999998012,0.5973576957586985,0.16561160345647497
13.600999999997901,0.6161563943016244,0.17430202579583676
13.80099999999779,0.6303794607354742,0.18441120820682694
14.00099999999768,0.6393185405717806,0.19293818713166544
14.200999999997569,0.650480418337624,0.1997061171155461
14.400999999997458,0.6672130735051428,0.2047623562477441
14.600999999997347,0.6720502504952244,0.21149930530632102
14.800999999997236,0.6776536734139758,0.21653595148572266
15.000999999997125,0.6841922351371047,0.21903178446510754
15.200999999997014,0.6933023899987084,0.22299797366789237
15.400999999996904,0.7031667876319467,0.23356213075814727
15.600999999996793,0.72681996342028,0.2398241030904298
15.800999999996682,0.7488763340889769,0.24112354209179254
16.000999999996573,0.7625410783201221,0.24388305712921884
16.200999999996817,0.7808387571077381,0.247666960384953
16.40099999999706,0.7970137409834608,0.25340793251038796
16.600999999997306,0.8093170843414552,0.2591273140642834
16.80099999999755,0.8228602626214117,0.2652016277621403
17.000999999997795,0.836345048272843,0.2719771604341306
17.20099999999804,0.846760813535597,0.2770009229522186
17.400999999998284,0.8609336601862566,0.27891899257486624
17.60099999999853,0.8727159448291474,0.2803146103344995
17.800999999998773,0.8841085722429795,0.2841881500589512
18.000999999999017,0.9012066356783814,0.2860624107889523
18.20099999999926,0.9170701211341604,0.28664526658205014
18.400999999999506,0.9425066530036597,0.2875861941309124
18.60099999999975,0.9647770691463521,0.2884008230669815
18.799999999999994,0.9781257276128705,0.28655503881329153
19.000000000000238,0.9945385772276161,0.2869613402604126
19.200000000000482,1.0078460295825122,0.2896155144356335
19.400000000000727,1.0238436291849053,0.2913287228200953
19.60000000000097,1.026736313457808,0.2942463680825018
19.800000000001216,1.0418793492887595,0.2938868230873415
20.00000000000146,1.056970777704735,0.29569728311626275
