Time (s),X (m),Y (m)
0.001,-0.0005462407427453492,-0.00035278531233166996
0.20000000000000015,0.0013454205317335864,0.00022948370848170126
0.4000000000000003,0.005320315450983321,0.0014813063628278066
0.6000000000000004,0.007282299651748019,0.004449519944768193
0.8000000000000006,0.015994043811014543,0.010815831866221483
1.0000000000000007,0.020371558472267917,0.017541938271103265
1.2009999999999785,0.031320380265749584,0.022869487013271118
1.4009999999999565,0.040752044326711485,0.028891711362448655
1.6009999999999345,0.05015462511794843,0.04079865614160679
1.8009999999999124,0.05611954236493319,0.04706012686481721
2.0009999999998906,0.06491943735795139,0.05747629353752141
2.2009999999998686,0.07472133407981267,0.0690366659148107
2.4009999999998466,0.08167255487006361,0.0757124706626296
2.6009999999998246,0.09177365886945908,0.08331639905744684
2.8009999999998025,0.09683909648648353,0.09253388044895175
3.0009999999997805,0.10471709169042988,0.10589294433802239
3.2009999999997585,0.11658722704631534,0.124065319620402
3.4009999999997365,0.12950402999543134,0.13697804329745822
3.6009999999997144,0.14690620693516127,0.1544533342337182
3.8009999999996924,0.16831415596222052,0.1773915471451414
4.000999999999671,0.18330180891249487,0.19177100347615963
4.200999999999738,0.19584003642879466,0.20676609043644492
4.400999999999804,0.2061074544754679,0.223358074676802
4.600999999999871,0.21546841775022776,0.24037450201674773
4.800999999999938,0.2218831921430476,0.25415623384138053
5.000000000000004,0.22819133579437284,0.2640758392456492
5.200000000000071,0.23678045081860935,0.27508472625740155
5.400000000000138,0.25100401836091263,0.28910343691598817
5.600000000000205,0.26399687774522285,0.30287648762286234
5.800000000000272,0.27378080815586137,0.3202949773663681
6.000000000000338,0.28777102006346117,0.334191557270927
6.200000000000405,0.2986993607516127,0.3461361663980808
6.400000000000472,0.30799443962188844,0.35192447521051556
6.600000000000539,0.3125916104828825,0.36048816897601343
6.800000000000606,0.31478597534314046,0.3665406814002675
7.000000000000672,0.31782019728466643,0.36942084854900037
7.200000000000739,0.3203631660589124,0.37921410464142946
7.400000000000806,0.3232209905982024,0.3935707474707926
7.600000000000873,0.32359700752293197,0.4129889439836022
7.8000000000009395,0.32350269923223735,0.4348978005818984
8.000000000001005,0.32546554852598936,0.45486084993274295
8.200000000000895,0.3373589722358524,0.4757654094784175
8.400000000000784,0.3502747471024073,0.4913631925848175
8.600000000000673,0.3567289996777056,0.5113847946548264
8.800000000000562,0.3632736357563595,0.5288001628900926
9.000000000000451,0.37193883141844375,0.5481488239670138
9.20000000000034,0.3789000883931222,0.5680392535056369
9.40000000000023,0.385764105411331,0.5882011960013612
9.600000000000119,0.39432918111500503,0.613010277825342
9.800000000000008,0.39939998772244034,0.6357312879723755
10.000999999999896,0.40141913540961693,0.6604893421347896
10.200999999999786,0.4037326067664814,0.6782920495496501
10.400999999999675,0.40586418083162623,0.7032834717317468
10.600999999999564,0.40544407640034724,0.7306382052736158
10.800999999999453,0.4065922100257954,0.7545251404293104
11.000999999999342,0.4096662776578989,0.7768943168441865
11.200999999999231,0.4160004824852626,0.7985169600783387
11.40099999999912,0.42422514732562544,0.8201236282881659
11.60099999999901,0.43121284395649767,0.8434964313823716
11.800999999998899,0.43860042584905234,0.862260244353543
12.000999999998788,0.45060041278066476,0.877320334525119
12.200999999998677,0.46245220530661646,0.8949408222332736
12.400999999998566,0.47096282696344793,0.9150111157924552
12.600999999998455,0.48006505895718876,0.9308523008512312
12.800999999998345,0.4866474461064114,0.9548518663155249
13.000999999998234,0.48701922740842923,0.9809289465010651
13.200999999998123,0.4974697177101448,1.0105840178121195
13.400999999998012,0.5127709852727782,1.0317212910521725
13.600999999997901,0.5188152592562016,1.0538841779471917
13.80099999999779,0.5260843764904157,1.0708820613374432
14.00099999999768,0.529175046869503,1.0962597890519845
14.200999999997569,0.5357065135139671,1.1187065478638858
14.400999999997458,0.5434174164059583,1.145851445162531
14.600999999997347,0.546891301889436,1.1797675625626032
14.800999999997236,0.5526265853042751,1.2093192650541718
15.000999999997125,0.5600838152524857,1.2298752078693493
15.200999999997014,0.5725801633719054,1.2461189770848107
15.400999999996904,0.5842842909592327,1.268657985654803
15.600999999996793,0.5935550146292609,1.2910073254290593
15.800999999996682,0.6050437185683762,1.3074960238019575
16.000999999996573,0.6152827646745648,1.3343063722721236
16.200999999996817,0.6219546929738637,1.3639158415415762
16.40099999999706,0.6340640979564048,1.3964021244793692
16.600999999997306,0.6503392022314309,1.4205004858556356
16.80099999999755,0.662395047104613,1.4455143186914867
17.000999999997795,0.6737608682749437,1.4672831973164873
17.20099999999804,0.6917823523847121,1.4897177830425263
17.400999999998284,0.7065884827051129,1.5090620433723738
17.60099999999853,0.7107224525024338,1.5319141217852537
17.800999999998773,0.7120762264679941,1.5570284856563448
18.000999999999017,0.7148356175330135,1.5838649150045907
18.20099999999926,0.7246797345984165,1.6088459547210794
18.400999999999506,0.7401000994840772,1.6339132829776672
18.60099999999975,0.7595118469537019,1.660829513992693
18.799999999999994,0.7758085232519246,1.687544505948649
19.000000000000238,0.7965660482650307,1.7173160888849024
19.200000000000482,0.8180295344131465,1.7392982213387242
19.400000000000727,0.8358119574609717,1.7578399616612626
19.60000000000097,0.8542026736119412,1.7715480548734321
19.800000000001216,0.8639693348639977,1.789384458960798
20.00000000000146,0.8718032564714225,1.8174254103897232
