Time (s),X (m),Y (m)
0.001,-0.00042190612164786414,0.0005916298972236686
0.20000000000000015,0.0014997696510698666,-0.0007578515569926021
0.4000000000000003,0.0026971191071018872,-0.0015287387340053417
0.6000000000000004,0.008305197796303699,-0.006671566358578182
0.8000000000000006,0.01413022641875005,-0.009271477848547323
1.0000000000000007,0.018212523254275668,-0.006421277415467948
1.2009999999999785,0.023127322296138293,-0.003956506359488182
1.4009999999999565,0.031713545618547015,-0.006014644045170521
1.6009999999999345,0.04450004604971907,-0.011739591703124701
1.8009999999999124,0.05813845478674853,-0.015461283134504787
2.0009999999998906,0.07182223654452394,-0.024170908499090767
2.2009999999998686,0.08116200925006826,-0.032636772552548605
2.4009999999998466,0.09365387169079278,-0.04151674377606777
2.6009999999998246,0.10666203561080231,-0.055021514019520705
2.8009999999998025,0.12092101081106184,-0.07111199862286893
3.0009999999997805,0.13037873198096478,-0.10285200836043244
3.2009999999997585,0.1329603381683028,-0.12214547389799171
3.4009999999997365,0.135443243982042,-0.13884961934521023
3.6009999999997144,0.13308224679932737,-0.15685237804858185
3.8009999999996924,0.12596077965202457,-0.18427839356183756
4.000999999999671,0.11988732759441317,-0.21192443472782002
4.200999999999738,0.11140522734279519,-0.2401962053541444
4.400999999999804,0.11217637986501114,-0.2584404674143196
4.600999999999871,0.10511933168911007,-0.2779976552107897
4.800999999999938,0.09480224355807688,-0.3016202674811387
5.000000000000004,0.08473340593965778,-0.3288929247926331
5.200000000000071,0.08039719890471088,-0.35180422175110015
5.400000000000138,0.07313774098437319,-0.3759565459837929
5.600000000000205,0.06809901598607206,-0.40695489000731455
5.800000000000272,0.05770738343959906,-0.43853311156789165
6.000000000000338,0.04698910613336017,-0.46898925517094336
6.200000000000405,0.04303858156426035,-0.4931361513710641
6.400000000000472,0.03281644507713635,-0.5209539880866353
6.600000000000539,0.02770095435165418,-0.5451205996019539
6.800000000000606,0.017229311613855422,-0.5752070837697862
7.000000000000672,0.006959517009655475,-0.6049709858139004
7.200000000000739,-0.0047712324786759915,-0.6328426649891373
7.400000000000806,-0.012977506938784533,-0.6612310841629072
7.600000000000873,-0.02140590095025402,-0.6908467106849941
7.8000000000009395,-0.0258167153589273,-0.717671934084938
8.000000000001005,-0.027117141980894953,-0.7424593456384542
8.200000000000895,-0.03774410262200995,-0.7734544402708297
8.400000000000784,-0.05226652877081883,-0.8061268192769309
8.600000000000673,-0.060751241356103346,-0.8327771991470808
8.800000000000562,-0.06567692410985328,-0.8576761731141245
9.000000000000451,-0.06602596838567484,-0.8818328152534152
9.20000000000034,-0.0699931307979669,-0.9070615054026346
9.40000000000023,-0.07644398343423571,-0.937527722412383
9.600000000000119,-0.07967913127087299,-0.9581963871441315
9.800000000000008,-0.08111785995888597,-0.9803286250352207
10.000999999999896,-0.08351580843960003,-1.0073734226259432
10.200999999999786,-0.0914995503928032,-1.031642641864621
10.400999999999675,-0.09305488280249744,-1.0552781275171843
10.600999999999564,-0.09909386805686314,-1.0785874304450904
10.800999999999453,-0.11044077875935174,-1.110786092682591
11.000999999999342,-0.12251507196370957,-1.1443619793522581
11.200999999999231,-0.12335028040290606,-1.172154216844141
11.40099999999912,-0.13602293305266605,-1.210894273786545
11.60099999999901,-0.14439329726182604,-1.2482432906770449
11.800999999998899,-0.1499833713088567,-1.2767684408124853
12.000999999998788,-0.15976704656749438,-1.3036780942531865
12.200999999998677,-0.16612860622689662,-1.3314507986103477
12.400999999998566,-0.17646210723173134,-1.3673134838558658
12.600999999998455,-0.18148006845855066,-1.4000627602862479
12.800999999998345,-0.18187717418635918,-1.4359761508158786
13.000999999998234,-0.18959289823952652,-1.4751314405230274
13.200999999998123,-0.21144248900460258,-1.5176642736972918
13.400999999998012,-0.22815932237955036,-1.5598211283443513
13.600999999997901,-0.22466409130035905,-1.5878424060398573
13.80099999999779,-0.22677549392004767,-1.6182930546312921
14.00099999999768,-0.23242848103037372,-1.6476009983508844
14.200999999997569,-0.2449219219693112,-1.6800823618131298
14.400999999997458,-0.2717462985519059,-1.7179313414832718
14.600999999997347,-0.28986927321035133,-1.753929293175138
14.800999999997236,-0.3103362315272393,-1.7815641089388674
15.000999999997125,-0.3322304724571937,-1.8008104347195193
15.200999999997014,-0.3571499401070075,-1.8205584174866645
15.400999999996904,-0.38831551619808996,-1.8350478239153436
15.600999999996793,-0.43208942982569304,-1.8390081963298792
15.800999999996682,-0.47948870217038075,-1.8297210414490972
16.000999999996573,-0.5203754577326327,-1.8207349488827722
16.200999999996817,-0.5589296920598728,-1.818954074509278
16.40099999999706,-0.5928068824930229,-1.808153475974103
16.600999999997306,-0.6318032880424934,-1.7897938146298107
16.80099999999755,-0.6691335588873625,-1.7768780253170966
17.000999999997795,-0.7121481095140484,-1.7604920782008366
17.20099999999804,-0.7493773910103044,-1.7443150347624248
17.400999999998284,-0.7853244463209688,-1.734277153161199
17.60099999999853,-0.825943165413662,-1.7129164395755867
17.800999999998773,-0.8664040511916898,-1.685312200303664
18.000999999999017,-0.9060482022958424,-1.6533203517499682
18.20099999999926,-0.9340533624107016,-1.6131111831735856
18.400999999999506,-0.9500812175724991,-1.590671921668622
18.60099999999975,-0.9571119401801654,-1.5560483380331782
18.799999999999994,-0.9607252835205836,-1.5206285175892897
19.000000000000238,-0.9536812698575938,-1.4731918350691053
19.200000000000482,-0.9451910057257589,-1.4346716678408733
19.400000000000727,-0.9350167343270686,-1.401353036900353
19.60000000000097,-0.9261297750357319,-1.3657726750796269
19.800000000001216,-0.9170990385911179,-1.3304276160919641
20.00000000000146,-0.8947004151801587,-1.2907488586115086
