Time (s),X (m),Y (m)
0.001,0.001392298616347667,-0.0003527853123316693
0.20000000000000015,0.00025236643127562135,0.00028182282822168355
0.4000000000000003,0.0037549433377867735,-0.0030559563618525755
0.6000000000000004,0.008035104913163352,-0.0075911729273848635
0.8000000000000006,0.018882953996858826,-0.01613900218601426
1.0000000000000007,0.04195687232887764,-0.034262133883065454
1.2009999999999785,0.061996322226564725,-0.04745830780570852
1.4009999999999565,0.07701985504853215,-0.05828865359886312
1.6009999999999345,0.09641954134547202,-0.06873045270581321
1.8009999999999124,0.11310526982881311,-0.07366964660390994
2.0009999999998906,0.13073226048408768,-0.07857592032690747
2.2009999999998686,0.14490671178742204,-0.08714542085061018
2.4009999999998466,0.1585279412401603,-0.09019585314937484
2.6009999999998246,0.177060660122356,-0.10688757523286166
2.8009999999998025,0.19207602748640704,-0.11814019327178078
3.0009999999997805,0.2045408245563439,-0.14363691588219502
3.2009999999997585,0.21332382166582825,-0.17019232242196303
3.4009999999997365,0.21094113207254733,-0.19731513747113383
3.6009999999997144,0.2009209238045489,-0.22546034132106324
3.8009999999996924,0.1898286868032033,-0.24622164943181699
4.000999999999671,0.1644334972460634,-0.2820516026135704
4.200999999999738,0.1351808419216424,-0.3256241404150655
4.400999999999804,0.10550030857846594,-0.3733826167832935
4.600999999999871,0.07984152830920911,-0.4098116136276777
4.800999999999938,0.061280419383155475,-0.44250144742222175
5.000000000000004,0.051987189264902194,-0.4662482493153054
5.200000000000071,0.042512012453214065,-0.48771676091966387
5.400000000000138,0.02349356309911998,-0.5199324597350545
5.600000000000205,0.004447278850471787,-0.5527800490225793
5.800000000000272,-0.018516247211767752,-0.5870652700592859
6.000000000000338,-0.03764720923128199,-0.6162385008536125
6.200000000000405,-0.059874045145772714,-0.6488716190109073
6.400000000000472,-0.09059523516447814,-0.6891652112125282
6.600000000000539,-0.11101035499934045,-0.727248847220445
6.800000000000606,-0.12726693131458963,-0.7672920440036514
7.000000000000672,-0.1443110878196812,-0.811576690200241
7.200000000000739,-0.16440553332190222,-0.8562498729805919
7.400000000000806,-0.18908793758548942,-0.8972712946138754
7.600000000000873,-0.21455457865669558,-0.9203725442745724
7.8000000000009395,-0.24122900185784982,-0.9243421877845885
8.000000000001005,-0.27189931913933285,-0.9230775480099089
8.200000000000895,-0.3094112792272073,-0.9187121986837828
8.400000000000784,-0.3443592636137222,-0.9063282326597177
8.600000000000673,-0.3755829643789892,-0.8911720145836032
8.800000000000562,-0.4085034425857404,-0.876462672074732
9.000000000000451,-0.445455959848342,-0.8622786765939237
9.20000000000034,-0.4826453338886365,-0.8443403898222184
9.40000000000023,-0.5141562976540758,-0.8278592046608603
9.600000000000119,-0.5493371180261076,-0.8105524316438587
9.800000000000008,-0.5815925731652674,-0.7949212337024424
10.000999999999896,-0.62315308039073,-0.7777568385575588
10.200999999999786,-0.668805112007841,-0.7564152533394557
10.400999999999675,-0.7177315718850245,-0.7378981423654921
10.600999999999564,-0.7635079435804412,-0.7205916952406936
10.800999999999453,-0.8041380829547747,-0.7018337448547337
11.000999999999342,-0.8443458756154382,-0.68695767445127
11.200999999999231,-0.8753463865586856,-0.6757680366286993
11.40099999999912,-0.9102335217304052,-0.6604650250511594
11.60099999999901,-0.9466555895289068,-0.6439093560840677
11.800999999998899,-0.9891274834760099,-0.6254543942680604
12.000999999998788,-1.033976761243464,-0.6073527072477548
12.200999999998677,-1.0767456380566338,-0.582788393157541
12.400999999998566,-1.1084368159863764,-0.5693328918594899
12.600999999998455,-1.1305713796722423,-0.5519741172114387
12.800999999998345,-1.154464647983549,-0.5256741359521063
13.000999999998234,-1.1754501887034994,-0.4922493213706718
13.200999999998123,-1.1876299453515167,-0.4602489658559472
13.400999999998012,-1.1865586620808777,-0.4266857878624063
13.600999999997901,-1.1854554528780452,-0.3980714626836259
13.80099999999779,-1.1812794051978972,-0.36380992420302594
14.00099999999768,-1.1680355724593505,-0.3248001138846524
14.200999999997569,-1.1430505671836964,-0.27370370689000606
14.400999999997458,-1.1236302921365133,-0.2243964485552736
14.600999999997347,-1.1081847928272373,-0.17697539854938224
14.800999999997236,-1.0905464772436757,-0.13743783213055902
15.000999999997125,-1.0685913943667378,-0.0891985219042002
15.200999999997014,-1.046362856427881,-0.041932275033581455
15.400999999996904,-1.0262802897461296,0.008871792016014814
15.600999999996793,-1.014160898354292,0.053499690047688384
15.800999999996682,-0.9917968322690256,0.100200839027764
16.000999999996573,-0.9706682724235305,0.1433803944071721
16.200999999996817,-0.9480652326703092,0.187622576369839
16.40099999999706,-0.9088433344028574,0.2292259296001227
16.600999999997306,-0.8574936695386047,0.25945125584923073
16.80099999999755,-0.8026413996651017,0.27289765044441183
17.000999999997795,-0.7531329667746837,0.26601827488379315
17.20099999999804,-0.7005789681076351,0.24588725373984005
17.400999999998284,-0.6490959679238133,0.22303426486361239
17.60099999999853,-0.599114601478345,0.19312719837002967
17.800999999998773,-0.554002111623219,0.1578174767605776
18.000999999999017,-0.5246352730286536,0.10723848777710579
18.20099999999926,-0.5136554322377022,0.06345267554797389
18.400999999999506,-0.5142755001184208,0.023162540603547114
18.60099999999975,-0.521805470121076,-0.011984041353646226
18.799999999999994,-0.5345343820446027,-0.05127818799667139
19.000000000000238,-0.548099903755494,-0.08676318382547761
19.200000000000482,-0.5609390081660159,-0.13010766892740155
19.400000000000727,-0.5775851695972823,-0.1785950209690293
19.60000000000097,-0.5975647784936974,-0.22951601210350012
19.800000000001216,-0.6152503431926312,-0.26388047437855794
20.00000000000146,-0.634307239704115,-0.30782571603465225
