Time (s),X (m),Y (m)
0.001,-0.0004702548317818469,-0.0005157376242541218
0.20000000000000015,0.0014367492242052902,0.00039679399570362794
0.4000000000000003,0.003597037156898376,1.3686801606781563e-06
0.6000000000000004,0.009694615731420116,0.0018979372487761264
0.8000000000000006,0.021650388776644946,0.00942300396276888
1.0000000000000007,0.027773713783140273,0.01718366660388769
1.2009999999999785,0.028129207583302798,0.021129148798445012
1.4009999999999565,0.02421085278531721,0.018930393009171605
1.6009999999999345,0.03364135855614085,0.02309786478048275
1.8009999999999124,0.04061094004432769,0.030252050104282825
2.0009999999998906,0.04107417663728577,0.03306199470172506
2.2009999999998686,0.04496663456967845,0.03276825213231951
2.4009999999998466,0.05230661746094929,0.04353438928834504
2.6009999999998246,0.062069785492146916,0.05393308889442968
2.8009999999998025,0.07491180567103724,0.0675972977978692
3.0009999999997805,0.08453649947879148,0.08010319714624223
3.2009999999997585,0.09369020080742275,0.09484204346459901
3.4009999999997365,0.1038335698628325,0.10763094566055034
3.6009999999997144,0.11566329423243579,0.12214657569538435
3.8009999999996924,0.12629802917818278,0.13512681202403376
4.000999999999671,0.13323006825113792,0.14137362804381595
4.200999999999738,0.1406111884715374,0.16515294728522592
4.400999999999804,0.15056105408977769,0.182337892515037
4.600999999999871,0.1604424187718324,0.2009368813519861
4.800999999999938,0.17223158835525285,0.2159937936789861
5.000000000000004,0.1816578018804714,0.22635916561043457
5.200000000000071,0.18855237408740355,0.24755211811488068
5.400000000000138,0.19681099415797074,0.2570419539454655
5.600000000000205,0.20523459466407457,0.2646870388680536
5.800000000000272,0.2091158688112176,0.2820578000145056
6.000000000000338,0.21147967723043548,0.2914847662637132
6.200000000000405,0.21192454349379716,0.2990663469022335
6.400000000000472,0.2156527973946744,0.31628090074975973
6.600000000000539,0.21940316821389544,0.33613051350496764
6.800000000000606,0.22371166112563512,0.3555771297825883
7.000000000000672,0.2217882688152253,0.3693776508582556
7.200000000000739,0.22169743842138565,0.3898719696142384
7.400000000000806,0.22673058655536402,0.4071701596223267
7.600000000000873,0.23601700445267992,0.4193545269442784
7.8000000000009395,0.24787909427339014,0.4349620893324846
8.000000000001005,0.2625851005125525,0.44508468195278234
8.200000000000895,0.2781015378669194,0.4563914087053636
8.400000000000784,0.28788284134325715,0.47895128339749443
8.600000000000673,0.29760716682261296,0.49964457910734184
8.800000000000562,0.3113790579943003,0.5178142543822744
9.000000000000451,0.3279169175351512,0.5377334931747016
9.20000000000034,0.34681194647712965,0.5517458815961481
9.40000000000023,0.3668558636465515,0.573594449262665
9.600000000000119,0.38324241515182894,0.5963894863444084
9.800000000000008,0.3993143617942982,0.6171814252392431
10.000999999999896,0.41708345410814945,0.6473916346523678
10.200999999999786,0.43665153677984864,0.6628548911115453
10.400999999999675,0.44942093097699387,0.6747305583209683
10.600999999999564,0.4530333696360514,0.6893529777200963
10.800999999999453,0.4513871304455545,0.7124984942455866
11.000999999999342,0.45210760872562267,0.7310316703158343
11.200999999999231,0.45526699726164,0.74988990442597
11.40099999999912,0.45915119732096277,0.7747413259033601
11.60099999999901,0.4653565308622221,0.7966077628628833
11.800999999998899,0.4777393010161174,0.8198524496701599
12.000999999998788,0.49064469393006915,0.8424284807411987
12.200999999998677,0.501435055016468,0.8655262550300625
12.400999999998566,0.5124698345224996,0.8928707338311241
12.600999999998455,0.5267548583660145,0.9242344906259738
12.800999999998345,0.5427969550846699,0.9529025654028244
13.000999999998234,0.5615711244605542,0.9816094882805744
13.200999999998123,0.5835286755448326,1.0083258734827303
13.400999999998012,0.6008270681065011,1.0331861309732333
13.600999999997901,0.6120452954991774,1.0539549806966069
13.80099999999779,0.6258033365822208,1.073446795526061
14.00099999999768,0.6314096021750065,1.096447463507529
14.200999999997569,0.6342415577505697,1.1205129967758078
14.400999999997458,0.6362522019979783,1.1453309265405083
14.600999999997347,0.6371846603562138,1.1733102018862218
14.800999999997236,0.6384572263600806,1.2051477783493
15.000999999997125,0.6432935501766602,1.2339222838920558
15.200999999997014,0.6468201219422937,1.2648956888683198
15.400999999996904,0.6527157761979145,1.2933702965394729
15.600999999996793,0.6635991536497198,1.314803041934905
15.800999999996682,0.6788316130283152,1.3332562628943256
16.000999999996573,0.6922475798310734,1.3658696381721336
16.200999999996817,0.7066510166299589,1.3880919292874525
16.40099999999706,0.7206649255165796,1.4029748569256837
16.600999999997306,0.7271955307458793,1.4337124461892414
16.80099999999755,0.7284066051610292,1.4709712325120392
17.000999999997795,0.7304763102648282,1.4994087522650434
17.20099999999804,0.7305655308872351,1.5308821322502777
17.400999999998284,0.7287729663145525,1.5593928558438153
17.60099999999853,0.7256229939874511,1.5866523824224155
17.800999999998773,0.7239221256136055,1.6086362809756285
18.000999999999017,0.7183141558386092,1.625897038409562
18.20099999999926,0.7033275138270252,1.6537090672793653
18.400999999999506,0.68913888904274,1.683320586782724
18.60099999999975,0.6767418181213033,1.710039746043529
18.799999999999994,0.6636884449816999,1.7519818289589095
19.000000000000238,0.6584576940068851,1.7838065210076364
19.200000000000482,0.6578688128185463,1.8109099276249343
19.400000000000727,0.6566447319149921,1.8441372780064729
19.60000000000097,0.6627875363551807,1.8771712421756326
19.800000000001216,0.6750248471309857,1.9018398691745162
20.00000000000146,0.6887280871113445,1.9257991169956943
