Time (s),X (m),Y (m)
0.001,0.00024391513958915793,0.0010158048217711127
0.20000000000000015,0.0009908302785770775,-0.0010164181250230167
0.4000000000000003,0.002891514965593281,-0.002799961648216572
0.6000000000000004,0.005435012219204924,0.00021344797131433047
0.8000000000000006,0.011619480146948885,0.006072803160509088
1.0000000000000007,0.02245799298096391,-0.006847110819460221
1.2009999999999785,0.03548600100372159,-0.019481165102208823
1.4009999999999565,0.046726743589899256,-0.018530019451988018
1.6009999999999345,0.054997999609828235,-0.017921561015509343
1.8009999999999124,0.06638606198612075,-0.016297851231328226
2.0009999999998906,0.08071423517008855,-0.017529084148925914
2.2009999999998686,0.0961863686967603,-0.019286827987057897
2.4009999999998466,0.10566044355339466,-0.017316354727506828
2.6009999999998246,0.1169136648241193,-0.017483175758647343
2.8009999999998025,0.1288435197860725,-0.02310726744741913
3.0009999999997805,0.14282425454160771,-0.025941975466480735
3.2009999999997585,0.16086293891039935,-0.015078955229450611
3.4009999999997365,0.175033676411984,-0.013943468746076436
3.6009999999997144,0.1880054925629522,-0.017123909826562495
3.8009999999996924,0.20095273389420534,-0.019372750365974967
4.000999999999671,0.2134386949271106,-0.014213709712404243
4.200999999999738,0.2275945572992982,-0.015021843916040679
4.400999999999804,0.24291691336845986,-0.016139442337704382
4.600999999999871,0.26301697133155727,-0.023676571262486616
4.800999999999938,0.2781490149218122,-0.028771448190118506
5.000000000000004,0.2952734338640504,-0.03123841861546545
5.200000000000071,0.30874193516188647,-0.03152935547714551
5.400000000000138,0.326029638778122,-0.033669986625778824
5.600000000000205,0.33996425598105245,-0.03478644745201917
5.800000000000272,0.3551964494642262,-0.03293224801197653
6.000000000000338,0.3705850767939021,-0.03177828306289991
6.200000000000405,0.38989002168007864,-0.02010022582874192
6.400000000000472,0.4120130598333823,-0.015636257198922848
6.600000000000539,0.423605780283859,-0.020401031876861268
6.800000000000606,0.44119998136105437,-0.02194413871184153
7.000000000000672,0.4606386571668583,-0.018751883277326072
7.200000000000739,0.48045113406947476,-0.022348804757415713
7.400000000000806,0.4986835463152377,-0.03103349152387619
7.600000000000873,0.52177387938442,-0.019593667959683633
7.8000000000009395,0.5430604706505094,-0.023828228025978167
8.000000000001005,0.5567548583213633,-0.042399247824900836
8.200000000000895,0.5704407365097165,-0.06068426617056159
8.400000000000784,0.5878190333115535,-0.05845622335227182
8.600000000000673,0.6059956002281258,-0.046121973496345815
8.800000000000562,0.6287530173989357,-0.03358001065607384
9.000000000000451,0.6512740242658155,-0.02967465564792295
9.20000000000034,0.6706551642617594,-0.029865666297302546
9.40000000000023,0.6951178634475801,-0.02287594197759162
9.600000000000119,0.7204663139837433,-0.021314843891951332
9.800000000000008,0.7442278578998124,-0.020500473048996434
10.000999999999896,0.7682858192782812,-0.022299862671374827
10.200999999999786,0.7903030732730573,-0.0159763131652477
10.400999999999675,0.8131888503157194,-0.010892484651165518
10.600999999999564,0.8346899733537728,-0.007990259067090413
10.800999999999453,0.853485856979543,-0.016685346253318342
11.000999999999342,0.8736706744629235,-0.02430364848929208
11.200999999999231,0.890988569800555,-0.01800009017780101
11.40099999999912,0.9117646985430443,-0.01575493478005317
11.60099999999901,0.9337323165394744,-0.011907684011380214
11.800999999998899,0.9577171367686713,-0.010770432447481194
12.000999999998788,0.9792427849557781,-0.01097005670226386
12.200999999998677,0.9990602814704309,-0.016172661645156624
12.400999999998566,1.0144484240856846,-0.016835189803295673
12.600999999998455,1.0329461043643198,-0.015783024685123773
12.800999999998345,1.0544589750631281,-0.019208706325806547
13.000999999998234,1.0771324192361131,-0.021027936284571457
13.200999999998123,1.1007400412564161,-0.02258610567026718
13.400999999998012,1.1260033843588573,-0.02130895610059795
13.600999999997901,1.1470140335491739,-0.03343086501490344
13.80099999999779,1.164791224800503,-0.035834314928229194
14.00099999999768,1.18619923612245,-0.031109728374391802
14.200999999997569,1.208100583326495,-0.0221727092492628
14.400999999997458,1.230574816181193,-0.014844004197357923
14.600999999997347,1.2496547768792592,-0.015345209789066219
14.800999999997236,1.2704683904084715,-0.02079399583183209
15.000999999997125,1.2962361344702258,-0.021729016424067923
15.200999999997014,1.3230927416293834,-0.02298345185081961
15.400999999996904,1.344291548938287,-0.028056263638217182
15.600999999996793,1.3611535413225466,-0.03792832307578389
15.800999999996682,1.3697581529213134,-0.05096870044579239
16.000999999996573,1.3798534099018778,-0.05881914715829511
16.200999999996817,1.3959693293126276,-0.061005118811168546
16.40099999999706,1.4201354239311506,-0.06530385605633908
16.600999999997306,1.4390639705706703,-0.06784666175520256
16.80099999999755,1.451200915392059,-0.07395522940076799
17.000999999997795,1.46002984325615,-0.08202472988265472
17.20099999999804,1.4708880419952632,-0.09659353176586474
17.400999999998284,1.4826469044057233,-0.10419821904485245
17.60099999999853,1.494893881681835,-0.11137810514469862
17.800999999998773,1.514609101608196,-0.11135299717115896
18.000999999999017,1.528061289129908,-0.12231867982790057
18.20099999999926,1.543864601406276,-0.12425170131804973
18.400999999999506,1.5632927475754623,-0.1168698212273558
18.60099999999975,1.5834062836953808,-0.11185145936712697
18.799999999999994,1.5982141639570617,-0.1163736974865905
19.000000000000238,1.6156670270883393,-0.10914622394980028
19.200000000000482,1.6367603367669084,-0.09586715404622347
19.400000000000727,1.6569606451423686,-0.09974676824465206
19.60000000000097,1.6792528357652607,-0.1023920516206862
19.800000000001216,1.6989632702486508,-0.10234257657871504
20.00000000000146,1.7210776126474574,-0.10434786658865018
