Time (s),X (m),Y (m)
0.001,-0.00036712694553334754,0.0006630195094394434
0.20000000000000015,0.001761926682348125,-0.00115607337599251
0.4000000000000003,0.005481934267420177,-0.0041809260268504045
0.6000000000000004,0.011197453176891204,-0.00957080493049086
0.8000000000000006,0.018141182481232213,-0.013229313087862087
1.0000000000000007,0.034054282193039624,-0.02511886734812521
1.2009999999999785,0.048573065746570776,-0.032936476043930886
1.4009999999999565,0.06923317762638377,-0.046673870343885204
1.6009999999999345,0.08781732859152197,-0.07099226564341914
1.8009999999999124,0.1002730041680439,-0.0962557678316237
2.0009999999998906,0.10901717703923731,-0.10769351822366634
2.2009999999998686,0.11476849617068792,-0.12052493518297684
2.4009999999998466,0.11294412757277333,-0.1453958560759649
2.6009999999998246,0.10468751267346464,-0.1715972260073956
2.8009999999998025,0.09882805596449419,-0.1973908729113994
3.0009999999997805,0.09549743884910575,-0.2227470416840592
3.2009999999997585,0.0923883776368863,-0.24514300584395446
3.4009999999997365,0.08829696825476466,-0.27010307419774165
3.6009999999997144,0.08508442774909676,-0.293399444452646
3.8009999999996924,0.07830553533606714,-0.3215850331637452
4.000999999999671,0.07412888789499032,-0.3507542951934931
4.200999999999738,0.07563701906522115,-0.374997668223922
4.400999999999804,0.07407424511423608,-0.3951895780781368
4.600999999999871,0.0705060021690694,-0.41628836795722146
4.800999999999938,0.06445235802641591,-0.44474493208458016
5.000000000000004,0.05266418906854712,-0.4875608017563575
5.200000000000071,0.035503445301393585,-0.525142394831763
5.400000000000138,0.021126562435709966,-0.5701206436596894
5.600000000000205,0.01742028306536082,-0.6054408805021281
5.800000000000272,0.009213764801478081,-0.6402375163662298
6.000000000000338,0.012462827107897735,-0.6619034641394513
6.200000000000405,0.007093001400645124,-0.6938282269486075
6.400000000000472,0.0007062761835580898,-0.7235796155688875
6.600000000000539,-0.0037979736506647205,-0.7564398568525057
6.800000000000606,-0.005820660759775522,-0.7800199823954419
7.000000000000672,-0.004898756599840561,-0.8027596845074798
7.200000000000739,-0.014835452165015889,-0.8472784412214929
7.400000000000806,-0.029084597185951133,-0.8999035722504432
7.600000000000873,-0.0437171901196061,-0.947272256502281
7.8000000000009395,-0.05631236000089845,-0.9883998429115988
8.000000000001005,-0.06706793106885939,-1.0259247035690993
8.200000000000895,-0.07200343781705025,-1.0643384337679418
8.400000000000784,-0.07664302495151301,-1.1085096877703218
8.600000000000673,-0.0880154326685544,-1.1512327269362108
8.800000000000562,-0.11339112496886175,-1.200723779328217
9.000000000000451,-0.1409538307140983,-1.2430895912844633
9.20000000000034,-0.16064138967290892,-1.2872204146125668
9.40000000000023,-0.1791032050144168,-1.335099448653793
9.600000000000119,-0.19189633410372306,-1.376374384819046
9.800000000000008,-0.20141122766594458,-1.4121508072558049
10.000999999999896,-0.20673243383435283,-1.4532963210401746
10.200999999999786,-0.22256370948204718,-1.505690929067958
10.400999999999675,-0.24058259775455554,-1.557409432992714
10.600999999999564,-0.2568634261793037,-1.6071476594265612
10.800999999999453,-0.278071685343817,-1.659140472848564
11.000999999999342,-0.2952670308929381,-1.7090628733872648
11.200999999999231,-0.31268472840335565,-1.7557633018146275
11.40099999999912,-0.3321175825188435,-1.8045663674190355
11.60099999999901,-0.3623521893063046,-1.8520658003045538
11.800999999998899,-0.3931275579851873,-1.8969296659199584
12.000999999998788,-0.43286963348988444,-1.9225946460291485
12.200999999998677,-0.4731895318575688,-1.9285769159298363
12.400999999998566,-0.5100289146810953,-1.9346780251882847
12.600999999998455,-0.5433289587017428,-1.9361755664923426
12.800999999998345,-0.5745340751376461,-1.9317780447241055
13.000999999998234,-0.6170576771188223,-1.9221890795975052
13.200999999998123,-0.6621323190058098,-1.9153288574080765
13.400999999998012,-0.6963945464814587,-1.9150079240182272
13.600999999997901,-0.7327394197068152,-1.9153465367770157
13.80099999999779,-0.7742115042245364,-1.9130934896894214
14.00099999999768,-0.8150768079053533,-1.9082384144639233
14.200999999997569,-0.8680546009365566,-1.894227263836948
14.400999999997458,-0.9205894323064197,-1.8811908759960292
14.600999999997347,-0.9699690083194259,-1.8701347771245218
14.800999999997236,-1.0204454268258663,-1.856301721572194
15.000999999997125,-1.0715916945360948,-1.8436738344368702
15.200999999997014,-1.11802329463057,-1.8370035674395453
15.400999999996904,-1.1632736520699707,-1.8364307765285774
15.600999999996793,-1.2088580731553575,-1.8251721088595942
15.800999999996682,-1.257723983611581,-1.8122246772015893
16.000999999996573,-1.3004156452087785,-1.8169218434625307
16.200999999996817,-1.3438119688486492,-1.8210865625458887
16.40099999999706,-1.3884713872061873,-1.8090885619960493
16.600999999997306,-1.4378730446072057,-1.7922135927322083
16.80099999999755,-1.4889535658146997,-1.7720651013380422
17.000999999997795,-1.547223131571348,-1.7428077138126807
17.20099999999804,-1.6019857208001826,-1.723005865445349
17.400999999998284,-1.6554180463576749,-1.6866911587915712
17.60099999999853,-1.6902412970560459,-1.632552177839813
17.800999999998773,-1.7048149204080048,-1.5849723596268743
18.000999999999017,-1.710650123700036,-1.5351871272325057
18.20099999999926,-1.7098259011168908,-1.4818336539626835
18.400999999999506,-1.7011608674051781,-1.4273522422949598
18.60099999999975,-1.6899295373203742,-1.3794184026672998
18.799999999999994,-1.670693315601295,-1.3199922604168535
19.000000000000238,-1.6504431303118738,-1.2630000500391556
19.200000000000482,-1.635650163511235,-1.2127534880396915
19.400000000000727,-1.6195053160541877,-1.1607339912010886
19.60000000000097,-1.6051469619910663,-1.1066112118580447
19.800000000001216,-1.6021056817681212,-1.0623591107401156
20.00000000000146,-1.5965490347583575,-1.0178029918386526
