Time (s),X (m),Y (m)
0.001,0.00042302893680115855,-0.0010314752485082442
0.20000000000000015,0.0012848218069895332,0.0007703360533496971
0.4000000000000003,0.003770741505216209,0.008439832717411931
0.6000000000000004,0.00895799484318136,0.015979423370843092
0.8000000000000006,0.01719293711985295,0.005686919676118648
1.0000000000000007,0.026140273728650444,-0.010717456245124657
1.2009999999999785,0.039489287651457386,-0.015798351175109474
1.4009999999999565,0.05753513513154299,-0.020680010427764173
1.6009999999999345,0.07937512264844374,-0.01641777835846819
1.8009999999999124,0.10060849411075555,-0.026134183940752627
2.0009999999998906,0.12131185751145314,-0.039441950427118865
2.2009999999998686,0.14312192328759415,-0.05533364555955522
2.4009999999998466,0.16875579649563682,-0.06614222397916847
2.6009999999998246,0.18539714350707623,-0.08252531512630354
2.8009999999998025,0.19326842315788317,-0.10485406685169284
3.0009999999997805,0.18960534511417426,-0.12890175681023697
3.2009999999997585,0.1804472470259551,-0.1526546824440848
3.4009999999997365,0.17919445380901983,-0.18611039315696473
3.6009999999997144,0.17111434807183076,-0.2206041175435713
3.8009999999996924,0.15446619022884112,-0.22526342006581743
4.000999999999671,0.12585828826995282,-0.22966467930216145
4.200999999999738,0.09667236632084628,-0.2259089573073948
4.400999999999804,0.06376507871116109,-0.22253049506678466
4.600999999999871,0.03845958095332532,-0.21784323577764692
4.800999999999938,0.025294313747746145,-0.20613665783810162
5.000000000000004,0.021573708776740582,-0.18394148268091287
5.200000000000071,0.021951264776510566,-0.1556550300193423
5.400000000000138,0.021854126444824897,-0.11933326293491053
5.600000000000205,0.028279211654534044,-0.08759856943293623
5.800000000000272,0.04319180549800386,-0.05420177627986025
6.000000000000338,0.06518848521606707,-0.04224975417778865
6.200000000000405,0.0935315428998182,-0.04412732159485616
6.400000000000472,0.12834644351501648,-0.05638569564949231
6.600000000000539,0.1507812275559217,-0.07271060730044401
6.800000000000606,0.1588472286353542,-0.09658878765649022
7.000000000000672,0.1670095261648335,-0.1312301496302925
7.200000000000739,0.16692456464644462,-0.16841432562621272
7.400000000000806,0.15522765958484702,-0.19372044771375188
7.600000000000873,0.1343746624559589,-0.19896358045340665
7.8000000000009395,0.11474892601854475,-0.19461991268671924
8.000000000001005,0.11154621552010084,-0.18127733756498343
8.200000000000895,0.11416809373579906,-0.1559962121751571
8.400000000000784,0.12021730306299623,-0.12911626222696607
8.600000000000673,0.1259624889881869,-0.09673878307624552
8.800000000000562,0.14609636426601585,-0.06951267022517409
9.000000000000451,0.1657677181114809,-0.028722803223919378
9.20000000000034,0.19120678294677562,-0.002671320952138113
9.40000000000023,0.23095843962542337,0.009060390209654885
9.600000000000119,0.28230482553014813,0.01741733563098036
9.800000000000008,0.31824885283814225,0.013238302140988156
10.000999999999896,0.3268581354293463,-0.008968146435045609
10.200999999999786,0.32287300420690657,-0.03842321887181272
10.400999999999675,0.32245532403824445,-0.08043647626949922
10.600999999999564,0.31234811550834307,-0.11315307375776519
10.800999999999453,0.27989659271744854,-0.12868916452232487
11.000999999999342,0.24560240290860608,-0.12681724432561722
11.200999999999231,0.2135961486292224,-0.1117016507760877
11.40099999999912,0.1970475900759611,-0.08325297682127501
11.60099999999901,0.18216589260777208,-0.043464926114778965
11.800999999998899,0.18277103456034474,-0.0129271211415603
12.000999999998788,0.19251663442713957,0.005722572793048106
12.200999999998677,0.21362705909125737,0.014067638325989257
12.400999999998566,0.24270620003210713,0.0107572236383974
12.600999999998455,0.27593529204472134,0.0034035697369829464
12.800999999998345,0.3025770389552013,-0.010024998969081605
13.000999999998234,0.3263677221938783,-0.028154308595340072
13.200999999998123,0.32648444365634227,-0.050505685424455944
13.400999999998012,0.3207767814078121,-0.07884037557208906
13.600999999997901,0.3120476943176824,-0.11248003278818303
13.80099999999779,0.2941653255361102,-0.1463654218268034
14.00099999999768,0.277186700907559,-0.18491134881796012
14.200999999997569,0.24926185571380657,-0.19320665094283546
14.400999999997458,0.2163605467926376,-0.19416522697827615
14.600999999997347,0.1781485455282633,-0.19447719419957898
14.800999999997236,0.13638637617028956,-0.18782665141681684
15.000999999997125,0.12251208598721788,-0.1681110353375825
15.200999999997014,0.11896470235843071,-0.1379310776154577
15.400999999996904,0.1312511387759928,-0.1055878132802895
15.600999999996793,0.15347567783790317,-0.07866907453519222
15.800999999996682,0.18204164220857363,-0.06375812450988777
16.000999999996573,0.2117003595348553,-0.06871526193981424
16.200999999996817,0.24435992906158233,-0.08430410295023272
16.40099999999706,0.28580507878335054,-0.08853808292000959
16.600999999997306,0.33678411112179596,-0.08803711964783208
16.80099999999755,0.39589732598235106,-0.08727803189020121
17.000999999997795,0.4541384648815013,-0.09501353466633995
17.20099999999804,0.49535121655854714,-0.11248243949864556
17.400999999998284,0.5283605356803379,-0.1391517053070504
17.60099999999853,0.5389241807390909,-0.17575211340218883
17.800999999998773,0.5314309655593855,-0.2091356781988771
18.000999999999017,0.5190550478792763,-0.24280631984584525
18.20099999999926,0.49999436618474125,-0.28010947248980206
18.400999999999506,0.4726095865309312,-0.30175266771842374
18.60099999999975,0.4342793627564886,-0.3075493563106006
18.799999999999994,0.37579400734353097,-0.3276809207109992
19.000000000000238,0.31757007728148784,-0.33332509527927884
19.200000000000482,0.27677032265192664,-0.3233783479724423
19.400000000000727,0.2419409108393409,-0.30499717328393083
19.60000000000097,0.23991793758800103,-0.2836888937696459
19.800000000001216,0.2553780654693159,-0.265344535077013
20.00000000000146,0.2804524058311034,-0.26470568357641405
