Time (s),X (m),Y (m)
0.001,-0.00023999057263828476,0.0007901558823345071
0.20000000000000015,0.0015060815257049557,-0.0010462648385642698
0.4000000000000003,0.002250468640818533,-0.0011782438465832348
0.6000000000000004,0.0009723130170195697,0.0023736020249053927
0.8000000000000006,0.0027972699835453183,0.016142256050672106
1.0000000000000007,0.005236659770655749,0.026719202645726952
1.2009999999999785,0.01562544786229348,0.03010712953612198
1.4009999999999565,0.025365324084415053,0.021647948699071832
1.6009999999999345,0.03250273060792079,0.019429526770987013
1.8009999999999124,0.04202945001524761,0.01760493306419613
2.0009999999998906,0.04910398569107709,0.016215363484339527
2.2009999999998686,0.0659357989668251,0.01809789250437993
2.4009999999998466,0.08184840574624548,0.021367834730454026
2.6009999999998246,0.09596099679868257,0.01966677064102479
2.8009999999998025,0.11483363963874853,0.014505678597917909
3.0009999999997805,0.13500680300953716,0.014350638146646043
3.2009999999997585,0.14525128394139,0.021304579643867828
3.4009999999997365,0.15952217441946864,0.019298947168553737
3.6009999999997144,0.17292173622685406,0.01946814944206503
3.8009999999996924,0.18405540911759602,0.02614876907027443
4.000999999999671,0.19761281221615862,0.02329987730745406
4.200999999999738,0.2125487389394128,0.019056028624655323
4.400999999999804,0.23564059654284494,0.01347923591741353
4.600999999999871,0.2663763315076094,0.009086463814099294
4.800999999999938,0.30822998308261473,0.0016908553860865625
5.000000000000004,0.34753872768058636,-0.00493462435672019
5.200000000000071,0.3742492439544942,-0.004325574034988326
5.400000000000138,0.3927096245210184,-0.0019115622873916427
5.600000000000205,0.412769525171154,-0.0010940001345513268
5.800000000000272,0.4441315617461235,-0.007695094364425737
6.000000000000338,0.4639169835374375,-0.011373379930886881
6.200000000000405,0.479443331469274,-0.01698958391067457
6.400000000000472,0.5015014718681081,-0.021120426789153303
6.600000000000539,0.5296988891022251,-0.028366303118924286
6.800000000000606,0.5553601004373501,-0.03300540555418511
7.000000000000672,0.580769079872632,-0.03035021615323756
7.200000000000739,0.6163295832160866,-0.03185490075898593
7.400000000000806,0.6546646497900063,-0.03454866007934675
7.600000000000873,0.688214115210216,-0.03363731920461285
7.8000000000009395,0.7172344345861481,-0.0304558249487126
8.000000000001005,0.746573814815489,-0.027773350447546974
8.200000000000895,0.771548830145167,-0.02586470812528851
8.400000000000784,0.7938964907880218,-0.021680907598063476
8.600000000000673,0.8226184436825169,-0.019384086633670083
8.800000000000562,0.8437059435965065,-0.01756669073155267
9.000000000000451,0.8670225209499254,-0.01234227174488896
9.20000000000034,0.8918526863604473,-0.008982262442503103
9.40000000000023,0.9256389072752461,-0.0115143419403695
9.600000000000119,0.9643097806664873,-0.0201652462918181
9.800000000000008,0.9866646540170131,-0.021045060704037048
10.000999999999896,1.004046631470722,-0.01645640446422495
10.200999999999786,1.0353368257315907,-0.013203871855477774
10.400999999999675,1.0625359135977235,-0.006595853090477685
10.600999999999564,1.0844391659400427,-0.004521028641984759
10.800999999999453,1.100075016995513,-0.0032778108579149612
11.000999999999342,1.1240124481925522,-0.00014093201561008603
11.200999999999231,1.1505951887823838,0.0020042758914562355
11.40099999999912,1.1785434766174079,0.0073503802426489505
11.60099999999901,1.2030199282081078,0.01126062419193186
11.800999999998899,1.2163552831583002,0.016809175422519904
12.000999999998788,1.2365494630133622,0.0197342601051643
12.200999999998677,1.2581662193291288,0.022409879832809915
12.400999999998566,1.28454356579077,0.02892741220641493
12.600999999998455,1.3139153584364982,0.035731937537156123
12.800999999998345,1.3408771485538256,0.040458343245786614
13.000999999998234,1.370118670941529,0.045819781431503094
13.200999999998123,1.4020236237660653,0.05521964577049348
13.400999999998012,1.4359694988215188,0.062280702511178086
13.600999999997901,1.4701739176218411,0.06376296917316436
13.80099999999779,1.506347079817072,0.06337206255180686
14.00099999999768,1.5478201357701602,0.05949825361017206
14.200999999997569,1.5781175988213463,0.06094323867758943
14.400999999997458,1.60108800690476,0.0663762584687255
14.600999999997347,1.630942545576333,0.06701446617631934
14.800999999997236,1.646124981470871,0.06596414098134931
15.000999999997125,1.6842991300352887,0.05783006660909878
15.200999999997014,1.7322626092391162,0.04642926813623308
15.400999999996904,1.7717255338857074,0.04195607015880517
15.600999999996793,1.8093936950294023,0.04231395009255985
15.800999999996682,1.85026361685294,0.04609060066993947
16.000999999996573,1.8774465338176616,0.05359876326385653
16.200999999996817,1.9109088304334372,0.0522362833885965
16.40099999999706,1.9598610427406264,0.04688791357777195
16.600999999997306,2.0030789038464674,0.0450016492912881
16.80099999999755,2.044061520718045,0.041805965160566776
17.000999999997795,2.064551011851259,0.0425369990532639
17.20099999999804,2.0863678645401595,0.04417684677369221
17.400999999998284,2.1112280853160295,0.04645315603418399
17.60099999999853,2.139311617838858,0.05132896362241196
17.800999999998773,2.167546496143239,0.058775231330240166
18.000999999999017,2.195636707005562,0.062390896778671795
18.20099999999926,2.2319493022955377,0.06212308214100537
18.400999999999506,2.270358023690001,0.06051350690391996
18.60099999999975,2.3018918167869176,0.059903708534091514
18.799999999999994,2.3285661414626113,0.059989528904337557
19.000000000000238,2.3594745677534728,0.06014424641101346
19.200000000000482,2.388705546203346,0.058637242889739066
19.400000000000727,2.417646414604859,0.05127702449677412
19.60000000000097,2.453686686791956,0.04727114056152842
19.800000000001216,2.4888259377444344,0.04412418842162501
20.00000000000146,2.5253839327998566,0.037378468089184456
