Time (s),X (m),Y (m)
0.001,0.0014505791105779379,-8.989899140956135e-05
0.20000000000000015,0.0008749122808239219,-7.515391571623545e-05
0.4000000000000003,0.001404353750094664,-9.629980619202852e-05
0.6000000000000004,0.0019541388646666887,-0.00014616999072717042
0.8000000000000006,0.002926877490870361,-0.00037148312798277665
1.0000000000000007,0.0040047353114200926,-0.000589689036307442
1.2009999999999785,0.004945649906198989,-0.0007088327529546333
1.4009999999999565,0.0060111968120416595,-0.0008152738787923719
1.6009999999999345,0.007144039272633125,-0.0009186122820237218
1.8009999999999124,0.008364722834447228,-0.001035602439988119
2.0009999999998906,0.00964630628504669,-0.0011582423144040226
2.2009999999998686,0.010992363164258022,-0.001283845105479319
2.4009999999998466,0.01241755799091212,-0.001419648578513423
2.6009999999998246,0.013924376595402787,-0.0015647487988242445
2.8009999999998025,0.015496614048971194,-0.0017159114018709674
3.0009999999997805,0.017136042441939045,-0.0018739319739957386
3.2009999999997585,0.018842753687355857,-0.002044263129153172
3.4009999999997365,0.020603731726488515,-0.0022157384881617706
3.6009999999997144,0.022405818966887734,-0.0022821606689520397
3.8009999999996924,0.02440346567470871,-0.0023827767119951543
4.000999999999671,0.02643537772295274,-0.002496570619828789
4.200999999999738,0.028487509959414188,-0.002579841872718837
4.400999999999804,0.030716551802536143,-0.0026423127974092102
4.600999999999871,0.03269774486317421,-0.002649802160772353
4.800999999999938,0.035049095695133,-0.0026943839309700305
5.000000000000004,0.03743087660382008,-0.0027297689503074187
5.200000000000071,0.03961502300726806,-0.002694878285629753
5.400000000000138,0.04210982737547246,-0.0026839520547068513
5.600000000000205,0.04466360373119192,-0.0026462367041084865
5.800000000000272,0.04726469673009121,-0.0025807655811354835
6.000000000000338,0.049599814688745726,-0.002430687873492695
6.200000000000405,0.05198919914176827,-0.002239038441138404
6.400000000000472,0.05442001148735847,-0.0020164390102993357
6.600000000000539,0.05690565357756825,-0.001764546352837578
6.800000000000606,0.059457466454300244,-0.0014848426486307477
7.000000000000672,0.06207973440491801,-0.0011739653930328445
7.200000000000739,0.06439887899608056,-0.0007865591022286192
7.400000000000806,0.06678733069002127,-0.0003517094682407278
7.600000000000873,0.06945361404973953,0.00012228659501296152
7.8000000000009395,0.07200994733792837,0.0006179031923397378
8.000000000001005,0.0746552341410007,0.0011655385061907866
8.200000000000895,0.07737439303430799,0.001763338007182255
8.400000000000784,0.08016885337391425,0.0024257854105660106
8.600000000000673,0.08304128571101331,0.003161479534965551
8.800000000000562,0.08568179024237368,0.0039370302512583355
9.000000000000451,0.08828424276008331,0.004805371383198115
9.20000000000034,0.09094187850153673,0.005748305983604745
9.40000000000023,0.09367219758209654,0.006764110535588783
9.600000000000119,0.09649330457089236,0.007859560934900225
9.800000000000008,0.09941057078133228,0.009042026457456708
10.000999999999896,0.10232361472995578,0.01044119942891412
10.200999999999786,0.10541954678105309,0.011970460360290156
10.400999999999675,0.10847908436090649,0.013611695812666958
10.600999999999564,0.11151426161114668,0.015361201289375513
10.800999999999453,0.1147224000374041,0.01732686358354378
11.000999999999342,0.11792019957846604,0.0194342173405653
11.200999999999231,0.12120034965262075,0.021662240387825837
11.40099999999912,0.12463896418480558,0.02401159807271845
11.60099999999901,0.12817583470109964,0.026480148833652243
11.800999999998899,0.13157399309414408,0.028777256478234516
12.000999999998788,0.13527992156295113,0.03137791505327153
12.200999999998677,0.13896304762466827,0.03394968552212207
12.400999999998566,0.14269807144611102,0.036682442711741065
12.600999999998455,0.14613086886226892,0.039029648876367
12.800999999998345,0.14994345122995825,0.04208250677809544
13.000999999998234,0.15385710212696924,0.04532702141825422
13.200999999998123,0.15786382552499417,0.04858089911196344
13.400999999998012,0.16145292754669832,0.051602527677967
13.600999999997901,0.16556689496903582,0.05530926007664701
13.80099999999779,0.16937006679228894,0.058527952227067845
14.00099999999768,0.1728877334699369,0.06153743624201672
14.200999999997569,0.1764080130807816,0.06455227843775434
14.400999999997458,0.18005316531378424,0.06784523014299211
14.600999999997347,0.18353531384730107,0.07091707422034153
14.800999999997236,0.18725480274377226,0.07429426535331728
15.000999999997125,0.1906389149963215,0.07732423079218458
15.200999999997014,0.19419983172265262,0.0807420501301726
15.400999999996904,0.19784340107076004,0.08433498306405417
15.600999999996793,0.2012714173884234,0.08768718386652562
15.800999999996682,0.20463143375031492,0.09102573477846788
16.000999999996573,0.2081352472953779,0.09476695422600603
16.200999999996817,0.21177523006146085,0.09864869226952198
16.40099999999706,0.2155198749178652,0.10251764712496365
16.600999999997306,0.2189654971488514,0.10625240422580863
16.80099999999755,0.2226036716266622,0.11037223938268552
17.000999999997795,0.22665525683251364,0.11532995538527283
17.20099999999804,0.2311303089781938,0.1211045546769885
17.400999999998284,0.23576220430101782,0.1279308234241609
17.60099999999853,0.24009586826996293,0.13375943592633896
17.800999999998773,0.24556903140807343,0.14083153675527918
18.000999999999017,0.2502473718221211,0.14749251773028105
18.20099999999926,0.25472254320139165,0.15437888736609903
18.400999999999506,0.26179365055195536,0.16281158457136738
18.60099999999975,0.266854081072767,0.16982111725226756
18.799999999999994,0.2719910109801058,0.17733009648026815
19.000000000000238,0.27767228935948285,0.185995438585823
19.200000000000482,0.28291121061739727,0.19418530902725104
19.400000000000727,0.2874929587703183,0.20118182958168757
19.60000000000097,0.29332204896822744,0.21057033765668295
19.800000000001216,0.2993142469048597,0.21930837935854053
20.00000000000146,0.3046499037372242,0.22780654730608071
