Time (s),X (m),Y (m)
0.001,0.0008589492133542695,-0.0009348340498585851
0.20000000000000015,0.0009627688282920896,-0.0004489148910721778
0.4000000000000003,0.00147659651234584,-0.00042524657581746505
0.6000000000000004,0.0026515900157515204,-0.0013072037309357321
0.8000000000000006,0.003559230436643131,-0.001654593116506554
1.0000000000000007,0.005007127832191599,-0.0021430741169284765
1.2009999999999785,0.007872006935672084,-0.0003702686959574983
1.4009999999999565,0.011623579616717965,-0.0012102922162442627
1.6009999999999345,0.014014216823859851,-0.00033992144432686965
1.8009999999999124,0.017726154438597274,-0.0009634945613497869
2.0009999999998906,0.019961444814377408,0.00015187203997136064
2.2009999999998686,0.025798335323363532,-0.001936990073728859
2.4009999999998466,0.031459588509182845,-0.0031132417798770103
2.6009999999998246,0.03771710908541077,-0.004917107583178184
2.8009999999998025,0.03963576892719672,-0.003724509282627665
3.0009999999997805,0.043197308848700176,-0.0037314876461907102
3.2009999999997585,0.0476684628281014,-0.004113481511327621
3.4009999999997365,0.051229802117847015,-0.0032337611497505712
3.6009999999997144,0.05406614743116972,-0.0025632069649427092
3.8009999999996924,0.05796911844435983,-0.0009649730221521227
4.000999999999671,0.061969541928549456,0.00010009191067079649
4.200999999999738,0.06699618346305569,0.00026622236625515705
4.400999999999804,0.07164802711185157,0.00017067564239698412
4.600999999999871,0.07753739380496165,-0.0006024861282900453
4.800999999999938,0.08373772473630503,-0.0007289254685617896
5.000000000000004,0.08900458338586606,-0.00013065176456011167
5.200000000000071,0.09390393852119326,0.0006753130388135255
5.400000000000138,0.0991467109978645,0.0010341831008780931
5.600000000000205,0.10424031285302787,0.0006782045166394078
5.800000000000272,0.10877107742105972,0.0026644632903757405
6.000000000000338,0.11567345482590058,0.002410807869023803
6.200000000000405,0.12306446801608328,0.0018380294239858635
6.400000000000472,0.12874802882266567,0.0031411756275432183
6.600000000000539,0.13380053595646127,0.00412858364985824
6.800000000000606,0.13841309503368954,0.005371715231899279
7.000000000000672,0.14221034482017442,0.007464050902911726
7.200000000000739,0.15030908695705875,0.006734023291903706
7.400000000000806,0.1506532356084462,0.011691430875071459
7.600000000000873,0.1547071659113923,0.014128270220012515
7.8000000000009395,0.15975987551520213,0.015288626587277369
8.000000000001005,0.16526817988005166,0.01641589218775846
8.200000000000895,0.1712689104862256,0.017200564942858005
8.400000000000784,0.17682594998764598,0.01857199858340564
8.600000000000673,0.18399197888708024,0.01908736341178399
8.800000000000562,0.1877546236327755,0.021326114315066556
9.000000000000451,0.1926379164275959,0.022887691289267067
9.20000000000034,0.19608523108212578,0.025170600072881865
9.40000000000023,0.19861575848567034,0.02785081852557702
9.600000000000119,0.20329009165974854,0.030820944014660352
9.800000000000008,0.20980931529283062,0.032288793387187216
10.000999999999896,0.21390321391498812,0.03446411670871254
10.200999999999786,0.21621783534360942,0.03718657517647069
10.400999999999675,0.219411287366565,0.03969321381024539
10.600999999999564,0.22333165950191242,0.042082210874537375
10.800999999999453,0.22838586771195174,0.04403046996662582
11.000999999999342,0.23189085502195178,0.0461010012611629
11.200999999999231,0.2375604212817755,0.048683847208430886
11.40099999999912,0.24149534617181584,0.05029850605798286
11.60099999999901,0.246442317944714,0.053152928170326984
11.800999999998899,0.25037863776181163,0.05592308244722788
12.000999999998788,0.2549058629794521,0.05716885492277069
12.200999999998677,0.2592401645323004,0.05930145708669571
12.400999999998566,0.2612734633467557,0.06279429362439089
12.600999999998455,0.26597817006470054,0.0646592155914198
12.800999999998345,0.2679718876982334,0.06759928247481828
13.000999999998234,0.2730639579586268,0.06924508937329922
13.200999999998123,0.27661090588297005,0.07163173198417015
13.400999999998012,0.27980690648867257,0.07489410723183781
13.600999999997901,0.28454262925328466,0.07678361756767287
13.80099999999779,0.2868486324337913,0.07901452753068426
14.00099999999768,0.29109675637902516,0.08182977317422171
14.200999999997569,0.29326187604677495,0.08405780323818508
14.400999999997458,0.29825039993844593,0.08632600340250245
14.600999999997347,0.3018533641516235,0.08961801425548724
14.800999999997236,0.30503968159643596,0.0924332413762216
15.000999999997125,0.3099314855237963,0.09451480106056327
15.200999999997014,0.311516596915622,0.09750252087656273
15.400999999996904,0.31594595486131477,0.09992408352485914
15.600999999996793,0.31884873756071136,0.10219931723911203
15.800999999996682,0.3233900023635786,0.10490696649897802
16.000999999996573,0.32779614656489525,0.10711005169711332
16.200999999996817,0.33107494204824783,0.10892046015095791
16.40099999999706,0.3342102809112202,0.11181642795738536
16.600999999997306,0.3364586737485297,0.11516417728333966
16.80099999999755,0.3408259568047852,0.11797363891900278
17.000999999997795,0.34323465018954663,0.12031954135915852
17.20099999999804,0.3474131114340509,0.12302814707293781
17.400999999998284,0.3504568438798949,0.1264686365156765
17.60099999999853,0.3528953528123537,0.1294629703950676
17.800999999998773,0.3573469555406452,0.13210267161737868
18.000999999999017,0.35989158922663617,0.13483756100680175
18.20099999999926,0.3645648158055986,0.13734775071091174
18.400999999999506,0.3672818707368913,0.13992500772594127
18.60099999999975,0.3718731093853811,0.1425504788260125
18.799999999999994,0.3737609698098436,0.146154757342674
19.000000000000238,0.375823624565983,0.1497846870460085
19.200000000000482,0.38030931046390587,0.15291065132118406
19.400000000000727,0.3829219210226092,0.15529251639987338
19.60000000000097,0.3868836230110837,0.15834634261357852
19.800000000001216,0.3896290858880045,0.16069507487004622
20.00000000000146,0.3939988037138608,0.16283664456876226
