Time (s),X (m),Y (m)
0.001,0.00015606349793537,-0.0009963285817120471
0.20000000000000015,0.0007911384179787985,-0.0002300890384582643
0.4000000000000003,0.0012824105990025185,-6.042199101890508e-05
0.6000000000000004,0.0019781633001641533,8.559083693467983e-05
0.8000000000000006,0.002838773371350827,0.00014779605182890318
1.0000000000000007,0.0038945050478383643,0.00038817796165569845
1.2009999999999785,0.004970216290920786,0.0003740465824978362
1.4009999999999565,0.006071926739919336,0.0006334684299205308
1.6009999999999345,0.0073167167709452885,0.0009687311937490918
1.8009999999999124,0.008648395448445591,0.001332715361561473
2.0009999999998906,0.010019435537102987,0.0017081025663932263
2.2009999999998686,0.011447298906819874,0.0021143743509175737
2.4009999999998466,0.012887102078634858,0.0025354910558926325
2.6009999999998246,0.014324126163710697,0.0029817404999908275
2.8009999999998025,0.015767933197168002,0.0034464284893186005
3.0009999999997805,0.01719508342815118,0.003919151212995918
3.2009999999997585,0.01860077702468208,0.004395156518882425
3.4009999999997365,0.0199864394435401,0.004875649182365874
3.6009999999997144,0.021371185062389525,0.005369221076705621
3.8009999999996924,0.02274723613643493,0.005871839317552457
4.000999999999671,0.024109537497612202,0.006381290204105664
4.200999999999738,0.02545548844577338,0.006896476768597398
4.400999999999804,0.026784329392918114,0.0074170133642339235
4.600999999999871,0.02809490317276851,0.007943024260520555
4.800999999999938,0.029381042279376816,0.008473121641508487
5.000000000000004,0.03064752384116739,0.008991048390439458
5.200000000000071,0.03186223034608595,0.00950224262605075
5.400000000000138,0.03296789900644719,0.009994517398457865
5.600000000000205,0.033971791936549735,0.01046508627056689
5.800000000000272,0.034891017467331795,0.010910359785545363
6.000000000000338,0.03574118956908649,0.011331662352518306
6.200000000000405,0.036532085360559546,0.01173080715182264
6.400000000000472,0.03726613669919515,0.012107791950104446
6.600000000000539,0.03794425510135837,0.012463675641811632
6.800000000000606,0.03855873110798619,0.012804235841252665
7.000000000000672,0.03909982485677227,0.013139339821630295
7.200000000000739,0.03960167116387662,0.013471872165464206
7.400000000000806,0.040077149322502434,0.013800742147748212
7.600000000000873,0.04052528295917788,0.014125841684566785
7.8000000000009395,0.04094458450317113,0.014446906798348803
8.000000000001005,0.041327944361518626,0.014763937081752916
8.200000000000895,0.041689628792707,0.01507664479562539
8.400000000000784,0.04202969048973329,0.015384231613100891
8.600000000000673,0.042345526819513195,0.015687854779267856
8.800000000000562,0.042639146280058056,0.015987606507593635
9.000000000000451,0.04291259296266677,0.01628277336612515
9.20000000000034,0.043166608524568356,0.016573724067865524
9.40000000000023,0.04340907560584708,0.0168617349726926
9.600000000000119,0.043638195448067234,0.01714658837380666
9.800000000000008,0.04386192553094353,0.017428087521654353
10.000999999999896,0.04409285687737076,0.017711497924553354
10.200999999999786,0.04433250807258187,0.017991626560913975
10.400999999999675,0.04457710449968293,0.018282128938871916
10.600999999999564,0.04482484011658911,0.018587066236658713
10.800999999999453,0.045074716708939234,0.01890924632813026
11.000999999999342,0.04532475918103847,0.019250487965393234
11.200999999999231,0.04557661408200037,0.019605358526916885
11.40099999999912,0.04582840591503833,0.019971262143861714
11.60099999999901,0.04607333514559862,0.020350302910860284
11.800999999998899,0.04630738746408376,0.02074054748641402
12.000999999998788,0.04653300428126295,0.02113725135903908
12.200999999998677,0.04674749743826498,0.021536004026424665
12.400999999998566,0.046941789870609645,0.021935487056841035
12.600999999998455,0.04711207075769006,0.022338251889789273
12.800999999998345,0.047489927921165576,0.023581744912531902
13.000999999998234,0.04750597625668295,0.02437492480800509
13.200999999998123,0.048243910292201646,0.025272318726308463
13.400999999998012,0.049013688088727116,0.02579891269003461
13.600999999997901,0.04963740880642802,0.026792309237672902
13.80099999999779,0.05008753905966372,0.0276606982373003
14.00099999999768,0.05033259086703236,0.028758166245041804
14.200999999997569,0.05066394418632529,0.02994190748662104
14.400999999997458,0.050832602904193454,0.031152337546897658
14.600999999997347,0.050786352531737106,0.03277271915786985
14.800999999997236,0.0506553523597048,0.03416764473058248
15.000999999997125,0.0498922492759986,0.03567169140033781
15.200999999997014,0.04923041340485335,0.036976573323526184
15.400999999996904,0.048822932173419265,0.03783988464419693
15.600999999996793,0.048052918747220674,0.03926961043123637
15.800999999996682,0.04728640256155163,0.04081613081641935
16.000999999996573,0.0466476406032759,0.04220456712740271
16.200999999996817,0.045787870097263705,0.043977377048683756
16.40099999999706,0.04523499018518101,0.04547836040014219
16.600999999997306,0.04455732660971895,0.04717831121533479
16.80099999999755,0.04361035157529858,0.04906561908947082
17.000999999997795,0.04303151090852949,0.05083665115966205
17.20099999999804,0.042440813616779934,0.052702927393648506
17.400999999998284,0.04184219763650116,0.05464384639995529
17.60099999999853,0.04123574224769626,0.05662082552167519
17.800999999998773,0.040625327485444084,0.05856171225659644
18.000999999999017,0.040013119558632224,0.06046062593299687
18.20099999999926,0.039400061019553914,0.06231466082531243
18.400999999999506,0.038786933860879516,0.06412037229184259
18.60099999999975,0.038174798978880625,0.06587914041565378
18.799999999999994,0.03757364885259567,0.06758584180035723
19.000000000000238,0.036966141113229586,0.0692564870923456
19.200000000000482,0.036362134659735604,0.07088676323327803
19.400000000000727,0.035762943482410145,0.07247665182324341
19.60000000000097,0.03516921077237077,0.07402618211623355
19.800000000001216,0.03458485511551307,0.07554682058465058
20.00000000000146,0.03402516983914133,0.07705581485740355
