Time (s),X (m),Y (m)
0.001,0.0014388337585722719,-0.0001791137972120003
0.20000000000000015,0.0008485843927535019,-7.71646393597668e-05
0.4000000000000003,0.0015519200941112195,-0.00022172016454586157
0.6000000000000004,0.002545465452287192,-0.0007143753155432461
0.8000000000000006,0.003975413078943131,-0.0011503174680995434
1.0000000000000007,0.005019628683698367,-0.0012369810850985652
1.2009999999999785,0.005151399798873882,-0.0011325145850334005
1.4009999999999565,0.006207825401573109,-0.0011196793322886547
1.6009999999999345,0.007493635673824509,-0.001186711219293341
1.8009999999999124,0.00962013141179851,-0.0014304396167826984
2.0009999999998906,0.011964987565036046,-0.0016259416970243387
2.2009999999998686,0.013989256433699327,-0.0016585476664152062
2.4009999999998466,0.016570975968296264,-0.001694529433022971
2.6009999999998246,0.019332553823735256,-0.0019545559740692647
2.8009999999998025,0.022363837953828142,-0.0021049132147438684
3.0009999999997805,0.025451049795659698,-0.0022108570609750944
3.2009999999997585,0.028503344838424823,-0.0022537533285426673
3.4009999999997365,0.03154751326758064,-0.002052520472256311
3.6009999999997144,0.034878721042230464,-0.0016311393122952328
3.8009999999996924,0.03797791383485187,-0.0012616747651157277
4.000999999999671,0.04156545962051271,-0.0007301113724386682
4.200999999999738,0.045248688785367135,-0.00012420719864553685
4.400999999999804,0.048807629526955824,0.0005789732007835526
4.600999999999871,0.05286067659775258,0.0014988301275441012
4.800999999999938,0.056728874036525025,0.002458828994321594
5.000000000000004,0.06085013900861503,0.0037055086261408173
5.200000000000071,0.06445496106180883,0.004951394299381368
5.400000000000138,0.06823519388489127,0.006465342296513331
5.600000000000205,0.07217422956395902,0.008144379158995517
5.800000000000272,0.07621581579420951,0.009953160254494121
6.000000000000338,0.08012418021987072,0.011941698403864878
6.200000000000405,0.08416461049276713,0.014083763030646247
6.400000000000472,0.08819227202627565,0.01630104714983486
6.600000000000539,0.09246274634260894,0.018934724486335305
6.800000000000606,0.09651260474438948,0.02137344816771877
7.000000000000672,0.10103714467630197,0.024102160928397676
7.200000000000739,0.1059344175279918,0.027160405214734444
7.400000000000806,0.11051292999625278,0.030093755430836495
7.600000000000873,0.11508891695687269,0.03310501836422573
7.8000000000009395,0.11990787854864847,0.036429803732230794
8.000000000001005,0.12499589247634073,0.03989180087748086
8.200000000000895,0.12946903298152926,0.043338420199887887
8.400000000000784,0.13391815332386367,0.046748773654833424
8.600000000000673,0.1386351136657063,0.050552130185399904
8.800000000000562,0.14311582633756031,0.054131254308309965
9.000000000000451,0.1479487781359117,0.05818426145074765
9.20000000000034,0.1522579926602496,0.06186348563564298
9.40000000000023,0.1566986530733359,0.06563967562929864
9.600000000000119,0.16146696960763512,0.06940567345306714
9.800000000000008,0.1659539802365557,0.07354491572339039
10.000999999999896,0.17036922831373674,0.0775388678357267
10.200999999999786,0.17545580115424925,0.0819603389651363
10.400999999999675,0.18015282239172062,0.08591102083018186
10.600999999999564,0.1845689741516543,0.09000972514519483
10.800999999999453,0.18888866319729236,0.09417304423889483
11.000999999999342,0.1930959463234114,0.09835102438975218
11.200999999999231,0.1983207784938325,0.10298168389516019
11.40099999999912,0.2029849140365058,0.10755315993437624
11.60099999999901,0.20765135979260696,0.11214545338412457
11.800999999998899,0.2123341633164468,0.11691629557536559
12.000999999998788,0.21773607188409774,0.12249932387877979
12.200999999998677,0.222250837939654,0.1274162155217409
12.400999999998566,0.22746283044027799,0.13416831358502482
12.600999999998455,0.23243115825400795,0.13975238624778435
12.800999999998345,0.2368416511346398,0.14496115099665097
13.000999999998234,0.2411517917894169,0.15073608672470434
13.200999999998123,0.24499786225256245,0.15496254017857242
13.400999999998012,0.24890762492988136,0.15972793946621736
13.600999999997901,0.2532931200794047,0.16485738095410876
13.80099999999779,0.2584429548565179,0.1725300458179653
14.00099999999768,0.26313898093917465,0.17791573103064795
14.200999999997569,0.26783703386730434,0.18366253599303603
14.400999999997458,0.27199635797975147,0.188824772859701
14.600999999997347,0.2760171510145905,0.19408515660088332
14.800999999997236,0.28019500957100935,0.2008308253337999
15.000999999997125,0.2846719329479707,0.20885798759773727
15.200999999997014,0.28893136395122504,0.21564966530422158
15.400999999996904,0.29335275652511084,0.223991120785562
15.600999999996793,0.2984747521796245,0.23308866373804937
15.800999999996682,0.3034398261110041,0.24092417063685428
16.000999999996573,0.3074229004403547,0.2491736734110051
16.200999999996817,0.31183382494937784,0.2580236687031656
16.40099999999706,0.3166251122859916,0.2668547041592411
16.600999999997306,0.3201473297269959,0.2729899046750034
16.80099999999755,0.3234862343702268,0.2802276935469171
17.000999999997795,0.32732151195988335,0.28885821671285
17.20099999999804,0.33106915654341473,0.2957335124394251
17.400999999998284,0.3343954039652465,0.30310933501653015
17.60099999999853,0.3378261284200506,0.30966306330297955
17.800999999998773,0.340807143007916,0.3181437997447486
18.000999999999017,0.343606181296209,0.3273100542061079
18.20099999999926,0.34604394031949953,0.33585457063513063
18.400999999999506,0.3477778706050889,0.34458998658414763
18.60099999999975,0.3492227771438544,0.35322882789427745
18.799999999999994,0.3501871701083861,0.36164487980963833
19.000000000000238,0.3514858824542579,0.37102915823388366
19.200000000000482,0.3521396853958128,0.37991367817216065
19.400000000000727,0.35269417943640713,0.3885937395828079
19.60000000000097,0.35366974931209516,0.3965506646987528
19.800000000001216,0.35319728697816344,0.4050298435225368
20.00000000000146,0.3519829906967326,0.413563919246616
