Time (s),X (m),Y (m)
0.001,0.00033312994539159724,-0.0010275501737767782
0.20000000000000015,0.0009743419334340705,0.0002402535502514259
0.4000000000000003,0.0018682082751946413,0.0014150394689071229
0.6000000000000004,0.00592231825119181,0.003759668236237555
0.8000000000000006,0.013227802354374717,0.016553365892660835
1.0000000000000007,0.022381091453199782,0.026952978782584267
1.2009999999999785,0.028117493639404693,0.030870310735588304
1.4009999999999565,0.03375949146874565,0.03622995859868597
1.6009999999999345,0.04469207027840123,0.03710868901284147
1.8009999999999124,0.05811000734631512,0.03480253851242965
2.0009999999998906,0.06753720742608349,0.030035692179398884
2.2009999999998686,0.07881643758767524,0.030685887854217053
2.4009999999998466,0.09396529257876945,0.034545190614885174
2.6009999999998246,0.10840693196208422,0.030852511241629743
2.8009999999998025,0.1214421758451249,0.029214004039594257
3.0009999999997805,0.1345795227577558,0.022369993087953437
3.2009999999997585,0.1447003902869895,0.01813249515088311
3.4009999999997365,0.15414046863000752,0.017275339072411394
3.6009999999997144,0.16660591184798426,0.015171478141914102
3.8009999999996924,0.1777444266940572,0.009164517072846006
4.000999999999671,0.18591300301924663,0.002578413634920711
4.200999999999738,0.19420977069012613,0.008405117754366238
4.400999999999804,0.20386308771996575,0.008749458143240105
4.600999999999871,0.21791859812264663,0.008027984125470943
4.800999999999938,0.2326582467948422,0.006237766441281616
5.000000000000004,0.24565779583653896,-0.0062462906731895335
5.200000000000071,0.2606775053042104,-0.012861083855260299
5.400000000000138,0.2755910131434723,-0.016128800839737407
5.600000000000205,0.28827817672390754,-0.025821074210855974
5.800000000000272,0.3020805661155756,-0.0283224070480384
6.000000000000338,0.3191489024204513,-0.02599530939206135
6.200000000000405,0.3367092529643738,-0.030537282511478272
6.400000000000472,0.3529097848877159,-0.034248767778027114
6.600000000000539,0.37024021618644254,-0.02815431590389366
6.800000000000606,0.3868430498068789,-0.02902437669391386
7.000000000000672,0.4064522048009657,-0.029110240677240825
7.200000000000739,0.43018632018470043,-0.020144901213608814
7.400000000000806,0.44578123951023474,-0.020166659035305595
7.600000000000873,0.4534293934285199,-0.024912914680222456
7.8000000000009395,0.4657771895129747,-0.01960652379215281
8.000000000001005,0.4787405385662068,-0.018299792801663918
8.200000000000895,0.48973077106220547,-0.02491110874580258
8.400000000000784,0.5041165201934831,-0.02610243952037977
8.600000000000673,0.522828619873896,-0.02743405140009436
8.800000000000562,0.5427362259788456,-0.025935731660498767
9.000000000000451,0.5597027369850863,-0.01766674702266097
9.20000000000034,0.5769723960030599,-0.01110716179210875
9.40000000000023,0.5909419985749981,-0.012694528820639843
9.600000000000119,0.6070382465523847,-0.01931129620987064
9.800000000000008,0.6205558360030267,-0.037926841521572247
10.000999999999896,0.6349857943190156,-0.05290921120279014
10.200999999999786,0.6567799064239587,-0.04773923338114594
10.400999999999675,0.677666651675155,-0.04385097124918104
10.600999999999564,0.6955523652523861,-0.042564500368804
10.800999999999453,0.706054398102027,-0.05553705084519031
11.000999999999342,0.7172772004067508,-0.05664455396412404
11.200999999999231,0.7305232603288672,-0.05621007796389436
11.40099999999912,0.7470085866206354,-0.052918487003303656
11.60099999999901,0.7572813159314475,-0.0563820004148156
11.800999999998899,0.7687731877259077,-0.055459741306982
12.000999999998788,0.7819950318481738,-0.05686957322134971
12.200999999998677,0.7985541410664219,-0.0519056751961319
12.400999999998566,0.8161566840736704,-0.050359196640893195
12.600999999998455,0.8337147109880548,-0.05365625508962884
12.800999999998345,0.8528225891902455,-0.05050699949350183
13.000999999998234,0.8701812252647697,-0.046208109737233265
13.200999999998123,0.8921314931159551,-0.04250592375448596
13.400999999998012,0.9169982883276308,-0.029970185788395765
13.600999999997901,0.9395711125142712,-0.024518602479275734
13.80099999999779,0.9553557681178874,-0.02851239456541971
14.00099999999768,0.974081562180974,-0.02828535679940107
14.200999999997569,0.997579142919213,-0.02428282745064454
14.400999999997458,1.0204548024444886,-0.019741439849754502
14.600999999997347,1.0480569704319096,-0.009840962219884865
14.800999999997236,1.0674688664737182,-0.003513744379739765
15.000999999997125,1.0888745387367003,-0.0037312155080771315
15.200999999997014,1.1093637536639636,0.0008219249088941893
15.400999999996904,1.1321287663325137,0.007534631791787043
15.600999999996793,1.1542544138856496,0.008944662868525072
15.800999999996682,1.1737062709509871,0.013703737596201209
16.000999999996573,1.195626558896933,0.015481160350751422
16.200999999996817,1.2169619942533467,0.007285700605424248
16.40099999999706,1.2350353065091946,-0.0005098800193223919
16.600999999997306,1.2491263522417024,-0.004333140382286062
16.80099999999755,1.2677645074500838,0.0035347650854088684
17.000999999997795,1.2892316860672457,0.005856008097411091
17.20099999999804,1.313723770355693,0.005166905590714469
17.400999999998284,1.3345869142053999,0.004898721401025722
17.60099999999853,1.3456023060990354,0.00404625690985489
17.800999999998773,1.3567049908893685,-0.0003793735863742076
18.000999999999017,1.3692010993358374,-0.00818487951700992
18.20099999999926,1.3803484224214424,-0.014582000032015627
18.400999999999506,1.3933376366236867,-0.016314435322572703
18.60099999999975,1.4089418685671673,-0.016778407893721092
18.799999999999994,1.4308198997146362,-0.0078009374298972315
19.000000000000238,1.451329327574656,-0.0053755140374641295
19.200000000000482,1.4693663170682594,-0.003256724297079842
19.400000000000727,1.4859640604287543,-0.00260418387866694
19.60000000000097,1.5069867795447711,0.006906369900732532
19.800000000001216,1.527726527367515,0.011024306253934395
20.00000000000146,1.5472759172425194,0.018208085418608886
