Time (s),X (m),Y (m)
0.001,0.00024391513958915793,-0.0010158048217711122
0.20000000000000015,0.0007526894534770921,-0.00030583454332659937
0.4000000000000003,0.0015254845723751732,-0.00015663996654512752
0.6000000000000004,0.0035982123260237054,0.0008105676826027382
0.8000000000000006,0.006368348665698328,0.002468177709448803
1.0000000000000007,0.00930834365490024,0.003248750782826405
1.2009999999999785,0.009756751397844184,0.002389522983995556
1.4009999999999565,0.010902499041148534,0.002589929968327829
1.6009999999999345,0.012742722096226167,0.0009122257229051571
1.8009999999999124,0.013692534842768814,0.0037857148998484656
2.0009999999998906,0.016944480039946593,0.005682612219117839
2.2009999999998686,0.019460832054195763,0.006827736390505728
2.4009999999998466,0.022606390092696983,0.00596371775002
2.6009999999998246,0.025194811036251707,0.008153879493470404
2.8009999999998025,0.029041254638071348,0.008404914710937194
3.0009999999997805,0.0319165188941703,0.00912695521140456
3.2009999999997585,0.036986212598164425,0.008290832989263813
3.4009999999997365,0.04135162816675007,0.006396968251559081
3.6009999999997144,0.04522762387474425,0.0055687793183577805
3.8009999999996924,0.0498748181845444,0.0036988504533893964
4.000999999999671,0.05345580326997697,0.0009184624841709658
4.200999999999738,0.057324842576458854,0.0013490526548833545
4.400999999999804,0.060389192604633636,0.0003708010341740176
4.600999999999871,0.06430785097972518,0.0006754324595535854
4.800999999999938,0.0699324920624943,0.0012919044055663591
5.000000000000004,0.07583320469898243,0.0024994386896437623
5.200000000000071,0.08089142288525349,0.002999855038819648
5.400000000000138,0.08570535445497424,0.002802595264454402
5.600000000000205,0.09260882469279579,0.003020953990196265
5.800000000000272,0.09568209586579329,-0.0004579902908936432
6.000000000000338,0.10015107875934223,-0.0005176538071042376
6.200000000000405,0.10458134309285247,-0.0008103043616570156
6.400000000000472,0.10914339667373144,-0.0008966228649984019
6.600000000000539,0.11485824163761275,-0.0010292545481471115
6.800000000000606,0.11863125810314903,-0.0039971523464072895
7.000000000000672,0.12191620988822313,-0.005981091522259387
7.200000000000739,0.12698305652057146,-0.008801898409805026
7.400000000000806,0.13271373867877712,-0.007768545335776994
7.600000000000873,0.1400997813480537,-0.006907534097411011
7.8000000000009395,0.14684571459301793,-0.007099669449613031
8.000000000001005,0.15183696524700815,-0.007324190024365467
8.200000000000895,0.15606273622608968,-0.00901772521552844
8.400000000000784,0.1605384697173628,-0.008938331103364113
8.600000000000673,0.16642772625690908,-0.010812382332798746
8.800000000000562,0.17138015712744933,-0.012210205616980848
9.000000000000451,0.1745701426417743,-0.012578301218109154
9.20000000000034,0.18094838199880053,-0.012923772932943027
9.40000000000023,0.18591385848175604,-0.014103769425580023
9.600000000000119,0.19116346305348839,-0.01202102806042287
9.800000000000008,0.19739039262785998,-0.012814982076125307
10.000999999999896,0.2006090164605411,-0.01571745741526009
10.200999999999786,0.2080754428238133,-0.012510057727829886
10.400999999999675,0.211125828305468,-0.016704903122567536
10.600999999999564,0.21390779093612436,-0.02011269690235908
10.800999999999453,0.2171822817261757,-0.02186789053717131
11.000999999999342,0.22457532696311078,-0.022285227115444135
11.200999999999231,0.22883785653744357,-0.024705733758265618
11.40099999999912,0.23239410607550784,-0.025931829034661177
11.60099999999901,0.23679641240535004,-0.028408193326256152
11.800999999998899,0.24284018101668714,-0.02850694939667489
12.000999999998788,0.2482896930414488,-0.026384907604029145
12.200999999998677,0.25404690741822955,-0.025494127253562534
12.400999999998566,0.25938811475546647,-0.026670837785002337
12.600999999998455,0.26371875427848424,-0.02806281097493847
12.800999999998345,0.26933377569911904,-0.027587309060724163
13.000999999998234,0.2746970736803263,-0.028289218202363707
13.200999999998123,0.2815146712634165,-0.030383138661366067
13.400999999998012,0.2848734557394738,-0.03161357656723329
13.600999999997901,0.29216941863635165,-0.031555048762599014
13.80099999999779,0.2979295421205763,-0.03025901561852447
14.00099999999768,0.30289733993779583,-0.0321311257607113
14.200999999997569,0.30855605935743186,-0.033636666743271135
14.400999999997458,0.31351479977005026,-0.038071071041280866
14.600999999997347,0.3187704784915752,-0.03870072271860514
14.800999999997236,0.32440433102414895,-0.039622605204752415
15.000999999997125,0.3303344235482315,-0.04111495709893937
15.200999999997014,0.33661206793951215,-0.039827295201964666
15.400999999996904,0.341365346801235,-0.04084309959719317
15.600999999996793,0.3454438117832858,-0.04136747054485302
15.800999999996682,0.3525720210086152,-0.04258900641346307
16.000999999996573,0.357465952647171,-0.04398446017678665
16.200999999996817,0.3613102725295649,-0.047192005491915864
16.40099999999706,0.3654564788634149,-0.049141141937452525
16.600999999997306,0.37161543915725037,-0.04782128685804306
16.80099999999755,0.3784750570314832,-0.043633573382656006
17.000999999997795,0.38358759769890416,-0.04477234895635209
17.20099999999804,0.3891644455686093,-0.04579810317156982
17.400999999998284,0.3927774238840253,-0.04698315407136087
17.60099999999853,0.3962076734704337,-0.04753866116339808
17.800999999998773,0.4021610616562191,-0.047639793745588695
18.000999999999017,0.4089606115359604,-0.04825958875183603
18.20099999999926,0.4145542770971983,-0.048910715378919375
18.400999999999506,0.42044342913511845,-0.049725527319563805
18.60099999999975,0.42708692825362665,-0.0504796566293239
18.799999999999994,0.43430624591767264,-0.049116651399871404
19.000000000000238,0.4417439343656925,-0.04556611310537954
19.200000000000482,0.4485921387899124,-0.04722822910811204
19.400000000000727,0.4535804928846527,-0.04816042639258499
19.60000000000097,0.46002654504936086,-0.05297312113812298
19.800000000001216,0.4625900258730652,-0.05520492835962201
20.00000000000146,0.46739997735004357,-0.05471923111284259
