Time (s),X (m),Y (m)
0.001,0.0012131848191356664,0.000663019509439443
0.20000000000000015,0.0009138071187539983,0.00010358774049537461
0.4000000000000003,0.009405156776737346,0.0016820412466526937
0.6000000000000004,0.013193376617512947,0.0002985698189937239
0.8000000000000006,0.019279693370833684,-0.0004439147823049897
1.0000000000000007,0.03302029589028889,0.004699158754381989
1.2009999999999785,0.03398664137727903,0.006296240082658745
1.4009999999999565,0.03285312181267178,0.0050334953774141405
1.6009999999999345,0.040717418796414426,0.007337186084031974
1.8009999999999124,0.05681781287362308,0.015270326084982822
2.0009999999998906,0.07247337076622674,0.021074915193795795
2.2009999999998686,0.08820316147742881,0.024015610287331245
2.4009999999998466,0.10363091464186246,0.027127671153375117
2.6009999999998246,0.1237823421247528,0.030936503066681238
2.8009999999998025,0.13596068143759796,0.03135585300736972
3.0009999999997805,0.15590150564024247,0.032329447548734
3.2009999999997585,0.17753223794747452,0.02694752324741082
3.4009999999997365,0.2039613067797909,0.023578086611483886
3.6009999999997144,0.2264364158990978,0.022688783860883955
3.8009999999996924,0.24386874830381775,0.015884195939015754
4.000999999999671,0.2568869911457544,0.010786544498544104
4.200999999999738,0.27861992272422065,0.00490988484749594
4.400999999999804,0.29283679638073146,-0.0036473723893531928
4.600999999999871,0.3126042079544006,-0.009663348927025972
4.800999999999938,0.3382305721327219,-0.021829339596445046
5.000000000000004,0.36326974415805063,-0.030116418159226
5.200000000000071,0.3830279099904575,-0.034186158347931574
5.400000000000138,0.3999788614142777,-0.036889347218876815
5.600000000000205,0.42169614300548297,-0.04360132080936837
5.800000000000272,0.4529840701794709,-0.05076574102821008
6.000000000000338,0.4847148475919911,-0.06580818383430562
6.200000000000405,0.5212383188934037,-0.09372662132957939
6.400000000000472,0.564562615927311,-0.12342300124766627
6.600000000000539,0.5946140803259667,-0.15744020186205754
6.800000000000606,0.6261945221840137,-0.1980417662466013
7.000000000000672,0.6619920525957514,-0.23666373126885276
7.200000000000739,0.6996273551196242,-0.26581841082522395
7.400000000000806,0.7463514073809903,-0.28024541429285077
7.600000000000873,0.7874467277509309,-0.28598109598771465
7.8000000000009395,0.8190181084241464,-0.2903327607870261
8.000000000001005,0.8620259381235091,-0.29217298389273416
8.200000000000895,0.9131410699084066,-0.2848040910711128
8.400000000000784,0.9613299933931647,-0.2767698702361834
8.600000000000673,1.00206638945474,-0.2698602089219169
8.800000000000562,1.0371246257592233,-0.26322759766784404
9.000000000000451,1.07243707718574,-0.2589799782848852
9.20000000000034,1.106571288010517,-0.26917555357740547
9.40000000000023,1.13906501600553,-0.2938217326912937
9.600000000000119,1.1737613863818006,-0.3230816137505604
9.800000000000008,1.2207430126609478,-0.34841663766410924
10.000999999999896,1.2631794559777512,-0.36734674015943575
10.200999999999786,1.3136995675052825,-0.38257627609741673
10.400999999999675,1.3531729220293833,-0.39031158069725375
10.600999999999564,1.396445904573952,-0.39680218348616053
10.800999999999453,1.4366231875023403,-0.40669698891037165
11.000999999999342,1.478915177372776,-0.4235375632188233
11.200999999999231,1.5288752356090256,-0.4351403898906638
11.40099999999912,1.5768018793433918,-0.43306329657557163
11.60099999999901,1.6171335961769127,-0.42189527705332097
11.800999999998899,1.6671116714084648,-0.4086555851799714
12.000999999998788,1.7122699397630756,-0.39310971422654223
12.200999999998677,1.7612022238469764,-0.37627835624916817
12.400999999998566,1.8074412235429054,-0.366420448996639
12.600999999998455,1.8489782818352043,-0.35918544005216985
12.800999999998345,1.8943116505435287,-0.34608572368853147
13.000999999998234,1.9434068856396511,-0.3252660603202778
13.200999999998123,1.9908891276192398,-0.2930520566737169
13.400999999998012,2.036915155243826,-0.260556284101954
13.600999999997901,2.0837780722599315,-0.2354560370839534
13.80099999999779,2.1346422812913914,-0.20196594857995
14.00099999999768,2.18278873667067,-0.1689117921823542
14.200999999997569,2.224005536845288,-0.1474550297095171
14.400999999997458,2.2592160367231244,-0.1198781257650981
14.600999999997347,2.292979124718042,-0.09607277886114013
14.800999999997236,2.329799259352006,-0.07682592420741116
15.000999999997125,2.3655544221356326,-0.04615204227740368
15.200999999997014,2.3963303715596935,-0.009004375178875427
15.400999999996904,2.428156812636648,0.033671347816518905
15.600999999996793,2.456099496173657,0.06776382280713526
15.800999999996682,2.485611714465027,0.12237926041396857
16.000999999996573,2.5124398363650204,0.16427767108904623
16.200999999996817,2.5489192312258266,0.20166649462497838
16.40099999999706,2.5971485986770007,0.24468781896513886
16.600999999997306,2.6485885166297622,0.2758155736874054
16.80099999999755,2.692307695693383,0.3205549822446764
17.000999999997795,2.7212832440243657,0.3782644813788202
17.20099999999804,2.7371988555828706,0.43611488980487334
17.400999999998284,2.7477339983883255,0.4896588412837584
17.60099999999853,2.7543331992514797,0.5469180598199995
17.800999999998773,2.76559539747391,0.5985324804835955
18.000999999999017,2.7863345487723796,0.6371928926195403
18.20099999999926,2.813113114718784,0.6758008884794472
18.400999999999506,2.845854597128586,0.7093755456772498
18.60099999999975,2.878169274172959,0.7405084201949697
18.799999999999994,2.8993460760825807,0.7756522036890012
19.000000000000238,2.9052270505602364,0.8190855535146673
19.200000000000482,2.900679304637305,0.8787112365322625
19.400000000000727,2.890295236516397,0.9402514489635435
19.60000000000097,2.880165260822592,0.9980078662978543
19.800000000001216,2.8756114415257836,1.0509940497634405
20.00000000000146,2.8743010479988382,1.1072250717913847
