Time (s),X (m),Y (m)
0.001,-0.00030633420604509907,0.0007293631428462583
0.20000000000000015,0.0014813599438193194,-0.0009063274869232862
0.4000000000000003,-2.337592882271016e-05,-0.0006477261768202485
0.6000000000000004,0.0050973080380501655,0.0028869702892753237
0.8000000000000006,0.014616706987912073,0.007193513429470892
1.0000000000000007,0.025389493250541212,0.010089877732721454
1.2009999999999785,0.0353062987801132,0.014059391462480435
1.4009999999999565,0.04698961310891129,0.004946527737299151
1.6009999999999345,0.061038359281165896,-0.005718105713401651
1.8009999999999124,0.07403489686405346,0.0011917340976169064
2.0009999999998906,0.0899860296888196,-0.003183371980013669
2.2009999999998686,0.10613125153860312,-0.0158100665205899
2.4009999999998466,0.11946016176552816,-0.01934419551842954
2.6009999999998246,0.1319410071876056,-0.017408242136505426
2.8009999999998025,0.1412688335806761,-0.00807962495972079
3.0009999999997805,0.1548607381782237,-0.011772166112067741
3.2009999999997585,0.16720119846684056,-0.024328373941776817
3.4009999999997365,0.17602732175030394,-0.042675123115291744
3.6009999999997144,0.18076093957177516,-0.05775460510921362
3.8009999999996924,0.18690755595889305,-0.05836178441559414
4.000999999999671,0.19391740196706048,-0.06200518958649357
4.200999999999738,0.2014306540260239,-0.07101886406333842
4.400999999999804,0.20788593177637865,-0.08716155556888215
4.600999999999871,0.20975943928230342,-0.10040383001449374
4.800999999999938,0.2074781530720238,-0.1260191904996141
5.000000000000004,0.20393895806955342,-0.15228774858425909
5.200000000000071,0.19807141025172229,-0.17987465035497313
5.400000000000138,0.19538211023407343,-0.20177520520719774
5.600000000000205,0.19366311823097856,-0.22735703069624902
5.800000000000272,0.2000716568304008,-0.2392657975526518
6.000000000000338,0.2142832756948748,-0.24593354075551496
6.200000000000405,0.21712866720117543,-0.27453933197972874
6.400000000000472,0.2145225585087391,-0.3042513780932776
6.600000000000539,0.21954514644603626,-0.32119183827476533
6.800000000000606,0.21278484429736153,-0.34632882933063774
7.000000000000672,0.2053350529175028,-0.3696321982955378
7.200000000000739,0.1969049463844589,-0.3954151708413154
7.400000000000806,0.18658951020054831,-0.42329120366540585
7.600000000000873,0.1778457879015684,-0.44993903726121864
7.8000000000009395,0.1715750452256582,-0.4768208517377306
8.000000000001005,0.16353436690468018,-0.5032100333096924
8.200000000000895,0.16140082607127662,-0.5336341744249987
8.400000000000784,0.15419728353670148,-0.5706747184165075
8.600000000000673,0.15563868054167815,-0.5995574280141065
8.800000000000562,0.13986584666785692,-0.6323339798537042
9.000000000000451,0.13016489780438237,-0.661991860541325
9.20000000000034,0.1266188750591237,-0.6903933516110873
9.40000000000023,0.111702329768818,-0.7181290186286311
9.600000000000119,0.08756426025176609,-0.7484443015190368
9.800000000000008,0.07722318719686903,-0.7757320860702266
10.000999999999896,0.07069651141357072,-0.7979879664103839
10.200999999999786,0.05669305548098245,-0.8227380710169825
10.400999999999675,0.043509300490805904,-0.8485787604556464
10.600999999999564,0.02244490218069965,-0.8800892133753816
10.800999999999453,-0.001431428445388604,-0.916237033531427
11.000999999999342,-0.022064349983976505,-0.9523757448709591
11.200999999999231,-0.03337581659767424,-0.9818169325582518
11.40099999999912,-0.05623196825332269,-1.004285387205274
11.60099999999901,-0.09431485519412748,-1.0177396225912536
11.800999999998899,-0.13493775587206025,-1.0275872643869826
12.000999999998788,-0.18140147957448666,-1.0305092744439117
12.200999999998677,-0.23199414736508475,-1.0255802047515452
12.400999999998566,-0.28168823167430457,-1.016668485988988
12.600999999998455,-0.32402289907065834,-1.002948805437117
12.800999999998345,-0.35743973504950916,-0.9933272043866311
13.000999999998234,-0.4014999118030073,-0.9840382702985918
13.200999999998123,-0.4447141735127207,-0.9714584852628246
13.400999999998012,-0.48760558298461754,-0.960831940352104
13.600999999997901,-0.5331546768995652,-0.9509294870720577
13.80099999999779,-0.5695914813431631,-0.9439616766478935
14.00099999999768,-0.6001157263618051,-0.9413482851661151
14.200999999997569,-0.6334303131057829,-0.937268179356894
14.400999999997458,-0.6634529083599939,-0.9341063677480377
14.600999999997347,-0.6971392042834164,-0.9315728137383524
14.800999999997236,-0.7378262320971917,-0.9260570396494102
15.000999999997125,-0.7801184170347087,-0.916529943566833
15.200999999997014,-0.8191730903782891,-0.9058015158753902
15.400999999996904,-0.8365767729410596,-0.9007918642655548
15.600999999996793,-0.8639160034799018,-0.8956660297938175
15.800999999996682,-0.9077533617031037,-0.8865289792235421
16.000999999996573,-0.9535761972667955,-0.8815503944377228
16.200999999996817,-1.0050277386598674,-0.8685335665039102
16.40099999999706,-1.0544200452451737,-0.8521552799049384
16.600999999997306,-1.0990734830365758,-0.8311229286793221
16.80099999999755,-1.133165227360842,-0.81849762159462
17.000999999997795,-1.1709058223401685,-0.8022846304589406
17.20099999999804,-1.2060083880318495,-0.7915785976722673
17.400999999998284,-1.247166793695189,-0.7835835150333971
17.60099999999853,-1.2933067401250986,-0.7753824305609797
17.800999999998773,-1.3354195795854125,-0.7733686456870232
18.000999999999017,-1.3778277839208017,-0.7677128085335397
18.20099999999926,-1.4148031149071243,-0.7502139304978928
18.400999999999506,-1.4424075801915262,-0.7416948235145836
18.60099999999975,-1.4696787984385686,-0.7208705753969675
18.799999999999994,-1.4989717324863812,-0.7054087345448209
19.000000000000238,-1.529919186672317,-0.6785342661125602
19.200000000000482,-1.548181331414273,-0.650669635813383
19.400000000000727,-1.5504236762068186,-0.6120903801044846
19.60000000000097,-1.5382412455236174,-0.5726084506411829
19.800000000001216,-1.5290602323665947,-0.5336332881063157
20.00000000000146,-1.5181973382368008,-0.4892380673972548
