Time (s),X (m),Y (m)
0.001,0.001086048446240603,0.0007901558823345071
0.20000000000000015,0.000827185131941263,-9.697918516975866e-05
0.4000000000000003,0.002191389267141092,0.0001820229154465851
0.6000000000000004,0.005615245673571658,-3.714257698340817e-05
0.8000000000000006,0.01220960829982738,0.004815901210172422
1.0000000000000007,0.015250613460852044,0.003996972341280993
1.2009999999999785,0.018199500306145852,0.0018331493237335754
1.4009999999999565,0.0255868450831135,0.009291959695884458
1.6009999999999345,0.04035288829075443,0.021774935331230233
1.8009999999999124,0.049030671318317356,0.026677350713235615
2.0009999999998906,0.05402146186404579,0.03302761096697985
2.2009999999998686,0.061109768269617136,0.03669369155785856
2.4009999999998466,0.07055604529645114,0.04037541681639767
2.6009999999998246,0.08113757428004484,0.04579955511084914
2.8009999999998025,0.08955476169934876,0.047750273363233633
3.0009999999997805,0.09879000482189634,0.04573386707147791
3.2009999999997585,0.10606920051248697,0.04431517949585062
3.4009999999997365,0.11505294049631609,0.052521244519285075
3.6009999999997144,0.12593193600900246,0.05946603921975301
3.8009999999996924,0.13432391533409824,0.0680596905502766
4.000999999999671,0.1446505715267835,0.07525351701506322
4.200999999999738,0.15514798379076378,0.0805978195696722
4.400999999999804,0.16469990117333572,0.09424060656173074
4.600999999999871,0.17469423685776683,0.10567603589339299
4.800999999999938,0.1829321627038953,0.10772445323387496
5.000000000000004,0.18932191780986557,0.1186114745319391
5.200000000000071,0.19567301125978245,0.1282504793156959
5.400000000000138,0.20360937091033934,0.14102013142885098
5.600000000000205,0.21068512886823534,0.14932539605983794
5.800000000000272,0.21273236541644752,0.15184821112001878
6.000000000000338,0.21514625720727618,0.1588466322422788
6.200000000000405,0.2213784836840249,0.16317365332142428
6.400000000000472,0.22772408528497634,0.16986652112871828
6.600000000000539,0.23125779842258049,0.1781166550605405
6.800000000000606,0.23664518122920855,0.1864947698321301
7.000000000000672,0.24353477574323276,0.2001780475605147
7.200000000000739,0.24889247491428615,0.2176261677562752
7.400000000000806,0.2530511859485555,0.239346488466858
7.600000000000873,0.25827567474849117,0.25298625185543716
7.8000000000009395,0.2623836936785103,0.2815115711150299
8.000000000001005,0.26495199375950346,0.30712431120216344
8.200000000000895,0.2667539298642512,0.324046310261455
8.400000000000784,0.2698924333308533,0.33816602700321
8.600000000000673,0.2774494908703188,0.3491827243731028
8.800000000000562,0.2843354487565947,0.3703872676326236
9.000000000000451,0.29046642042529247,0.3919427767580416
9.20000000000034,0.2980066291748466,0.39967643312422646
9.40000000000023,0.305064331822919,0.4105656087315072
9.600000000000119,0.31175838478214,0.42464288624871666
9.800000000000008,0.31418355242681817,0.4413601999557765
10.000999999999896,0.3176467823482929,0.4638599681011481
10.200999999999786,0.32390640123028447,0.4715186926112187
10.400999999999675,0.3255322072144717,0.4862878096869762
10.600999999999564,0.3277601479521755,0.5057862744573616
10.800999999999453,0.3247564055258719,0.5221516580299423
11.000999999999342,0.32157918446270056,0.535226397642644
11.200999999999231,0.32127405108593277,0.5490682217190126
11.40099999999912,0.31632118293396644,0.5692865691317596
11.60099999999901,0.30725843710112816,0.5912579732070381
11.800999999998899,0.2969476741635127,0.6145780531472917
12.000999999998788,0.2949503476385798,0.633102246369175
12.200999999998677,0.2906781034011379,0.6538052424703664
12.400999999998566,0.28525536146226516,0.6735197737280604
12.600999999998455,0.27596917366646734,0.6966484464135747
12.800999999998345,0.26633493549893417,0.7193013199050697
13.000999999998234,0.24988893726358108,0.7460493768122608
13.200999999998123,0.23868323662252403,0.7682900491954634
13.400999999998012,0.2320214109319032,0.7857597033660038
13.600999999997901,0.22218642783498496,0.8079568844615064
13.80099999999779,0.21489604780673294,0.8292617179966837
14.00099999999768,0.20314395999499008,0.8507085346127486
14.200999999997569,0.19444819120946896,0.8705191039758454
14.400999999997458,0.1854788849821411,0.8886739592232923
14.600999999997347,0.1710178138750525,0.9031330346138504
14.800999999997236,0.15333375442778374,0.9140374606550395
15.000999999997125,0.134303099035481,0.9228271897670163
15.200999999997014,0.11447611310466882,0.9361251735731416
15.400999999996904,0.09971149341908479,0.9483508267582043
15.600999999996793,0.08246794079755777,0.9577132745476388
15.800999999996682,0.0721903504192733,0.9610418593689748
16.000999999996573,0.05725097095789126,0.9619600485839267
16.200999999996817,0.039554948913707054,0.9665534515314794
16.40099999999706,0.015039441922784105,0.968633473857631
16.600999999997306,-0.013822691229887673,0.9707856872670586
16.80099999999755,-0.04581745682481464,0.967771054782208
17.000999999997795,-0.06864205619515046,0.9643235195851513
17.20099999999804,-0.09205881281228609,0.9578921422116784
17.400999999998284,-0.11837725205519402,0.9537869673957406
17.60099999999853,-0.14068767077170377,0.9478990970446686
17.800999999998773,-0.163055509957323,0.9467182614916411
18.000999999999017,-0.1752016260880812,0.9519637073693185
18.20099999999926,-0.1873680900268596,0.9564106693174144
18.400999999999506,-0.2002371748713439,0.9570341336547481
18.60099999999975,-0.21825546896151038,0.9555993688557833
18.799999999999994,-0.2427849520452253,0.9460271066848704
19.000000000000238,-0.26382729977883185,0.9386121337501017
19.200000000000482,-0.29145738567906065,0.9210387856152447
19.400000000000727,-0.31834800975370475,0.907985979483825
19.60000000000097,-0.3405058287974321,0.8952150347677307
19.800000000001216,-0.3623762035219131,0.883336250137464
20.00000000000146,-0.38243684388395854,0.8693056500167794
