Time (s),X (m),Y (m)
0.001,-9.270868745296317e-05,-0.0008932837685830058
0.20000000000000015,0.0008362393321863657,-4.127307530710279e-05
0.4000000000000003,0.001728796730336266,0.00011795466955740688
0.6000000000000004,0.0032138265705020943,-0.0004603785520962425
0.8000000000000006,0.006682715120024368,0.002031480693660309
1.0000000000000007,0.0104650549826446,0.0023431585484271333
1.2009999999999785,0.009876710431126926,0.0013763329838585973
1.4009999999999565,0.010358103138058324,0.0013111484530005033
1.6009999999999345,0.012329441173514125,0.0017101738044671575
1.8009999999999124,0.019889225588598004,0.00936391514205538
2.0009999999998906,0.02603354536540887,0.009228487079002926
2.2009999999998686,0.03125806923659523,0.009102595775961949
2.4009999999998466,0.03745861262995663,0.011932199011979153
2.6009999999998246,0.04330986569351555,0.015318210580538554
2.8009999999998025,0.04768534676214097,0.019682220782865873
3.0009999999997805,0.05275654028019198,0.027689373248425558
3.2009999999997585,0.05706780916791892,0.027910645608708155
3.4009999999997365,0.05860340081086977,0.03247642411908309
3.6009999999997144,0.06264564173794661,0.037172001587959476
3.8009999999996924,0.06661476572192865,0.041354908037236286
4.000999999999671,0.07456992587014666,0.048747559428001914
4.200999999999738,0.08084235919109932,0.05075935715166324
4.400999999999804,0.08506381138310817,0.053037503117376976
4.600999999999871,0.08676038869390588,0.05202195344422635
4.800999999999938,0.08938319819855453,0.05473779971832658
5.000000000000004,0.09289962835830404,0.055845882719767447
5.200000000000071,0.09683318617729465,0.05831706831910025
5.400000000000138,0.09999574714484115,0.06023874320092179
5.600000000000205,0.1062676381308286,0.05993762450966194
5.800000000000272,0.11081838998570469,0.061829796951850764
6.000000000000338,0.11752656494821632,0.06525149585248723
6.200000000000405,0.12364865255505675,0.07079401496114056
6.400000000000472,0.12754599625101765,0.07235924230700613
6.600000000000539,0.13456038227356004,0.0712311735410587
6.800000000000606,0.14462224297538137,0.07473206214596018
7.000000000000672,0.14860765347619206,0.07642478254973313
7.200000000000739,0.15555964666940367,0.07861512087791736
7.400000000000806,0.1598282868812485,0.07763379014893204
7.600000000000873,0.16497648884560173,0.07815552584203769
7.8000000000009395,0.17185855474782852,0.08179746969771033
8.000000000001005,0.18184056631550027,0.08390263716639808
8.200000000000895,0.19003611475666893,0.09037445387570965
8.400000000000784,0.19841053133660952,0.10209001457604432
8.600000000000673,0.2102208069758011,0.1141856340400834
8.800000000000562,0.22168021127276194,0.12149892530121473
9.000000000000451,0.23238768705523985,0.1303253749390184
9.20000000000034,0.24135934196842138,0.13799977806552804
9.40000000000023,0.25283595646507445,0.14919006203189084
9.600000000000119,0.2614974942291659,0.1552869000869743
9.800000000000008,0.26856670195083215,0.15914688686138534
10.000999999999896,0.2753107135224035,0.1693343259858901
10.200999999999786,0.28168944406731156,0.17958220239980882
10.400999999999675,0.29010609942464133,0.18566492728488584
10.600999999999564,0.29731517614318304,0.19569729743400757
10.800999999999453,0.30582544348231566,0.20610631149041445
11.000999999999342,0.31054101368591686,0.21953347496238984
11.200999999999231,0.31383617896521504,0.23195135610928103
11.40099999999912,0.31663058868086996,0.2457658327384324
11.60099999999901,0.3202956067913946,0.25695100656193204
11.800999999998899,0.3234404263834121,0.27050042727091367
12.000999999998788,0.3280932557608588,0.2747658193266377
12.200999999998677,0.3320026921247816,0.286989438842656
12.400999999998566,0.33456959654254526,0.30412091818535125
12.600999999998455,0.3374295046225309,0.323556302750712
12.800999999998345,0.33857952268734115,0.3415413556372444
13.000999999998234,0.3408762290350837,0.35774043004172495
13.200999999998123,0.3427697230693101,0.3724540004074846
13.400999999998012,0.3412579613653753,0.39085749092618066
13.600999999997901,0.3398109287719285,0.40442722542717435
13.80099999999779,0.34248789877788804,0.4137158719184762
14.00099999999768,0.34317844286089516,0.4260805328688629
14.200999999997569,0.3401032129628141,0.4384576015718767
14.400999999997458,0.3381156441992055,0.4516562333881551
14.600999999997347,0.3295628556250639,0.46982685507033756
14.800999999997236,0.3277371634342273,0.48542577617254307
15.000999999997125,0.3189128778435317,0.5010446602115043
15.200999999997014,0.3071837047718421,0.5169532665225722
15.400999999996904,0.3008983772917181,0.5332685913939931
15.600999999996793,0.29834026119467005,0.5422951864117609
15.800999999996682,0.2886638006360787,0.5553978723722016
16.000999999996573,0.2808862120413006,0.5725216687736608
16.200999999996817,0.2681103975000375,0.5902697618094191
16.40099999999706,0.25451004888031087,0.6054170143509845
16.600999999997306,0.23556311036928282,0.6210988798091158
16.80099999999755,0.2216840095516098,0.6350548753803524
17.000999999997795,0.21100107555172137,0.6509915966189391
17.20099999999804,0.20224394109146412,0.662749647679691
17.400999999998284,0.19266670605351227,0.6722308100608984
17.60099999999853,0.18428634005029715,0.6800610488612981
17.800999999998773,0.17124715261521822,0.6854545171455709
18.000999999999017,0.16551929869395005,0.6932321750479432
18.20099999999926,0.15313958874517775,0.6994591030990271
18.400999999999506,0.13809246005837447,0.7049508234226756
18.60099999999975,0.12532910671622388,0.7090297343561666
18.799999999999994,0.11992649892919834,0.7140504691275108
19.000000000000238,0.11133107959278185,0.718469713833425
19.200000000000482,0.10335089923656014,0.7204730357671272
19.400000000000727,0.08718027389747567,0.719268624603341
19.60000000000097,0.07392595304252025,0.7232138792460624
19.800000000001216,0.059260205660172274,0.7245419315969562
20.00000000000146,0.04815175877442202,0.7249023564829716
