Time (s),X (m),Y (m)
0.001,0.00042302893680115855,0.0010314752485082437
0.20000000000000015,0.0008556854777279375,-0.00040008575867785004
0.4000000000000003,0.0023363612412438724,-0.0030227370742772017
0.6000000000000004,0.003501075128116553,-0.002445346336508154
0.8000000000000006,0.00813133052195548,-0.00042130437694659384
1.0000000000000007,0.01588535284226102,-0.003967315578901254
1.2009999999999785,0.022484189905413073,-0.00039183609587602804
1.4009999999999565,0.027391697471250896,0.002950025437377512
1.6009999999999345,0.03327590448895612,0.004355088993622912
1.8009999999999124,0.044531766335480276,0.007835990141775018
2.0009999999998906,0.05656850518668979,0.006979649074789822
2.2009999999998686,0.06382964830261723,0.01154783237440861
2.4009999999998466,0.0695137157691375,0.008209508793554973
2.6009999999998246,0.07502328633342233,0.005251331653605488
2.8009999999998025,0.0836974375844194,0.006738369450699765
3.0009999999997805,0.09310019472505221,0.013191841940260508
3.2009999999997585,0.10127915069974844,0.013299360793991381
3.4009999999997365,0.11301904662284752,0.021020652601915046
3.6009999999997144,0.12350471543282573,0.020646786961481995
3.8009999999996924,0.1319625150062956,0.02235611358885621
4.000999999999671,0.14357561617622136,0.025705215111690886
4.200999999999738,0.15436736937105996,0.02353313001136841
4.400999999999804,0.1638602566492747,0.030193750362855633
4.600999999999871,0.17383559538037602,0.028721207511535885
4.800999999999938,0.18037250195446902,0.02157298358947862
5.000000000000004,0.18830380157887572,0.01702407570001911
5.200000000000071,0.19784569019272258,0.014694019619419758
5.400000000000138,0.20716133867439038,0.015063301651679739
5.600000000000205,0.2163657639777283,0.014390748022863302
5.800000000000272,0.22405238858428886,0.011984741885030492
6.000000000000338,0.23048137847123654,0.016242838724967085
6.200000000000405,0.24199957496366215,0.01753649797951991
6.400000000000472,0.2548094573471604,0.017543185506815762
6.600000000000539,0.2646803011205644,0.01753384689586444
6.800000000000606,0.2769172283821566,0.021641749566730602
7.000000000000672,0.2894568615629651,0.013232661783648488
7.200000000000739,0.300447580815973,0.016702446684336257
7.400000000000806,0.3130480166582347,0.017900718553604592
7.600000000000873,0.3309589219024936,0.0287369975311065
7.8000000000009395,0.3446053593765788,0.028706538257530754
8.000000000001005,0.3523476037605574,0.018646720641879836
8.200000000000895,0.3661729535166825,0.019922327812353657
8.400000000000784,0.37758160309050226,0.02588070675939929
8.600000000000673,0.38839871662432385,0.02548219400207306
8.800000000000562,0.3991272564231067,0.02522530015663525
9.000000000000451,0.40716267617509305,0.021837498335765773
9.20000000000034,0.41878554573275284,0.023661732981477706
9.40000000000023,0.4297803856963438,0.02881803062076358
9.600000000000119,0.442111759214448,0.026070664963683075
9.800000000000008,0.4557616333761624,0.03233012001760994
10.000999999999896,0.471289240353438,0.037730530141851994
10.200999999999786,0.4827274095147707,0.038560394056864844
10.400999999999675,0.4922732048725877,0.0386135299574688
10.600999999999564,0.5053054743049129,0.03274301955885946
10.800999999999453,0.5170896150124875,0.028804112416897232
11.000999999999342,0.5284116256572516,0.030734241050981374
11.200999999999231,0.5398336480539602,0.031169547216098173
11.40099999999912,0.5574290370042958,0.03898027749215746
11.60099999999901,0.574693039093807,0.03769805977398216
11.800999999998899,0.5870221268476172,0.03646747564612035
12.000999999998788,0.6001487653909386,0.034767142400178086
12.200999999998677,0.6133091857414008,0.03746228082080196
12.400999999998566,0.6243931694950238,0.041215331300050305
12.600999999998455,0.6367969613044484,0.043899093996002565
12.800999999998345,0.6530404303914006,0.04795631076391785
13.000999999998234,0.6664156138406024,0.03981920505805624
13.200999999998123,0.6766193255786233,0.03450720138334481
13.400999999998012,0.6864429690556044,0.03503188574248734
13.600999999997901,0.6989394914478448,0.03675890542386097
13.80099999999779,0.7105118610068707,0.03526869494187201
14.00099999999768,0.7208793227356705,0.0264636882949064
14.200999999997569,0.7356287957278514,0.02654696032728793
14.400999999997458,0.7513038825575741,0.03752659041433327
14.600999999997347,0.7681307138329312,0.041967310018645815
14.800999999997236,0.7816216416076975,0.04556014651383095
15.000999999997125,0.7907353737557474,0.040898308076519424
15.200999999997014,0.8002526579716118,0.034269801117477544
15.400999999996904,0.8126787662667498,0.031059605450213662
15.600999999996793,0.8238875329984623,0.02818330464888699
15.800999999996682,0.8357506021646859,0.02825439275075701
16.000999999996573,0.8498006042877051,0.02998837989629994
16.200999999996817,0.8628859376473336,0.028525413671769532
16.40099999999706,0.8788159727936189,0.030679739078097873
16.600999999997306,0.8912497893318886,0.02566558716403241
16.80099999999755,0.9050234009566568,0.025671535619046757
17.000999999997795,0.9167566732980506,0.021815509387462174
17.20099999999804,0.9278739657571389,0.019368649522515772
17.400999999998284,0.9402853757778582,0.01546828308992283
17.60099999999853,0.9516684246033097,0.007795773113588916
17.800999999998773,0.9611752156010303,5.404045623606707e-05
18.000999999999017,0.9718788274956471,-0.00027572437803496946
18.20099999999926,0.9841938278312498,-0.003066012003242616
18.400999999999506,0.99759308448764,-0.0007823876493586522
18.60099999999975,1.013144211736903,-0.0012216299963720937
18.799999999999994,1.0251191051445505,-0.004074271052299389
19.000000000000238,1.037068421158699,-0.0035269128139084447
19.200000000000482,1.05057762450402,-6.050122515975359e-05
19.400000000000727,1.0621730289352,0.0012672051318326236
19.60000000000097,1.0724857220682051,-0.0026699521616435867
19.800000000001216,1.0886922111457042,0.002954696819359799
20.00000000000146,1.108559930457612,0.008352460587025582
