Time (s),X (m),Y (m)
0.001,0.0013163127053841656,0.0005157376242541218
0.20000000000000015,0.0006548314680918368,-0.0002909151070100659
0.4000000000000003,0.0013530698258855482,7.218582897549628e-05
0.6000000000000004,0.0020428252803173885,0.0003154340827355796
0.8000000000000006,0.002708886018537433,0.0005911622568213126
1.0000000000000007,0.0037774837862649055,0.001162504752290324
1.2009999999999785,0.004560873637325305,0.001519177984527222
1.4009999999999565,0.005380118358796305,0.0018918367685405936
1.6009999999999345,0.0061616338681017456,0.002245240301984496
1.8009999999999124,0.00694709331595908,0.0026193933654912564
2.0009999999998906,0.007811811398858034,0.0030691073202067333
2.2009999999998686,0.008724231648491922,0.0035674627648024414
2.4009999999998466,0.009644877469883281,0.004079776854740218
2.6009999999998246,0.010564109652312524,0.004599364756277637
2.8009999999998025,0.011488324198793965,0.005133169619842173
3.0009999999997805,0.01242426378633548,0.005685527623975154
3.2009999999997585,0.01337660421104655,0.006260607833069197
3.4009999999997365,0.01434618387506231,0.006859511399468441
3.6009999999997144,0.015328722487586535,0.007478075637062481
3.8009999999996924,0.016321253799198004,0.008114258854645198
4.000999999999671,0.017322154838201955,0.008767018717544966
4.200999999999738,0.01833059715128462,0.009436286213052083
4.400999999999804,0.019347115498231586,0.010122269856430147
4.600999999999871,0.020371804240865914,0.010824806105723728
4.800999999999938,0.021404295041912564,0.0115433662365807
5.000000000000004,0.0224310555075577,0.012266198461406166
5.200000000000071,0.023477325959958082,0.013014722073157476
5.400000000000138,0.02453007303103267,0.013777989557756299
5.600000000000205,0.025589199353152903,0.014555568422070241
5.800000000000272,0.02665465309694627,0.015347089556833856
6.000000000000338,0.027726221066793354,0.016152169252147925
6.200000000000405,0.028803563985715052,0.01697042694078589
6.400000000000472,0.02988636672895188,0.01780153498515662
6.600000000000539,0.03097447290066472,0.01864540648917141
6.800000000000606,0.03206763876538528,0.019501869017318634
7.000000000000672,0.03316575605368879,0.020370944408619345
7.200000000000739,0.0342687315379124,0.021252452369487675
7.400000000000806,0.03537644312708478,0.022146197854456953
7.600000000000873,0.03648883783248038,0.023052038147727712
7.8000000000009395,0.03760571076281798,0.023969834903944356
8.000000000001005,0.03872703637304164,0.02489956562786557
8.200000000000895,0.039852743279835026,0.025841031116213463
8.400000000000784,0.04098261548664574,0.02679404965511413
8.600000000000673,0.042116447494021034,0.027758458353945258
8.800000000000562,0.04325407864667189,0.028734255622467782
9.000000000000451,0.04439542292148657,0.02972138901283709
9.20000000000034,0.04554038175938398,0.030719849399826377
9.40000000000023,0.04668874774367929,0.03172953772362339
9.600000000000119,0.04784044016546892,0.03275042209993165
9.800000000000008,0.048995444660367336,0.03378243646948206
10.000999999999896,0.05016412606499181,0.03483711498299837
10.200999999999786,0.05132537432458368,0.03589113426790898
10.400999999999675,0.052489586781751356,0.03695602896943413
10.600999999999564,0.05365662433574092,0.03803180925687804
10.800999999999453,0.05482628392070591,0.039118435907656006
11.000999999999342,0.05599831185855079,0.04021591168310257
11.200999999999231,0.057172689119201876,0.04132434514901217
11.40099999999912,0.05834928149575966,0.04244366425924712
11.60099999999901,0.05952791608106446,0.04357380688051233
11.800999999998899,0.06070849326611588,0.044714714095455084
12.000999999998788,0.061890883280840484,0.045866393594434625
12.200999999998677,0.06307502832814832,0.04702893578054177
12.400999999998566,0.06426080521752259,0.04820240151805848
12.600999999998455,0.06544815721176658,0.04938686082459144
12.800999999998345,0.06663698599795541,0.05058233597473204
13.000999999998234,0.06782711115060112,0.05178877822077364
13.200999999998123,0.0690183512165006,0.053006143125662354
13.400999999998012,0.07021046966308021,0.054234489426764315
13.600999999997901,0.07140324886286628,0.055473876759349366
13.80099999999779,0.07259650060515094,0.05672436685046522
14.00099999999768,0.07378999987864804,0.0579859800107673
14.200999999997569,0.07498356394199682,0.059258672679210325
14.400999999997458,0.07617701060006257,0.06054240059985588
14.600999999997347,0.07737015663152817,0.06183711826919457
14.800999999997236,0.07856281767192147,0.06314277890645363
15.000999999997125,0.07975481396488059,0.06445940361845247
15.200999999997014,0.08094595779614905,0.06578698881879737
15.400999999996904,0.08213605964549699,0.06712548309134397
15.600999999996793,0.08332495022486976,0.06847484442745949
15.800999999996682,0.08451251391672594,0.06983515753066233
16.000999999996573,0.08569854461789002,0.07120639796430808
16.200999999996817,0.08688288399891377,0.07258855575857966
16.40099999999706,0.08806534598278161,0.0739817289947096
16.600999999997306,0.08924570684622918,0.07538590335929399
16.80099999999755,0.09042377177772126,0.07680101806073897
17.000999999997795,0.09159934649764354,0.07822702244066435
17.20099999999804,0.09277215887902934,0.07966386141178258
17.400999999998284,0.09394197098230532,0.08111150586354739
17.60099999999853,0.09510846956607245,0.08257032515567371
17.800999999998773,0.09627136641408557,0.08404072473802836
18.000999999999017,0.09743043428456712,0.08552275513371535
18.20099999999926,0.09858542089921966,0.08701648556933839
18.400999999999506,0.0997361441422132,0.08852197345524326
18.60099999999975,0.10088245215944423,0.090039334042727
18.799999999999994,0.10201726407378055,0.09155493914088594
19.000000000000238,0.1031541590957664,0.09309611235639002
19.200000000000482,0.10428593740007919,0.09464918424253803
19.400000000000727,0.1054123719075739,0.09621403387857815
19.60000000000097,0.10653324124578274,0.09779053147489869
19.800000000001216,0.10764832686923284,0.09937860941848568
20.00000000000146,0.10875738656978821,0.10097817387247296
