Time (s),X (m),Y (m)
0.001,0.00042302893680115855,0.0010314752485082437
0.20000000000000015,0.0008095801803882506,-0.00045492675198977663
0.4000000000000003,0.001205540320492283,8.85493704699366e-05
0.6000000000000004,0.0015991865444526224,-6.649980288185944e-05
0.8000000000000006,0.0020043106912757077,-3.9899248963275104e-05
1.0000000000000007,0.002429278037528161,-0.00032215235556817503
1.2009999999999785,0.002857473219946495,-0.00026559229817817214
1.4009999999999565,0.0032575396057991876,-0.0003446161564101394
1.6009999999999345,0.0036506179925735157,-0.0004404392073892588
1.8009999999999124,0.004050705662924394,-0.0004744177629583693
2.0009999999998906,0.004465369130317563,-0.0005171476338816845
2.2009999999998686,0.0048918222251727655,-0.0005774740118776177
2.4009999999998466,0.005325266096195445,-0.0006396279062293423
2.6009999999998246,0.005762028879112846,-0.0007023618305210414
2.8009999999998025,0.0062011449722004916,-0.0007672261465525147
3.0009999999997805,0.006643604783014039,-0.0008343496241951036
3.2009999999997585,0.007091581972313478,-0.0009058149137160084
3.4009999999997365,0.007544964659431733,-0.0009823496429816729
3.6009999999997144,0.008002845324631103,-0.0010635845969104581
3.8009999999996924,0.008463732106646091,-0.0011489132333307262
4.000999999999671,0.008921783272122783,-0.001238632518393113
4.200999999999738,0.009375996196317628,-0.0013328149886154004
4.400999999999804,0.00982709866720446,-0.001431430939569571
4.600999999999871,0.010276137588156365,-0.0015345274557970778
4.800999999999938,0.010723557369662427,-0.0016416775414290308
5.000000000000004,0.011165217093712652,-0.0017411105721487137
5.200000000000071,0.01160897771796166,-0.001856409183350399
5.400000000000138,0.01205094298392777,-0.0019757324829787646
5.600000000000205,0.012491248697206457,-0.0020990957327621444
5.800000000000272,0.012930337450922218,-0.0022265511807516925
6.000000000000338,0.013368260107826272,-0.0023578064531063893
6.200000000000405,0.01380504431924932,-0.0024926772271484945
6.400000000000472,0.014240850914996543,-0.0026310948269226623
6.600000000000539,0.01467581146050207,-0.0027730729273939703
6.800000000000606,0.015109925958546516,-0.002918678570156553
7.000000000000672,0.015543216325102622,-0.003067912296492207
7.200000000000739,0.015975713978507486,-0.003220762558066467
7.400000000000806,0.016405834779302703,-0.003376950704854514
7.600000000000873,0.01683210842022123,-0.00353594548950634
7.8000000000009395,0.017254772859907362,-0.0036973108497753543
8.000000000001005,0.01767325264289336,-0.0038608258165286754
8.200000000000895,0.018087201761247763,-0.004026331659069923
8.400000000000784,0.018496773745975068,-0.004193767539746376
8.600000000000673,0.01890284319041008,-0.0043631280659012185
8.800000000000562,0.019304886463253814,-0.004534351147333847
9.000000000000451,0.019703026664439918,-0.004707396607993744
9.20000000000034,0.02009734779030603,-0.004882231057424316
9.40000000000023,0.020487880617338316,-0.005058820356164298
9.600000000000119,0.02087424482115046,-0.005237033484363376
9.800000000000008,0.02125711652096999,-0.005416879026893954
10.000999999999896,0.021642051128347883,-0.0056115972969035845
10.200999999999786,0.022018167634029667,-0.005794387960360268
10.400999999999675,0.02239091542161226,-0.005978528698156487
10.600999999999564,0.022760495210547887,-0.006164021395707447
10.800999999999453,0.023127141008738746,-0.006350927372448847
11.000999999999342,0.023490667894525176,-0.0065392308269398665
11.200999999999231,0.023851094527309706,-0.0067289528514081435
11.40099999999912,0.024208507883170253,-0.006920125607479777
11.60099999999901,0.02456317322962615,-0.00711272185918126
11.800999999998899,0.024916150384074628,-0.007306739216017659
12.000999999998788,0.025266619702838736,-0.007501880615988784
12.200999999998677,0.025612103453163632,-0.007697667800205097
12.400999999998566,0.025952200582947386,-0.007894050500981029
12.600999999998455,0.026287788066129962,-0.008090911955312634
12.800999999998345,0.026619276589132636,-0.008288261636079253
13.000999999998234,0.026947303560866123,-0.008486109849580571
13.200999999998123,0.027273278915170143,-0.00868457305070293
13.400999999998012,0.027596677025656685,-0.008883784964316995
13.600999999997901,0.027918831002161214,-0.009083812740616464
13.80099999999779,0.02823990169191502,-0.00928458919058812
14.00099999999768,0.028559834689648116,-0.009486098976266294
14.200999999997569,0.028878589190393565,-0.009688320122912143
14.400999999997458,0.029196161575511616,-0.009891175246657882
14.600999999997347,0.029512429083809476,-0.010094611102722285
14.800999999997236,0.0298273418721226,-0.010298507603310188
15.000999999997125,0.030141292646420126,-0.010502972389108094
15.200999999997014,0.03045644287304505,-0.010709029914481008
15.400999999996904,0.030774160790682625,-0.01091746611090249
15.600999999996793,0.031094782067026427,-0.011128452632101106
15.800999999996682,0.03141823985718856,-0.011341999622344693
16.000999999996573,0.031744614343014496,-0.011557842565617637
16.200999999996817,0.03207416987098089,-0.01177607550934128
16.40099999999706,0.03240693761881773,-0.011996677320257908
16.600999999997306,0.03274293404877827,-0.012219523560858613
16.80099999999755,0.03308225881531874,-0.012444547887364408
17.000999999997795,0.03342487468974305,-0.012671754194711433
17.20099999999804,0.03377063109627024,-0.012900977300809042
17.400999999998284,0.03411965478257667,-0.01313196057242021
17.60099999999853,0.03447192184880183,-0.013364615257358225
17.800999999998773,0.03482726454199027,-0.013598847064570325
18.000999999999017,0.03518559677631833,-0.013834382574576295
18.20099999999926,0.03554713207139759,-0.014071092322762874
18.400999999999506,0.035911955863710605,-0.014308636943347827
18.60099999999975,0.03627997327289526,-0.014546734713084425
18.799999999999994,0.03664404381565202,-0.014774990440766505
19.000000000000238,0.03701832375488421,-0.015013041743495067
19.200000000000482,0.037395771470344535,-0.015249925735092188
19.400000000000727,0.03777647337256782,-0.015485615800979112
19.60000000000097,0.03816029541150435,-0.01571993121809661
19.800000000001216,0.0385470732298242,-0.015952836931248097
20.00000000000146,0.03893673817001444,-0.016184042225188662
