Time (s),X (m),Y (m)
0.001,0.0006021427340131596,-0.0010158048217711122
0.20000000000000015,0.0009313486302957442,0.0007935356620310114
0.4000000000000003,0.003523001737884259,0.004093364417178145
0.6000000000000004,0.006132349046139163,0.0021500662732148097
0.8000000000000006,0.010339177614959944,0.007041121412278554
1.0000000000000007,0.017516192135888967,0.000745513982057777
1.2009999999999785,0.027286255149613935,0.009230819373886399
1.4009999999999565,0.042393471606812325,0.023862660783891786
1.6009999999999345,0.05971357761669033,0.026369672605932776
1.8009999999999124,0.07655655663408674,0.03977111793323268
2.0009999999998906,0.09066001188529979,0.04465966759478567
2.2009999999998686,0.10703518173750709,0.039538742654002944
2.4009999999998466,0.12729110171781752,0.03578881623196032
2.6009999999998246,0.14552105878738728,0.03168289629732449
2.8009999999998025,0.16225201794747166,0.03342063192516664
3.0009999999997805,0.17889919369804147,0.043909179243008724
3.2009999999997585,0.19891407698971203,0.046156643618123244
3.4009999999997365,0.22436013020490544,0.04574386016333911
3.6009999999997144,0.24282801033459853,0.03252379678638639
3.8009999999996924,0.2545431248005552,0.01490715548675287
4.000999999999671,0.26431987302111254,0.002568750494044858
4.200999999999738,0.2780355316665311,-0.005707612068277065
4.400999999999804,0.2935352618893803,-0.009579733574050904
4.600999999999871,0.3072501876826251,-0.01863196055688166
4.800999999999938,0.3222400030075848,-0.027847030855484588
5.000000000000004,0.34662856587906843,-0.02362642863002931
5.200000000000071,0.37432392799896813,-0.01678940582796635
5.400000000000138,0.3901303708881394,-0.03586790209684258
5.600000000000205,0.4096901478927053,-0.05084297160629743
5.800000000000272,0.43564279845472587,-0.06383681272604219
6.000000000000338,0.4579836201557389,-0.07151831628263103
6.200000000000405,0.47776557152512195,-0.08016640444904394
6.400000000000472,0.5006459071865976,-0.07578112864046312
6.600000000000539,0.5236847933593655,-0.06955068710577125
6.800000000000606,0.5506833281390342,-0.06310672108587374
7.000000000000672,0.5746856357693393,-0.06499561733262055
7.200000000000739,0.5961806369116281,-0.06586980566209266
7.400000000000806,0.6143168470232488,-0.07034713126516588
7.600000000000873,0.6345197232644233,-0.06942630310157247
7.8000000000009395,0.6542063498878752,-0.06376555236402347
8.000000000001005,0.6756000455713892,-0.07092582544541982
8.200000000000895,0.6978925966740069,-0.07548912022630411
8.400000000000784,0.7260512414103685,-0.08251677229713761
8.600000000000673,0.7544483225919058,-0.082085273941847
8.800000000000562,0.7795391373248131,-0.09106208618172873
9.000000000000451,0.8016577373119167,-0.0977304780018416
9.20000000000034,0.8289073377489028,-0.10111912805738814
9.40000000000023,0.8585002016679021,-0.10817809731263921
9.600000000000119,0.8863783252570954,-0.11484602711545959
9.800000000000008,0.9121386496683969,-0.11555517006350474
10.000999999999896,0.9344583120207136,-0.11587285015983464
10.200999999999786,0.958254723577786,-0.10756561750315513
10.400999999999675,0.983799070693362,-0.08889922291329484
10.600999999999564,1.0092575005225233,-0.07807649653390157
10.800999999999453,1.0354448674718506,-0.07529443404055453
11.000999999999342,1.066959273698208,-0.0595481817312613
11.200999999999231,1.0991315323315596,-0.05506217171268539
11.40099999999912,1.1272289872145873,-0.0552610031778893
11.60099999999901,1.1447612188557483,-0.06953530424582993
11.800999999998899,1.1573570958990709,-0.08402234767523521
12.000999999998788,1.1674776907142677,-0.10372041967583451
12.200999999998677,1.1809059602940435,-0.12805060545707397
12.400999999998566,1.1926998984858121,-0.153915689975333
12.600999999998455,1.1984998475663025,-0.18185852638572883
12.800999999998345,1.2043122360012732,-0.21021720716872677
13.000999999998234,1.1892758203651599,-0.23392198331905434
13.200999999998123,1.1726788682574516,-0.25785737376509343
13.400999999998012,1.153986789767377,-0.2844973245343243
13.600999999997901,1.143255454501893,-0.31746168646979234
13.80099999999779,1.1260885741603035,-0.34732850688107963
14.00099999999768,1.1066213891446324,-0.3572976492093359
14.200999999997569,1.081662160659385,-0.3634238120995562
14.400999999997458,1.059176248363034,-0.3635905794455318
14.600999999997347,1.0343583963761687,-0.3595342554301145
14.800999999997236,1.0089534722495366,-0.34984429799230343
15.000999999997125,0.9804408195163883,-0.3489590605009076
15.200999999997014,0.9550005616533603,-0.3364288891546072
15.400999999996904,0.9308093197460197,-0.335465880100232
15.600999999996793,0.9002595403597687,-0.3301163141263861
15.800999999996682,0.8679364678033668,-0.3328357446671386
16.000999999996573,0.8388558689253929,-0.3258306674555957
16.200999999996817,0.8082177124101544,-0.31314867622339804
16.40099999999706,0.7784911052469776,-0.3148566898199128
16.600999999997306,0.7534019301576871,-0.31021022707028856
16.80099999999755,0.7328091801574351,-0.3154839451721525
17.000999999997795,0.7088311442569417,-0.3097303356785306
17.20099999999804,0.6876618486676446,-0.29568608119948836
17.400999999998284,0.6704556422007079,-0.2757512456582207
17.60099999999853,0.6511405711161011,-0.2689580945335573
17.800999999998773,0.6270186822995747,-0.28210274626080867
18.000999999999017,0.605761881514146,-0.2920447044177375
18.20099999999926,0.5803303550304502,-0.29609245629739306
18.400999999999506,0.5504243487959802,-0.2969777924030734
18.60099999999975,0.5197607079424325,-0.2985424906820729
18.799999999999994,0.492201394563993,-0.2845661682285565
19.000000000000238,0.4664651161552886,-0.2616404904249956
19.200000000000482,0.44044042690587365,-0.24533928353093098
19.400000000000727,0.4146145486012419,-0.25383885603614287
19.60000000000097,0.39187939820068174,-0.25624490560908764
19.800000000001216,0.3685098479289527,-0.2521004440842235
20.00000000000146,0.34620309888093337,-0.25957046239629783
