Time (s),X (m),Y (m)
0.001,7.024362446948994e-05,-0.0009692696795465074
0.20000000000000015,0.0016653848787755877,0.0010016485648843521
0.4000000000000003,0.007868488965576785,0.007534039691423753
0.6000000000000004,0.018182358273286917,0.010105148912377158
0.8000000000000006,0.03263569380696199,-0.0009525696010674365
1.0000000000000007,0.04402912567492255,-0.015249942447502574
1.2009999999999785,0.0545408131545499,-0.026049144513817207
1.4009999999999565,0.0622642478765038,-0.038549286481420045
1.6009999999999345,0.07513111124710216,-0.03413064067412742
1.8009999999999124,0.09430900126263829,-0.03148002505771429
2.0009999999998906,0.1155978714121619,-0.027335635775820252
2.2009999999998686,0.13657236701014025,-0.01604887049528643
2.4009999999998466,0.1589215702893701,0.0016911101712651694
2.6009999999998246,0.18339933043384135,0.009326796633439122
2.8009999999998025,0.20745016642690775,0.018177115710470274
3.0009999999997805,0.22703581173699167,0.0179425184994383
3.2009999999997585,0.2395579405283426,0.018001485808002742
3.4009999999997365,0.25176488211825804,0.013383977994580448
3.6009999999997144,0.2791809757441836,0.011974655170575811
3.8009999999996924,0.30101901550639804,0.005560769139632057
4.000999999999671,0.3271955322497685,0.0064249697534403466
4.200999999999738,0.35960187984513337,0.009208263048650377
4.400999999999804,0.39064963199969,0.007525115554713431
4.600999999999871,0.42131300401052374,0.015460337251776524
4.800999999999938,0.4476352162868287,0.022018543168343844
5.000000000000004,0.46984743228422243,0.02313623739731072
5.200000000000071,0.5029960615825166,0.03250462917867486
5.400000000000138,0.5395001436774975,0.0396937107955698
5.600000000000205,0.5770907259886671,0.04401958878862317
5.800000000000272,0.6107295736085245,0.04395213854528334
6.000000000000338,0.6517569528821694,0.04065805743441184
6.200000000000405,0.6862320848257931,0.02948617653461605
6.400000000000472,0.7082443473964427,0.004145101579783648
6.600000000000539,0.7167061107223089,-0.028197960835961527
6.800000000000606,0.7210321422785332,-0.06330914949298709
7.000000000000672,0.7375459180602137,-0.10045013970461736
7.200000000000739,0.7567348487340375,-0.13120297974517656
7.400000000000806,0.7776120196642629,-0.1623497406062894
7.600000000000873,0.7982668161217864,-0.19717404614206066
7.8000000000009395,0.7997302678738254,-0.23132870659125518
8.000000000001005,0.8018945492246362,-0.2654301836988667
8.200000000000895,0.8023678821706908,-0.30958828586035353
8.400000000000784,0.7986786625899558,-0.3409924322048229
8.600000000000673,0.7891623940482482,-0.3711033166846931
8.800000000000562,0.762804338326657,-0.3961719622100523
9.000000000000451,0.725122772412344,-0.41464516519739975
9.20000000000034,0.6781451988064592,-0.43985166067734033
9.40000000000023,0.6313852794345682,-0.45462594831843145
9.600000000000119,0.5888862261976853,-0.4625132813194426
9.800000000000008,0.5380424188207402,-0.48168808392462925
10.000999999999896,0.4845084385980793,-0.5081426192760207
10.200999999999786,0.4322692838273235,-0.5338158024399549
10.400999999999675,0.3802921695337374,-0.5579791343327773
10.600999999999564,0.32569697999784647,-0.5868155292741902
10.800999999999453,0.2784569333211666,-0.6251917432547405
11.000999999999342,0.22882633880640604,-0.6641698133153601
11.200999999999231,0.17681452670453693,-0.7037288974764201
11.40099999999912,0.12631847040015154,-0.7341695433306564
11.60099999999901,0.07819500218819442,-0.7589795110618068
11.800999999998899,0.028523848693027442,-0.7771776139631446
12.000999999998788,-0.015951340884418963,-0.7883432609385261
12.200999999998677,-0.06260908513300405,-0.7964991231403025
12.400999999998566,-0.11082588748726885,-0.8192260349045005
12.600999999998455,-0.159974843949865,-0.8355712898082053
12.800999999998345,-0.19738406254435956,-0.8323607814104329
13.000999999998234,-0.2415057190057168,-0.8403952679107406
13.200999999998123,-0.29307351505641777,-0.8546232897483453
13.400999999998012,-0.35294391160449096,-0.8778063717496145
13.600999999997901,-0.40457743457289985,-0.9057845773168546
13.80099999999779,-0.45036231458565795,-0.9346350442274292
14.00099999999768,-0.48803449512750113,-0.9541068148261131
14.200999999997569,-0.5111210593132564,-0.9810253005309052
14.400999999997458,-0.5246560256779865,-1.038535757154127
14.600999999997347,-0.5291481658577248,-1.104269107896753
14.800999999997236,-0.5369232929133321,-1.1668341934187556
15.000999999997125,-0.5601177727263403,-1.2245589008105828
15.200999999997014,-0.5981979118035424,-1.255974787425368
15.400999999996904,-0.6422258233506669,-1.259202687397921
15.600999999996793,-0.6863389323728755,-1.268004418443458
15.800999999996682,-0.7327910721413393,-1.2965444799375314
16.000999999996573,-0.7849126566487283,-1.3244364074714716
16.200999999996817,-0.8406284564432828,-1.3457188226957046
16.40099999999706,-0.8956241060794835,-1.3556978919380347
16.600999999997306,-0.9438080776179956,-1.3776365921325897
16.80099999999755,-0.9847443594807332,-1.4207478776878175
17.000999999997795,-1.0192743437935439,-1.4645721191137981
17.20099999999804,-1.0467787504024613,-1.5108200447755709
17.400999999998284,-1.0717808404188616,-1.5492239796810043
17.60099999999853,-1.091389004789367,-1.5805938123780257
17.800999999998773,-1.1111439555248979,-1.60838821452769
18.000999999999017,-1.1294825993335469,-1.6542342790071989
18.20099999999926,-1.146353029724006,-1.6832750483496106
18.400999999999506,-1.1714718893157845,-1.6864548712412362
18.60099999999975,-1.2013765255319362,-1.7110047376871569
18.799999999999994,-1.2360702501497127,-1.7399214554460505
19.000000000000238,-1.2671699784293406,-1.775764511850873
19.200000000000482,-1.298230109991141,-1.8203339460994885
19.400000000000727,-1.3340983155916757,-1.862082414320516
19.60000000000097,-1.3653899832983054,-1.9053363510922154
19.800000000001216,-1.3946843419620791,-1.9369626502206903
20.00000000000146,-1.4285378111649856,-1.9697198569827614
