Time (s),X (m),Y (m)
0.001,0.00024391513958915793,0.0010158048217711127
0.20000000000000015,0.0008083607980207345,-0.00011386468977034214
0.4000000000000003,0.0015152958736159472,2.722141967582863e-05
0.6000000000000004,0.0035797790754306855,-0.0017403759356566528
0.8000000000000006,0.006524233234415492,-0.0025644436563570616
1.0000000000000007,0.009605397619066565,-0.003674644920568973
1.2009999999999785,0.013467444363140022,-0.0020472805354462306
1.4009999999999565,0.016114795862197134,-0.0014613793685907454
1.6009999999999345,0.018738205158463958,-0.00305919424301388
1.8009999999999124,0.021210708731241,-0.00635624894353144
2.0009999999998906,0.024275327906081362,-0.008313476900783814
2.2009999999998686,0.02848151370745255,-0.010084919597072254
2.4009999999998466,0.03264399778995828,-0.014536630607702154
2.6009999999998246,0.03768921109012991,-0.013218346197019976
2.8009999999998025,0.0443380753840734,-0.013087706940311156
3.0009999999997805,0.048491571163838905,-0.013136012509472958
3.2009999999997585,0.0551692681951049,-0.013948362645176881
3.4009999999997365,0.06113239425585143,-0.009004485660253404
3.6009999999997144,0.06694047603669018,-0.0070154303775985544
3.8009999999996924,0.07269518369604201,-0.002056802800591824
4.000999999999671,0.07971366700727378,-0.002785033845785053
4.200999999999738,0.08698692300480619,-0.0021886766608287672
4.400999999999804,0.09374652063839713,0.00035124168637316785
4.600999999999871,0.10034420142592636,0.002065814963362345
4.800999999999938,0.10976551808755837,-0.0003715291702925113
5.000000000000004,0.11731662735579179,-0.0003312657630180061
5.200000000000071,0.12326744063262957,0.0025834281613687214
5.400000000000138,0.1284718490603744,0.0054641879585335335
5.600000000000205,0.13375535837829522,0.006538401945030331
5.800000000000272,0.1393426191962287,0.008183045642185872
6.000000000000338,0.14603899154001465,0.007816340859217051
6.200000000000405,0.15276881787922567,0.010177317794677268
6.400000000000472,0.16019894301574153,0.012267237000974006
6.600000000000539,0.16385872003847446,0.015714639100673864
6.800000000000606,0.1684716278474186,0.01974067752362479
7.000000000000672,0.1712350891552191,0.022141659172260356
7.200000000000739,0.17506162672888922,0.02578641152546282
7.400000000000806,0.17593239924341192,0.029970795448527817
7.600000000000873,0.17862466496239635,0.032262316247582204
7.8000000000009395,0.1794423084522575,0.03484435591963733
8.000000000001005,0.1846714246345294,0.03872651161370091
8.200000000000895,0.1889872408473473,0.0445378155290114
8.400000000000784,0.19012230834808058,0.049937799507048325
8.600000000000673,0.1886916533526314,0.05550041129333042
8.800000000000562,0.18799471788814867,0.06154016788683999
9.000000000000451,0.19101685049260209,0.06656181469276905
9.20000000000034,0.1950976746869715,0.07474339081791743
9.40000000000023,0.1939327218683398,0.08039545543627465
9.600000000000119,0.19995642653917375,0.08829630336766736
9.800000000000008,0.20239031687572465,0.09542235506992972
10.000999999999896,0.20110387632909452,0.10218067885159499
10.200999999999786,0.2028614191929334,0.10974518866901815
10.400999999999675,0.19948423012415775,0.11672142443742092
10.600999999999564,0.19674170989305853,0.12152408912265988
10.800999999999453,0.19733932198389803,0.12945680575717528
11.000999999999342,0.19859156676338385,0.13592022645334637
11.200999999999231,0.19535203294686418,0.14367289017305387
11.40099999999912,0.19717968372817177,0.15163434238860307
11.60099999999901,0.20009498685043436,0.15960326785003795
11.800999999998899,0.1984011531744952,0.16654295186105186
12.000999999998788,0.19612231080945244,0.17388913559285096
12.200999999998677,0.1962099315900441,0.18192652479276003
12.400999999998566,0.19207146794703725,0.18708811835625505
12.600999999998455,0.19787972674032211,0.19428416840348448
12.800999999998345,0.19825723476362264,0.20072091997518673
13.000999999998234,0.20023753459188182,0.20903707916993208
13.200999999998123,0.19827335602092264,0.21807848955523357
13.400999999998012,0.19535470139581232,0.22403312541516973
13.600999999997901,0.1927400655545444,0.23173151984980012
13.80099999999779,0.19134964456166498,0.24009774565375488
14.00099999999768,0.1916093711711308,0.24743754349401115
14.200999999997569,0.18625371284574163,0.2544454858753561
14.400999999997458,0.1831332676916898,0.2615061381137579
14.600999999997347,0.18296642526518542,0.2688927882241565
14.800999999997236,0.17783156380337092,0.27396890426435905
15.000999999997125,0.1737425969272485,0.2822704549108934
15.200999999997014,0.16918298395402356,0.2902956435084332
15.400999999996904,0.16522208031211771,0.29783717167258467
15.600999999996793,0.1628623547015834,0.3041528818385801
15.800999999996682,0.16291674620416194,0.3128311640444996
16.000999999996573,0.16055890116051136,0.32118949040262357
16.200999999996817,0.15693025476337807,0.3257078182093536
16.40099999999706,0.15368339232147754,0.33362218863501697
16.600999999997306,0.1563513659222021,0.3449264241019053
16.80099999999755,0.1569212417817776,0.3536930575320141
17.000999999997795,0.15404487371257392,0.3634203433172384
17.20099999999804,0.15295624176028058,0.37286612389397933
17.400999999998284,0.14877150055438418,0.37813685641386713
17.60099999999853,0.1432915871593871,0.37750902222770283
17.800999999998773,0.14060832048773442,0.38519010924100816
18.000999999999017,0.1371195327917401,0.38780524477760525
18.20099999999926,0.13443970373082287,0.39249953390543335
18.400999999999506,0.1294087567607308,0.4027915303970698
18.60099999999975,0.12690946713733356,0.41171708710917004
18.799999999999994,0.12339663166806113,0.41603840586673196
19.000000000000238,0.1201418589068697,0.4220455935978713
19.200000000000482,0.11346826121469873,0.4219600077191801
19.400000000000727,0.10840364708316172,0.4192823995664781
19.60000000000097,0.10344977134859658,0.4227186474477205
19.800000000001216,0.09821435744479365,0.42489271109018856
20.00000000000146,0.09360456038597478,0.42257511242962614
