Time (s),X (m),Y (m)
0.001,0.00024391513958915793,0.0010158048217711127
0.20000000000000015,0.0009786301429428276,-0.0007797644488888651
0.4000000000000003,0.0020203676545080167,-0.003817361473816278
0.6000000000000004,0.0032921593013612305,-0.004171393217442429
0.8000000000000006,0.007309389326519199,-0.012234914622742309
1.0000000000000007,0.0164596416469842,-0.0025492305679096845
1.2009999999999785,0.022937360244381564,-0.009670623647779566
1.4009999999999565,0.0279170369871862,-0.012118775117102208
1.6009999999999345,0.031942295990666586,-0.017847093542631535
1.8009999999999124,0.03636796542702771,-0.013653580809173373
2.0009999999998906,0.045176925685860604,-0.014780921359026311
2.2009999999998686,0.05383304085797803,-0.010585326679649938
2.4009999999998466,0.06542665360094548,-0.0076468753907278295
2.6009999999998246,0.08164900350500486,0.006048250729191561
2.8009999999998025,0.09683909752990344,0.0015604613723259465
3.0009999999997805,0.10989068132080843,0.001067486892546036
3.2009999999997585,0.1248514423649874,0.0017903554416667305
3.4009999999997365,0.13921053455220053,-0.002139949836016263
3.6009999999997144,0.15131011413713905,0.0034085891608566497
3.8009999999996924,0.16354306222023302,0.0027089204047761285
4.000999999999671,0.17665532220208433,-0.0029377592836430074
4.200999999999738,0.18943633843263422,-0.017707689077028535
4.400999999999804,0.20630588316981305,-0.02227767690491946
4.600999999999871,0.22361251626198692,-0.02460376498532084
4.800999999999938,0.24408058259583207,-0.03588092175454746
5.000000000000004,0.2647982785043598,-0.039269425145552254
5.200000000000071,0.27973580851118857,-0.03587741211125042
5.400000000000138,0.29618806294902045,-0.035452810741485125
5.600000000000205,0.31294346616789126,-0.04245114160538118
5.800000000000272,0.32951035609566715,-0.04668522034830173
6.000000000000338,0.3473126058400803,-0.05617486599004482
6.200000000000405,0.36480149318165483,-0.07118323011198775
6.400000000000472,0.3837782593585696,-0.08869251360501125
6.600000000000539,0.40000752884264684,-0.10610894314589982
6.800000000000606,0.41568325604575407,-0.11818693787647495
7.000000000000672,0.43025211475614306,-0.11962716250135222
7.200000000000739,0.4452567124533464,-0.1253976166638784
7.400000000000806,0.4612376416520677,-0.12824945450175862
7.600000000000873,0.4750327078128488,-0.136398561630874
7.8000000000009395,0.49289899798966147,-0.1435504659594791
8.000000000001005,0.5113922067253569,-0.15038779839371663
8.200000000000895,0.5299079140034363,-0.15548340034622468
8.400000000000784,0.5535710090515982,-0.16406034078893872
8.600000000000673,0.5757908379527841,-0.1711869532456369
8.800000000000562,0.5975497608373023,-0.173895424991067
9.000000000000451,0.618339704024102,-0.16952760990260918
9.20000000000034,0.6388170958436755,-0.16640421631931507
9.40000000000023,0.6603471512480389,-0.1614504216133338
9.600000000000119,0.6810711835962411,-0.15019016256656204
9.800000000000008,0.6970484960647398,-0.1469566972788353
10.000999999999896,0.7179444172640244,-0.15427259487816042
10.200999999999786,0.7414623646382796,-0.15338895920329276
10.400999999999675,0.7621660987699959,-0.15019165122938893
10.600999999999564,0.7794979125033339,-0.15209079746909507
10.800999999999453,0.7951793644798478,-0.15079214667913993
11.000999999999342,0.8097765424058366,-0.14764141618732118
11.200999999999231,0.8275250529595446,-0.1367106377760467
11.40099999999912,0.8457824816228189,-0.12835454698153193
11.60099999999901,0.8653474766150457,-0.13305956694963886
11.800999999998899,0.8849304739668603,-0.13364894135107405
12.000999999998788,0.9026954675291681,-0.13140310914005876
12.200999999998677,0.9224126430810711,-0.12606068258054942
12.400999999998566,0.9470139738691393,-0.11541016004025667
12.600999999998455,0.9725491045045591,-0.11039783459555921
12.800999999998345,0.9910814138204863,-0.10764338222449829
13.000999999998234,1.0103762687881983,-0.11192407719571776
13.200999999998123,1.0300470093375762,-0.11731644467908156
13.400999999998012,1.052372955993038,-0.11926982934930844
13.600999999997901,1.0705169239334058,-0.12886098991629408
13.80099999999779,1.0899254278451465,-0.13400856853744705
14.00099999999768,1.107820437935672,-0.13489706702573004
14.200999999997569,1.1276567822239398,-0.13769236367902274
14.400999999997458,1.1444561339881167,-0.14354233196132477
14.600999999997347,1.1582428976276675,-0.1558828163545594
14.800999999997236,1.17285922492022,-0.1704237617953715
15.000999999997125,1.1879694223945128,-0.18490983308021353
15.200999999997014,1.2094446005605217,-0.18809823557627298
15.400999999996904,1.2292513537632208,-0.1930629702780643
15.600999999996793,1.247683942051832,-0.18745265854553353
15.800999999996682,1.2711101018392377,-0.18559402559656524
16.000999999996573,1.2930922126511117,-0.18234395495832473
16.200999999996817,1.3145077682648716,-0.18002534650623933
16.40099999999706,1.3339875815036288,-0.17485016643841936
16.600999999997306,1.3535583745908986,-0.17431738100427827
16.80099999999755,1.3738182722189511,-0.1770343852153461
17.000999999997795,1.3997914170830879,-0.17383878058588426
17.20099999999804,1.421913945673271,-0.17400742249156265
17.400999999998284,1.4410595121961807,-0.17621416234623447
17.60099999999853,1.4680180501372886,-0.1697888994859365
17.800999999998773,1.495319333168026,-0.16878478072335443
18.000999999999017,1.5139273254656416,-0.18102815054217924
18.20099999999926,1.534879742627562,-0.19013901030929659
18.400999999999506,1.5555024113144669,-0.2003515563755738
18.60099999999975,1.57178930928344,-0.20103580454840045
18.799999999999994,1.5879830869462408,-0.20107824591287524
19.000000000000238,1.6000737170536263,-0.2056030849805105
19.200000000000482,1.6161653290444464,-0.20599624116803317
19.400000000000727,1.6320715598327549,-0.21740351397999683
19.60000000000097,1.6472060988892063,-0.22060146595838545
19.800000000001216,1.659285640776701,-0.2289890011756161
20.00000000000146,1.679599911637799,-0.23195444601542817
