Time (s),X (m),Y (m)
0.001,0.0014545041853094038,0.0
0.20000000000000015,0.0006641135959954609,-4.406785263141413e-05
0.4000000000000003,0.0024509933419847563,0.00021573096977243713
0.6000000000000004,0.007492869484767388,-0.0007509580212911804
0.8000000000000006,0.01134394939872816,-0.0022788758627316653
1.0000000000000007,0.01419253270429811,-0.0008009459502974788
1.2009999999999785,0.01303346358483379,0.004075200249760603
1.4009999999999565,0.01516108469606969,0.002013307286592934
1.6009999999999345,0.01934692012755124,0.00042555966027289067
1.8009999999999124,0.029703271636149883,-0.0014705035405857647
2.0009999999998906,0.03900660688672747,-0.003762442678260813
2.2009999999998686,0.045875066137697665,-0.007426510789578479
2.4009999999998466,0.05762163156603982,-0.0091533316979984
2.6009999999998246,0.06219181921049528,-0.011047471041433188
2.8009999999998025,0.0672773422400031,-0.015363511413534833
3.0009999999997805,0.08261580210194575,-0.021086533974509283
3.2009999999997585,0.09253396143948071,-0.021514166590161577
3.4009999999997365,0.09861602502508808,-0.025664998611233256
3.6009999999997144,0.10761134147626555,-0.026372719663363006
3.8009999999996924,0.11450125713556698,-0.029171327652789847
4.000999999999671,0.11398868380015777,-0.03394248413487442
4.200999999999738,0.11793820812015174,-0.03541554187491793
4.400999999999804,0.13227712259335134,-0.042914719545282594
4.600999999999871,0.14378231136624958,-0.04874830190439903
4.800999999999938,0.15716357897648328,-0.0555005113400297
5.000000000000004,0.17071802319370125,-0.06069399082928238
5.200000000000071,0.18731217983731183,-0.07025455566544749
5.400000000000138,0.20472072193214874,-0.07804566631969587
5.600000000000205,0.2194225353970517,-0.08808795994530502
5.800000000000272,0.2323943941259557,-0.09666913256863978
6.000000000000338,0.2419936078588933,-0.10121334396444297
6.200000000000405,0.2524259645274219,-0.10837895665546177
6.400000000000472,0.2645372249312047,-0.11607499059101159
6.600000000000539,0.27803739617269946,-0.12183377378818722
6.800000000000606,0.299731254778632,-0.12783429358533388
7.000000000000672,0.3184998848314837,-0.13656358994140727
7.200000000000739,0.327420497401863,-0.14299506055722092
7.400000000000806,0.33470190859496407,-0.14600732032143593
7.600000000000873,0.34497695660119887,-0.14970924153704
7.8000000000009395,0.3645118403711786,-0.15473479576571741
8.000000000001005,0.38250818346524956,-0.16094675689710133
8.200000000000895,0.4015383345497414,-0.16925234839975273
8.400000000000784,0.4196325062699447,-0.17762933833179073
8.600000000000673,0.4362189059299515,-0.18700468045633684
8.800000000000562,0.45517807841582325,-0.19457578765025582
9.000000000000451,0.4727720145405725,-0.20208995043148129
9.20000000000034,0.48972008083471485,-0.20947049466420223
9.40000000000023,0.5152201110610383,-0.21854614213508747
9.600000000000119,0.5259089854844194,-0.22324702904367313
9.800000000000008,0.5376394699194661,-0.22526705251757603
10.000999999999896,0.5524215149842296,-0.23190391541737163
10.200999999999786,0.5748152830821505,-0.24124236755377498
10.400999999999675,0.5896286804436,-0.24911973127241072
10.600999999999564,0.6050634876461314,-0.256155053017868
10.800999999999453,0.6262333925056944,-0.26503550711714563
11.000999999999342,0.6385677759399045,-0.27300153575574676
11.200999999999231,0.653404343959402,-0.278328965151976
11.40099999999912,0.6674583996909302,-0.28705861703098684
11.60099999999901,0.6840631232292488,-0.2950738378771703
11.800999999998899,0.7088263407774683,-0.30929686513736937
12.000999999998788,0.7339652106329049,-0.32382076829823764
12.200999999998677,0.7554214461467946,-0.334253683080495
12.400999999998566,0.7771494010489644,-0.34589834572118394
12.600999999998455,0.7911729628902631,-0.35375459531183534
12.800999999998345,0.8139472762172406,-0.36770839286239965
13.000999999998234,0.8332729508095134,-0.37681546349630846
13.200999999998123,0.852366250362221,-0.3865424962340347
13.400999999998012,0.8724367051588144,-0.3947440735200566
13.600999999997901,0.8887706046355383,-0.40222472643755247
13.80099999999779,0.906393148913544,-0.4133711690227063
14.00099999999768,0.9295829202611263,-0.43054273937439486
14.200999999997569,0.9477023461705163,-0.4430620318260211
14.400999999997458,0.9666563992601147,-0.45611709647968735
14.600999999997347,0.9894720988749397,-0.4689392770283878
14.800999999997236,1.0116148298363719,-0.4836948693098673
15.000999999997125,1.0330102555237874,-0.4970578909004586
15.200999999997014,1.0495193368015434,-0.5080138152407532
15.400999999996904,1.0658601923672293,-0.5182104033751707
15.600999999996793,1.0891857518047035,-0.52943775136336
15.800999999996682,1.1093470416787155,-0.5455467835542377
16.000999999996573,1.1302406691718303,-0.5562487067884412
16.200999999996817,1.152224288190565,-0.5703682290506855
16.40099999999706,1.1774399624960974,-0.582859126644491
16.600999999997306,1.2012154856146817,-0.5938707762915598
16.80099999999755,1.2238524321746875,-0.6064028482738905
17.000999999997795,1.2493650160426366,-0.6214832876995736
17.20099999999804,1.2779395097505613,-0.64083572680026
17.400999999998284,1.3011339980926626,-0.6584853721147521
17.60099999999853,1.3254341306301294,-0.6760321968583484
17.800999999998773,1.349897861221643,-0.688840821454796
18.000999999999017,1.3757824394838272,-0.7028029499766817
18.20099999999926,1.4030183112746086,-0.7193375264856287
18.400999999999506,1.425209199198665,-0.7287369221440245
18.60099999999975,1.4436047815606974,-0.7375702207247274
18.799999999999994,1.4656818756302752,-0.7522365187263083
19.000000000000238,1.4835037255593013,-0.7653618794106016
19.200000000000482,1.5031795394302954,-0.7798726014162605
19.400000000000727,1.52193423636784,-0.7890801740817415
19.60000000000097,1.5453316948180684,-0.804596012281163
19.800000000001216,1.564052856290449,-0.8103304790074015
20.00000000000146,1.5822443319203665,-0.8231392219687815
