Time (s),X (m),Y (m)
0.001,-0.00060452123697562,8.989899140956135e-05
0.20000000000000015,0.0010890760810380684,-0.00011151106647728448
0.4000000000000003,0.0007899439041218315,-0.00011916057448501837
0.6000000000000004,0.00046620217916983715,0.00011666240529268521
0.8000000000000006,0.002434352074359912,-0.0017916555264335398
1.0000000000000007,0.0013265711905696691,-0.0025334111752594295
1.2009999999999785,-0.0007952083861519204,-0.00242552527432492
1.4009999999999565,-0.0026651543845173102,-0.0006944637535623688
1.6009999999999345,0.0032524687522466128,0.0005176944160724123
1.8009999999999124,0.00716899179347851,-0.0009348360165357661
2.0009999999998906,0.011618669977056911,-0.0038635578483213356
2.2009999999998686,0.012990550615925866,-0.0030877052660555765
2.4009999999998466,0.01697828617348007,-0.0010021828260407659
2.6009999999998246,0.025396433975271412,-0.0014808546151446162
2.8009999999998025,0.033799952653709886,-0.004053027809191636
3.0009999999997805,0.045710381001826915,-0.008263280117827263
3.2009999999997585,0.0534622688936707,-0.007590775933356131
3.4009999999997365,0.060442442283959195,-0.009208656673335662
3.6009999999997144,0.07229614052333908,-0.014610713332700505
3.8009999999996924,0.08641299139731609,-0.02247079729564333
4.000999999999671,0.10131914452619503,-0.029012726463892892
4.200999999999738,0.11307503196815313,-0.03422647499278083
4.400999999999804,0.13013931273538615,-0.043981027566885496
4.600999999999871,0.1403863023420106,-0.04768978631980472
4.800999999999938,0.14682585452988034,-0.047148374573461334
5.000000000000004,0.15379053993310093,-0.049671468558554546
5.200000000000071,0.1733139301796379,-0.057435207303244674
5.400000000000138,0.19307860684188405,-0.0657807696666333
5.600000000000205,0.20450057934793683,-0.07283657234243322
5.800000000000272,0.21778561249034173,-0.08301089555209315
6.000000000000338,0.2341294756708014,-0.09326195238423997
6.200000000000405,0.2581825422343259,-0.10464226612275848
6.400000000000472,0.27627035716837484,-0.11381224811127245
6.600000000000539,0.292697999351781,-0.12459626871023845
6.800000000000606,0.3112423249745388,-0.13455604870801674
7.000000000000672,0.3327602402764489,-0.1432729344095113
7.200000000000739,0.35162421591953164,-0.14925449270698066
7.400000000000806,0.37248013118961937,-0.161384281295523
7.600000000000873,0.39622923316112957,-0.17354597836212748
7.8000000000009395,0.41522429747076434,-0.18194716941469474
8.000000000001005,0.43212582690158674,-0.1852046204906566
8.200000000000895,0.45093717240836045,-0.19383713935130006
8.400000000000784,0.46641435883229115,-0.20564481910649987
8.600000000000673,0.4854139930728233,-0.2160482744386343
8.800000000000562,0.505354072424649,-0.22818593777877513
9.000000000000451,0.5195902973804456,-0.2386372894172656
9.20000000000034,0.5390560201120785,-0.2489380594392722
9.40000000000023,0.5575799137769701,-0.2618024817919543
9.600000000000119,0.5770963400673204,-0.2755797423058752
9.800000000000008,0.6044062472518952,-0.29218765945177494
10.000999999999896,0.6287140650418954,-0.30491413880282925
10.200999999999786,0.6511890687124963,-0.31381253792901115
10.400999999999675,0.6676030058042574,-0.315873538554365
10.600999999999564,0.6838772994852117,-0.32728615194657973
10.800999999999453,0.7064987767745645,-0.34672514594857246
11.000999999999342,0.7263334394536993,-0.362334658135758
11.200999999999231,0.7445642605087077,-0.37760302423869097
11.40099999999912,0.7621172942882991,-0.39502483412986905
11.60099999999901,0.7782044047892172,-0.4052343618870416
11.800999999998899,0.7907283486838592,-0.4222248534690048
12.000999999998788,0.803255129132153,-0.43542506401212977
12.200999999998677,0.8118520846160758,-0.45389041886330644
12.400999999998566,0.8194275744205899,-0.4768346474021846
12.600999999998455,0.826744016244888,-0.49488677281475413
12.800999999998345,0.8302627685524803,-0.506826233936121
13.000999999998234,0.8359589523632521,-0.5243973762651838
13.200999999998123,0.8397064527521192,-0.5447371935864028
13.400999999998012,0.8401524126652568,-0.5705987729652046
13.600999999997901,0.8337408190531231,-0.600628464110242
13.80099999999779,0.8232667110100806,-0.633372909048464
14.00099999999768,0.8098145395981731,-0.6617080083028878
14.200999999997569,0.7969205141557677,-0.6900582342032947
14.400999999997458,0.7896667730941211,-0.7156836151102366
14.600999999997347,0.7861706209064602,-0.7353441692249402
14.800999999997236,0.7786312891500428,-0.751864535240052
15.000999999997125,0.7717613177985649,-0.7756727618563881
15.200999999997014,0.7641776132416832,-0.7978597179414307
15.400999999996904,0.7524077113323319,-0.8232111218505693
15.600999999996793,0.7424658245971837,-0.8442989721535668
15.800999999996682,0.7306867761858321,-0.8646133307278586
16.000999999996573,0.7199531004402132,-0.8866828379362995
16.200999999996817,0.7073283272117143,-0.9090501942487798
16.40099999999706,0.6989805736902915,-0.9250507841912147
16.600999999997306,0.6922704570270397,-0.9441054285303104
16.80099999999755,0.6815154970039036,-0.9641262672312273
17.000999999997795,0.6762173127803007,-0.983848963552086
17.20099999999804,0.6719546366278184,-1.0048800028278477
17.400999999998284,0.6627811776840774,-1.0286553664449132
17.60099999999853,0.655919788031753,-1.051537254819376
17.800999999998773,0.645839779290109,-1.0720799146744082
18.000999999999017,0.6396292311849149,-1.0908605714291537
18.20099999999926,0.629982650836188,-1.1125174078568985
18.400999999999506,0.6160905446953789,-1.1378262918528974
18.60099999999975,0.6072012576506634,-1.1609132846712709
18.799999999999994,0.5917307869868162,-1.1908827722228361
19.000000000000238,0.5765266992467549,-1.2226604858589014
19.200000000000482,0.5628838935225458,-1.2484430889889997
19.400000000000727,0.5476432251885883,-1.27656620782841
19.60000000000097,0.5315170754997268,-1.3050381381079512
19.800000000001216,0.5181621076950659,-1.3326755928577814
20.00000000000146,0.5047632313317398,-1.3640170258892095
