Time (s),X (m),Y (m)
0.001,-0.00060452123697562,8.989899140956135e-05
0.20000000000000015,0.0007554979543149209,-7.973568952688648e-05
0.4000000000000003,0.0013615101757474936,-0.00010942360370628185
0.6000000000000004,0.002344223423854613,-0.00043922608801965816
0.8000000000000006,0.003848545278450964,-0.0006252301158127029
1.0000000000000007,0.005139215124593752,-0.00047687869293289403
1.2009999999999785,0.006276728418151472,-0.0002354294043546485
1.4009999999999565,0.008153959801209882,-3.2802766789158944e-05
1.6009999999999345,0.00977418306560663,0.00020860029307027814
1.8009999999999124,0.011989615089868339,0.0004760978087911947
2.0009999999998906,0.014331771224898196,0.0006195942226400307
2.2009999999998686,0.01695440914030652,0.0009374132560169695
2.4009999999998466,0.019922271667456234,0.001294090043525978
2.6009999999998246,0.02266757963098672,0.0019324600633950646
2.8009999999998025,0.025399907911850775,0.002589619177014041
3.0009999999997805,0.027588962767458276,0.003259215298884535
3.2009999999997585,0.030535785184820332,0.004011840310480713
3.4009999999997365,0.033544973805437264,0.004918336125813494
3.6009999999997144,0.03677004664779398,0.00599982438408039
3.8009999999996924,0.0394591413385563,0.007036501883798654
4.000999999999671,0.042583462196973516,0.008182466506173961
4.200999999999738,0.04583229794333703,0.009454216470716398
4.400999999999804,0.04911930505325345,0.010726820907435522
4.600999999999871,0.05239268070957887,0.012113963740816452
4.800999999999938,0.05583447855462694,0.013664475096753859
5.000000000000004,0.059783922936830665,0.015466666165426406
5.200000000000071,0.0632806145809952,0.017267824849725534
5.400000000000138,0.06735782975364715,0.019268097450676168
5.600000000000205,0.07176730007626626,0.0214294264667267
5.800000000000272,0.076352863263423,0.023913453715528513
6.000000000000338,0.08069161227090928,0.026511507515936113
6.200000000000405,0.08554750263464997,0.029182454047657062
6.400000000000472,0.09039657327148397,0.031921889714602594
6.600000000000539,0.09525311275823865,0.03477751277015562
6.800000000000606,0.10030799335147948,0.03781052082863077
7.000000000000672,0.10542110564524854,0.04094477157646171
7.200000000000739,0.11028485408122339,0.04409730443258519
7.400000000000806,0.11463760823465127,0.04720949269708281
7.600000000000873,0.11906115410260712,0.050369863885359474
7.8000000000009395,0.12353002884448787,0.053578003082708624
8.000000000001005,0.1281980530692298,0.056860938527282884
8.200000000000895,0.13293038064477072,0.060172843004283987
8.400000000000784,0.13765185903855567,0.06362349893360529
8.600000000000673,0.1425174815458736,0.06715370115382036
8.800000000000562,0.14726379989003366,0.07072105085808932
9.000000000000451,0.1521514851279611,0.07440663604871921
9.20000000000034,0.15646406064095494,0.07801231883982147
9.40000000000023,0.16115724936334858,0.08182855058802203
9.600000000000119,0.1657072253280769,0.08539443231035586
9.800000000000008,0.1701169996406792,0.08924633562154495
10.000999999999896,0.17489792642806015,0.09327200865478105
10.200999999999786,0.1792548869222793,0.09715569729315239
10.400999999999675,0.18365328698814914,0.10099484476675202
10.600999999999564,0.18815659939435325,0.10503042704385034
10.800999999999453,0.19231424530848312,0.10896711129257652
11.000999999999342,0.19685814497145568,0.11298091073623885
11.200999999999231,0.20229892077385525,0.11740356143910469
11.40099999999912,0.2068917552824269,0.12221358776593103
11.60099999999901,0.21127875695239864,0.1264447468655396
11.800999999998899,0.2155994054701814,0.13072936559023088
12.000999999998788,0.2199470246611226,0.13512064626671108
12.200999999998677,0.22503576714875945,0.14002963085678424
12.400999999998566,0.23032931900117218,0.14582583090755372
12.600999999998455,0.23420279175503816,0.15037139616665168
12.800999999998345,0.23826203392476858,0.1555898035607838
13.000999999998234,0.24245369905723038,0.1599398842556993
13.200999999998123,0.2473494201621416,0.16503937561062898
13.400999999998012,0.25196369038770616,0.17019878472328404
13.600999999997901,0.25691050097920776,0.17591689139726344
13.80099999999779,0.26104223698065016,0.18064994075502158
14.00099999999768,0.2654842015653696,0.18654300220793996
14.200999999997569,0.26999012547455037,0.1919318436384843
14.400999999997458,0.2740932737458584,0.19699475464225363
14.600999999997347,0.27754703754118915,0.20129920302185933
14.800999999997236,0.28172641619766403,0.20643321038432746
15.000999999997125,0.28609407178025686,0.21296859463564216
15.200999999997014,0.2902901166308516,0.21936532333087977
15.400999999996904,0.2946814879684631,0.2255519226540598
15.600999999996793,0.2987414064297335,0.2316903279337477
15.800999999996682,0.302734610657953,0.23718980529639752
16.000999999996573,0.3066298858826039,0.2426426013764739
16.200999999996817,0.31073330986604464,0.2496131517640248
16.40099999999706,0.3146290095183149,0.2551747302033167
16.600999999997306,0.31842892307933823,0.26066626409904214
16.80099999999755,0.32215987486096864,0.2662792093584276
17.000999999997795,0.3259128513064254,0.27301520604099877
17.20099999999804,0.3295535408084412,0.27851840131311245
17.400999999998284,0.33291628393613065,0.28379471788440264
17.60099999999853,0.3364454312950421,0.29007115296718344
17.800999999998773,0.3398822753722264,0.29565001259134793
18.000999999999017,0.34295186231357544,0.3014418678224563
18.20099999999926,0.346282993402786,0.30731069471492006
18.400999999999506,0.3491611213675371,0.31274376062113085
18.60099999999975,0.3522700141893022,0.31944041001822315
18.799999999999994,0.355207084032268,0.3265566794203987
19.000000000000238,0.35810411942682,0.33289832086994325
19.200000000000482,0.3606725659439082,0.3381607399625308
19.400000000000727,0.3627959070054537,0.3436683888142682
19.60000000000097,0.3649337725596711,0.3496310652339201
19.800000000001216,0.36694186586483235,0.35588597593133303
20.00000000000146,0.3690535664500654,0.3632630643310654
