Time (s),X (m),Y (m)
0.001,-0.00023999057263828476,-0.0007901558823345064
0.20000000000000015,0.0009741325771839567,0.00014380771555669604
0.4000000000000003,0.001996494645470702,3.3776019647334523e-05
0.6000000000000004,0.007092869525056766,0.0030835290390594464
0.8000000000000006,0.012345194128259025,0.006421068724331331
1.0000000000000007,0.02049448957353001,0.014300106047476864
1.2009999999999785,0.03016115493358272,0.020295539067968257
1.4009999999999565,0.038539809199113755,0.021782550408328865
1.6009999999999345,0.04058856918819881,0.02192310486443335
1.8009999999999124,0.044428428928084074,0.020531701720263144
2.0009999999998906,0.04880591027497638,0.021882073997953066
2.2009999999998686,0.05425080831762846,0.025046742099021524
2.4009999999998466,0.05988047887925465,0.02911343641239517
2.6009999999998246,0.062450649392553126,0.026594978794503316
2.8009999999998025,0.06699014813826344,0.02644992172451579
3.0009999999997805,0.07574205069142559,0.028927213801104145
3.2009999999997585,0.08253010702048826,0.0316901495243724
3.4009999999997365,0.08748232584358734,0.0387610838787264
3.6009999999997144,0.0940170082306988,0.048695573653193054
3.8009999999996924,0.10117329858168465,0.054869141789480644
4.000999999999671,0.10759532205384481,0.06188019468940788
4.200999999999738,0.11695921336215168,0.07050712619463957
4.400999999999804,0.1273628755104867,0.08454540870073456
4.600999999999871,0.13490749469562527,0.0913253722567704
4.800999999999938,0.13984654070901534,0.09380209393692185
5.000000000000004,0.1472880574558958,0.09826563233396438
5.200000000000071,0.15545890791664307,0.10348671748379495
5.400000000000138,0.1628233746267471,0.11342496320364516
5.600000000000205,0.17091931616251302,0.11338370615071111
5.800000000000272,0.1780287323334795,0.11391841277047132
6.000000000000338,0.1839675198272932,0.12203147561266339
6.200000000000405,0.19065373403006086,0.1277080483483933
6.400000000000472,0.1973422624815269,0.13057087597228498
6.600000000000539,0.2049551439685644,0.13341497623033755
6.800000000000606,0.21209647941599757,0.13825655236000267
7.000000000000672,0.21809767655356974,0.13946430488062445
7.200000000000739,0.22408255045377146,0.14346009586111114
7.400000000000806,0.2305279656425679,0.14654824485674714
7.600000000000873,0.23695001991831222,0.14950811825758673
7.8000000000009395,0.24235341174639183,0.15161727094619096
8.000000000001005,0.2459211552761465,0.15887519813433357
8.200000000000895,0.24657562816031192,0.17362249805081595
8.400000000000784,0.25133697600497945,0.18670318446354903
8.600000000000673,0.25743467703382006,0.19751243135741392
8.800000000000562,0.2639237706573642,0.20868843588817487
9.000000000000451,0.27285458204446034,0.2241926092924194
9.20000000000034,0.278531802465874,0.2341259133615285
9.40000000000023,0.280757275365814,0.24366362433389313
9.600000000000119,0.2845976399283383,0.2527655442975596
9.800000000000008,0.28894208611243993,0.2582461353778213
10.000999999999896,0.2923170552285424,0.2659403977292328
10.200999999999786,0.2930704686464679,0.2771448114532047
10.400999999999675,0.29834405840040956,0.28497255015382106
10.600999999999564,0.30073716988446825,0.29728506113097813
10.800999999999453,0.3012277858492371,0.3099650665725314
11.000999999999342,0.30170404498696524,0.3262257223544058
11.200999999999231,0.301572325851838,0.3446039894993221
11.40099999999912,0.29893019350336075,0.35579955077539965
11.60099999999901,0.29809256127125383,0.36687215717111865
11.800999999998899,0.29879967067165886,0.3795796492647222
12.000999999998788,0.2954349234579119,0.3936130368866607
12.200999999998677,0.2874605766972221,0.4120093762708
12.400999999998566,0.27783848505886216,0.43025658947521317
12.600999999998455,0.2751632810710958,0.44477152469134323
12.800999999998345,0.26909628014533027,0.45968578718285297
13.000999999998234,0.26839400716073336,0.47244488593888334
13.200999999998123,0.26853713068319746,0.486060260126879
13.400999999998012,0.26508466143867104,0.49988675444454317
13.600999999997901,0.25408785566899555,0.5144207385156914
13.80099999999779,0.23529249845156286,0.5274611473111848
14.00099999999768,0.22023260795236643,0.5429018447864833
14.200999999997569,0.2127505761069489,0.5569111351300458
14.400999999997458,0.20825385504689642,0.5712661425767948
14.600999999997347,0.19758166386075185,0.5816543719059311
14.800999999997236,0.18651692911919537,0.5885304597500052
15.000999999997125,0.17066551139831362,0.5930352929684928
15.200999999997014,0.15905749381460285,0.5977710026169855
15.400999999996904,0.14968929818049445,0.6034222054572349
15.600999999996793,0.13521641943466153,0.6062263050668867
15.800999999996682,0.12035290138658251,0.6109070421860818
16.000999999996573,0.10753581864500153,0.6148023619530715
16.200999999996817,0.08869633829993787,0.6178611228884116
16.40099999999706,0.07023594954877163,0.6180978700801546
16.600999999997306,0.05257524843792356,0.618301592956259
16.80099999999755,0.03979396957376678,0.619190988307805
17.000999999997795,0.032722992001141406,0.6251643669151601
17.20099999999804,0.021799685007093922,0.627915760706364
17.400999999998284,0.011936868312617983,0.6302156648552042
17.60099999999853,-0.00015820167799228323,0.6331192213787425
17.800999999998773,-0.007247832923124011,0.636281565731714
18.000999999999017,-0.022856097066767077,0.635633459672618
18.20099999999926,-0.04236988122586461,0.6313218696517868
18.400999999999506,-0.06172311137507543,0.6275054326203472
18.60099999999975,-0.07836322286561358,0.6252093713860979
18.799999999999994,-0.09741774082094617,0.6207935699947689
19.000000000000238,-0.11255867521309117,0.6187833569545718
19.200000000000482,-0.1261589894694112,0.6150518546731171
19.400000000000727,-0.13886816714535796,0.6102532578237025
19.60000000000097,-0.1534987227444038,0.6062863381350787
19.800000000001216,-0.16654454293547136,0.6042806865266215
20.00000000000146,-0.18024517925263872,0.5965796345891987
