Time (s),X (m),Y (m)
0.001,0.0007758142491328282,-0.0009692696795465074
0.20000000000000015,0.0007780187547421784,0.00026414541725095576
0.4000000000000003,0.0012910934788365155,-0.0003604975225894351
0.6000000000000004,0.0017290190405109141,-0.00047228588531638083
0.8000000000000006,0.0022034370230906925,-0.0006272114884714734
1.0000000000000007,0.002654854702389183,-0.0007227349547675751
1.2009999999999785,0.0031807302304010902,-0.0011471537960158627
1.4009999999999565,0.0036543280057184614,-0.0013904356520259042
1.6009999999999345,0.004120111563580522,-0.00160167377817772
1.8009999999999124,0.004608072467479936,-0.001906837126882809
2.0009999999998906,0.00510935819678995,-0.002267518699644533
2.2009999999998686,0.005616812450205458,-0.0026557603849798237
2.4009999999998466,0.006128312737700357,-0.0030655343973792883
2.6009999999998246,0.006640660064518437,-0.003485212881064302
2.8009999999998025,0.007153952988616074,-0.003913790710878835
3.0009999999997805,0.007669427276684834,-0.004356822101109627
3.2009999999997585,0.008189132794585064,-0.004818085875491612
3.4009999999997365,0.008713376504948342,-0.005296010414682458
3.6009999999997144,0.009246375621645868,-0.005791498539230579
3.8009999999996924,0.009788087361965694,-0.006303095454924712
4.000999999999671,0.010338526154686757,-0.006829607873743489
4.200999999999738,0.010898111144465983,-0.007370885269053469
4.400999999999804,0.011466974814200954,-0.007926659246922556
4.600999999999871,0.012045164600743737,-0.008496408392526276
4.800999999999938,0.012633086154417987,-0.009079762141028616
5.000000000000004,0.013225404903534186,-0.009662861380359506
5.200000000000071,0.013832859251333035,-0.010272144217453679
5.400000000000138,0.014449955112499023,-0.010893764281983189
5.600000000000205,0.015076874040083824,-0.011527428163148872
5.800000000000272,0.015713642639431858,-0.012172770105307606
6.000000000000338,0.016360473539556393,-0.01282953441324741
6.200000000000405,0.01701733877833491,-0.013497340290381903
6.400000000000472,0.017684187443931475,-0.014175928452943186
6.600000000000539,0.01836111981288308,-0.014865170841422725
6.800000000000606,0.019048198467048926,-0.015564934585773215
7.000000000000672,0.019745367775714198,-0.01627475696457962
7.200000000000739,0.020452611986915142,-0.016994142433600118
7.400000000000806,0.021170090824289133,-0.017722984021506072
7.600000000000873,0.021897832425770408,-0.018461109427718808
7.8000000000009395,0.022636118737307757,-0.01920828748982981
8.000000000001005,0.023385106559609597,-0.019964029248956728
8.200000000000895,0.02414474629899809,-0.02072825732753127
8.400000000000784,0.024914892014817273,-0.021500889503482085
8.600000000000673,0.025695170041016076,-0.02228135628556444
8.800000000000562,0.026485425536729997,-0.02306907271985143
9.000000000000451,0.02728557854379657,-0.023863819647067245
9.20000000000034,0.028095565901218762,-0.02466510024932188
9.40000000000023,0.02891544146570884,-0.025472524121417726
9.600000000000119,0.029745381928789012,-0.026285885524626813
9.800000000000008,0.030585226444349772,-0.027104599006472156
10.000999999999896,0.03144407039011496,-0.027943235048422558
10.200999999999786,0.03230324566958162,-0.02877010829850416
10.400999999999675,0.03317161534470557,-0.02959903442241073
10.600999999999564,0.03404905752395745,-0.03042931008904351
10.800999999999453,0.03493539132543587,-0.0312606761118532
11.000999999999342,0.03583042660523303,-0.03209231067002688
11.200999999999231,0.0367338391887024,-0.03292334719423884
11.40099999999912,0.0376457041512843,-0.03375332097553593
11.60099999999901,0.03856584268465663,-0.034582233306607264
11.800999999998899,0.03949422430853478,-0.03541007587797448
12.000999999998788,0.04043083253499255,-0.03623679587330146
12.200999999998677,0.0413753265320902,-0.03706194392432834
12.400999999998566,0.04232740742319354,-0.03788547516488331
12.600999999998455,0.04328691084968463,-0.038707297352110086
12.800999999998345,0.044253580148993873,-0.03952708527101294
13.000999999998234,0.04522712055312432,-0.04034479500637661
13.200999999998123,0.04620745409790008,-0.04116048187536847
13.400999999998012,0.047194494091317034,-0.04197396763844814
13.600999999997901,0.048187797872941994,-0.042785116651501656
13.80099999999779,0.049187124175899884,-0.04359384608776394
14.00099999999768,0.05019212649076876,-0.04440001222667296
14.200999999997569,0.051202587794888454,-0.04520330406684748
14.400999999997458,0.052218476912727955,-0.04600350575001754
14.600999999997347,0.053239766481873924,-0.046799989562152644
14.800999999997236,0.05426624637562137,-0.047592310022823756
15.000999999997125,0.05529769755839184,-0.04838008923075101
15.200999999997014,0.05633366836938907,-0.04916275409758034
15.400999999996904,0.05737397907293048,-0.0499399794441574
15.600999999996793,0.05841877048186296,-0.05071109751252774
15.800999999996682,0.05946804900485045,-0.05147554281323611
16.000999999996573,0.06052140260283383,-0.052232947922926654
16.200999999996817,0.06157859279701031,-0.052983173952871436
16.40099999999706,0.06263938001776244,-0.05372620721223809
16.600999999997306,0.06370332079620848,-0.05446188318139264
16.80099999999755,0.0647697622164825,-0.05519006831765512
17.000999999997795,0.06583707294385913,-0.05591064342765774
17.20099999999804,0.06690371053446437,-0.05662324093401971
17.400999999998284,0.06796824874084399,-0.057327540115923566
17.60099999999853,0.06902929608059494,-0.05802322033312027
17.800999999998773,0.0700857418431233,-0.058710421232806814
18.000999999999017,0.0711368941211344,-0.05938960250982331
18.20099999999926,0.07218236426066994,-0.06006177520351191
18.400999999999506,0.07322176914292912,-0.06072665567561213
18.60099999999975,0.07425468553538964,-0.061383934021373196
18.799999999999994,0.07526376082507047,-0.062021040617758975
19.000000000000238,0.07628239517693648,-0.06266289745612301
19.200000000000482,0.07729329447313028,-0.0632965750413821
19.400000000000727,0.07829588147781745,-0.06392205306749695
19.60000000000097,0.07928984768614085,-0.06453913079803633
19.800000000001216,0.08027508940099311,-0.0651474075688382
20.00000000000146,0.08125114786423512,-0.06574655852774322
