Time (s),X (m),Y (m)
0.001,0.0014505791105779379,8.989899140956135e-05
0.20000000000000015,0.0007653947976519202,-4.905087460092531e-05
0.4000000000000003,0.0016354176135700126,0.0006673656881982203
0.6000000000000004,0.005879843289809157,0.0006800266395395952
0.8000000000000006,0.015303957464089557,0.0017133372908458026
1.0000000000000007,0.019135763413592168,0.0028254582664487553
1.2009999999999785,0.026170836532122883,0.007729274348771017
1.4009999999999565,0.03466330252981398,0.008323617103510669
1.6009999999999345,0.042548679458312304,0.006921556540098089
1.8009999999999124,0.049608417193032814,0.009195741838637497
2.0009999999998906,0.05789134767156392,0.009009323438869508
2.2009999999998686,0.06350564532512229,0.01135745160373489
2.4009999999998466,0.06829310033482569,0.010636224722838341
2.6009999999998246,0.07575002296993183,0.010239633769447023
2.8009999999998025,0.08111283953471747,0.011293788684818933
3.0009999999997805,0.08591265104058357,0.012012107440130678
3.2009999999997585,0.09293723055515804,0.012456175640679197
3.4009999999997365,0.09922722512705173,0.010444546010265201
3.6009999999997144,0.1111289788110398,0.012024432642859656
3.8009999999996924,0.11538303568945549,0.014920035521080198
4.000999999999671,0.1257827374730546,0.015597800836790496
4.200999999999738,0.13651705897181873,0.015068596020147089
4.400999999999804,0.1472779529479668,0.017846555473517264
4.600999999999871,0.15672429884592987,0.018031488714958813
4.800999999999938,0.16310119346306706,0.016113266039729207
5.000000000000004,0.17337292764584614,0.010107567522838489
5.200000000000071,0.18991495020283777,0.006574124656242189
5.400000000000138,0.2063892621630323,0.0015560428011237384
5.600000000000205,0.21307803472265988,-0.002975875748565553
5.800000000000272,0.22413424764696666,-0.005376595094790548
6.000000000000338,0.23281990090148924,-0.008172578350725383
6.200000000000405,0.2453989344279908,-0.009516658528235198
6.400000000000472,0.2533522828077227,-0.011600217205223272
6.600000000000539,0.2653784304374371,-0.01616970373068658
6.800000000000606,0.28279608842823484,-0.01987834473620726
7.000000000000672,0.3003842751101834,-0.021912907545252023
7.200000000000739,0.31840815555481716,-0.02713437336273972
7.400000000000806,0.32902344432269875,-0.03264741312290803
7.600000000000873,0.3401618655624448,-0.037994606270970344
7.8000000000009395,0.35057615212229754,-0.04259182393656151
8.000000000001005,0.3630768777146167,-0.04733440071015806
8.200000000000895,0.37525653841421636,-0.05173604222904809
8.400000000000784,0.3889684150417263,-0.058702330838922165
8.600000000000673,0.3956073798868106,-0.062069595221320446
8.800000000000562,0.4043078636658052,-0.06467286123085926
9.000000000000451,0.41973068586086104,-0.06947256921504393
9.20000000000034,0.4241809750372708,-0.07081838676169502
9.40000000000023,0.4397517900412119,-0.07782089625262062
9.600000000000119,0.4538296842285002,-0.08467905662318612
9.800000000000008,0.4598041186530823,-0.08738859526831896
10.000999999999896,0.47027941117313393,-0.08899415150663882
10.200999999999786,0.48652179702502113,-0.0950659140765717
10.400999999999675,0.5022918561472368,-0.10367612160790722
10.600999999999564,0.5192397342643239,-0.11203226172822674
10.800999999999453,0.5334312720298378,-0.12078517147622261
11.000999999999342,0.5474913164341532,-0.129574893877436
11.200999999999231,0.5649949233856502,-0.13974574692102057
11.40099999999912,0.5817984757047268,-0.14759365326216645
11.60099999999901,0.594903407940514,-0.15155100585582248
11.800999999998899,0.6068717463259956,-0.15630959104555597
12.000999999998788,0.6182944592751202,-0.1635377033319564
12.200999999998677,0.6327705517714525,-0.17235270986111842
12.400999999998566,0.6502360650121982,-0.17950609333731624
12.600999999998455,0.6672710771337325,-0.18671981530638063
12.800999999998345,0.6828450246823515,-0.19552084102117598
13.000999999998234,0.6975142090160165,-0.20297019975016498
13.200999999998123,0.7167336502833107,-0.21043180117854923
13.400999999998012,0.7346015467774338,-0.21754447467370638
13.600999999997901,0.7470673762144985,-0.22565096414309235
13.80099999999779,0.7676442793470309,-0.23422842216602974
14.00099999999768,0.7898998984563822,-0.24584311384807495
14.200999999997569,0.8015036208819153,-0.24966171363398842
14.400999999997458,0.8135383038774506,-0.2544708712020879
14.600999999997347,0.8291953316282195,-0.26349326424709685
14.800999999997236,0.845754118717215,-0.2755046779090405
15.000999999997125,0.8628560966711704,-0.2856579072609046
15.200999999997014,0.8790416506449379,-0.2962954773040933
15.400999999996904,0.8929272892424497,-0.3040003235528892
15.600999999996793,0.9053623836948744,-0.30929536141965935
15.800999999996682,0.9247301837323624,-0.3206137948302114
16.000999999996573,0.9453806374634122,-0.3313692619804642
16.200999999996817,0.9659582725747707,-0.33992034176799263
16.40099999999706,0.98158187063098,-0.3483867955835709
16.600999999997306,1.000337677160204,-0.3585615708125496
16.80099999999755,1.0200178501255581,-0.3688410934905264
17.000999999997795,1.0377893194272896,-0.37821999100593856
17.20099999999804,1.053639297588287,-0.383933161262685
17.400999999998284,1.072007866450772,-0.39010449130216784
17.60099999999853,1.094343832322975,-0.3981397115797968
17.800999999998773,1.1147129002946237,-0.4074995892694272
18.000999999999017,1.1324119167413127,-0.41603062684294256
18.20099999999926,1.1489466869124796,-0.4259168664554506
18.400999999999506,1.1623230210403481,-0.43169536947031345
18.60099999999975,1.180310674777533,-0.4404088171041691
18.799999999999994,1.2022091475672685,-0.45188655938020156
19.000000000000238,1.2194462614768908,-0.4614040743584078
19.200000000000482,1.2378036381380095,-0.47032187123383395
19.400000000000727,1.257084654632441,-0.4809708103066135
19.60000000000097,1.2760738186248946,-0.49292985079407153
19.800000000001216,1.289901550601489,-0.49899970947682337
20.00000000000146,1.3060963766494667,-0.5067848684854308
