Time (s),X (m),Y (m)
0.001,0.0014505791105779379,-8.989899140956135e-05
0.20000000000000015,0.0008949808428601937,-8.876461871057133e-05
0.4000000000000003,0.0013110670502740737,-7.737175186134577e-05
0.6000000000000004,0.0019460328390194374,-0.0001347689856759447
0.8000000000000006,0.002670470943985479,-0.00022810174650902498
1.0000000000000007,0.0034922018076384643,-0.00036625271687888965
1.2009999999999785,0.0044732816161052085,-0.000537389002579589
1.4009999999999565,0.005334628481733635,-0.0006976961796253764
1.6009999999999345,0.006166052133429307,-0.0008550969779244933
1.8009999999999124,0.007057626524005538,-0.0010163988050534837
2.0009999999998906,0.00805065664875074,-0.0012032729773228802
2.2009999999998686,0.009119021834892839,-0.0014016933658051482
2.4009999999998466,0.0102271448861907,-0.0015907732779699433
2.6009999999998246,0.01135064884837645,-0.0017645041678306698
2.8009999999998025,0.012493111151856341,-0.001925358067105001
3.0009999999997805,0.013665270719930176,-0.0020770316115265564
3.2009999999997585,0.014875407606103992,-0.0022214832040437734
3.4009999999997365,0.016125637811612484,-0.002360940775380511
3.6009999999997144,0.01741323610503495,-0.0024944904770345883
3.8009999999996924,0.018733630606815904,-0.0026208814644463107
4.000999999999671,0.02008547952414195,-0.0027405387089567373
4.200999999999738,0.021469451198663628,-0.0028536400162114907
4.400999999999804,0.022886216881498868,-0.0029605718274432744
4.600999999999871,0.024336371121413607,-0.003061600707914259
4.800999999999938,0.02582007462272585,-0.003156867574393766
5.000000000000004,0.027309941289933404,-0.0032442420365716646
5.200000000000071,0.02886008409115831,-0.0033281561263882294
5.400000000000138,0.030443270921344273,-0.0034061851597574095
5.600000000000205,0.032059419870458496,-0.003478269513759421
5.800000000000272,0.03370893662915881,-0.003544260194948807
6.000000000000338,0.03539187231481086,-0.003604175900894228
6.200000000000405,0.037108272158345265,-0.0036578773817798325
6.400000000000472,0.038858325896929814,-0.0037051637706863325
6.600000000000539,0.04064206015033422,-0.0037458597657983625
6.800000000000606,0.0424595396382106,-0.0037799529001954395
7.000000000000672,0.044502625238785155,-0.0037837486206555187
7.200000000000739,0.04640906614602941,-0.003824140369170714
7.400000000000806,0.0485241494774304,-0.003817866645291109
7.600000000000873,0.05076161412260229,-0.003792009263341348
7.8000000000009395,0.05296215962511824,-0.003784266543853333
8.000000000001005,0.05525296782579804,-0.0037414336116544065
8.200000000000895,0.05762467187095313,-0.0036959401978025486
8.400000000000784,0.06009822581759951,-0.003646076092743242
8.600000000000673,0.0625061860266528,-0.0035566694766336017
8.800000000000562,0.06496912259909511,-0.003437868904690293
9.000000000000451,0.06753511811993124,-0.0033227763993476742
9.20000000000034,0.0701206297990897,-0.003173558339163394
9.40000000000023,0.07265043413736103,-0.0029976399500698334
9.600000000000119,0.07531894230026484,-0.0027871585074434645
9.800000000000008,0.07788905095845101,-0.0025476444945776496
10.000999999999896,0.08056821514926255,-0.002274602161072087
10.200999999999786,0.08318032800843082,-0.0019612016984100126
10.400999999999675,0.08585045946519941,-0.001581531791228986
10.600999999999564,0.08857901730575259,-0.0011903111063950606
10.800999999999453,0.0913597210225719,-0.0007258207612742199
11.000999999999342,0.09409351244976966,-0.00022478121797806248
11.200999999999231,0.09687279720728828,0.00032999960255622435
11.40099999999912,0.09970572828852639,0.0009417509858429218
11.60099999999901,0.10250949860006912,0.001626645729237351
11.800999999998899,0.1053145181520874,0.0023624514158181813
12.000999999998788,0.10826432515564427,0.003169021145117561
12.200999999998677,0.1112119744179806,0.004032060754603597
12.400999999998566,0.11408779918730302,0.004954675426528899
12.600999999998455,0.11700826410403219,0.005973562309256443
12.800999999998345,0.11997613203136746,0.00708135382890781
13.000999999998234,0.1229764554014301,0.008250370756425268
13.200999999998123,0.12602099515997142,0.009481097400592811
13.400999999998012,0.12908185405648173,0.010824825629185542
13.600999999997901,0.13207769603394512,0.012211206599102046
13.80099999999779,0.13523070873167575,0.01368876901030513
14.00099999999768,0.13844832786879302,0.015370330707603649
14.200999999997569,0.14183870738641813,0.017360824775072198
14.400999999997458,0.1451803594642558,0.019287046050531234
14.600999999997347,0.14881874994070948,0.02157788733633914
14.800999999997236,0.15214034538040722,0.02374106091269823
15.000999999997125,0.1553796936755128,0.025816328388512947
15.200999999997014,0.1587611512407899,0.028232518768427965
15.400999999996904,0.16241480328597108,0.03081387440961919
15.600999999996793,0.16566585481998494,0.033195627768376805
15.800999999996682,0.1690467687005307,0.03568477423149753
16.000999999996573,0.17262215047897894,0.038818926672555217
16.200999999996817,0.17646057932872772,0.04195879873805531
16.40099999999706,0.1800569929983095,0.04511200414861865
16.600999999997306,0.18409025348419022,0.04835419432058155
16.80099999999755,0.18745383638702343,0.05131082245347935
17.000999999997795,0.19102350517154482,0.05428111537892869
17.20099999999804,0.1951029965412523,0.05808799048971148
17.400999999998284,0.1988386036152966,0.06139366782134627
17.60099999999853,0.20362541199386675,0.06572814440921917
17.800999999998773,0.2088112069808929,0.0700392550828591
18.000999999999017,0.21327893231374348,0.07415822940841446
18.20099999999926,0.2177839354366055,0.07824904912510706
18.400999999999506,0.2225730298409292,0.08248362046531803
18.60099999999975,0.2274386671415065,0.08683799096525106
18.799999999999994,0.2318598228390215,0.0908462695337524
19.000000000000238,0.23674456454892254,0.09521710820041243
19.200000000000482,0.24174425838707322,0.10002696013736993
19.400000000000727,0.246523938525263,0.10472469395334152
19.60000000000097,0.2513336535313491,0.10948226460204856
19.800000000001216,0.2566453919698792,0.11450729517051234
20.00000000000146,0.2611598639152751,0.1187968936725366
