Time (s),X (m),Y (m)
0.001,-0.0005732996449108882,0.0002669654388657892
0.20000000000000015,0.0007188398791148504,-7.324938307103925e-05
0.4000000000000003,0.0013178617126348127,-0.00013367269259272323
0.6000000000000004,0.002311147315388542,-0.0005540660493793991
0.8000000000000006,0.0032749368137532974,-0.0010677073834079117
1.0000000000000007,0.0043468693020389144,-0.0016977382931240039
1.2009999999999785,0.005634330435542419,-0.0023827170480296223
1.4009999999999565,0.00680617838556572,-0.0029622650835596487
1.6009999999999345,0.007965719242692059,-0.00351848863184255
1.8009999999999124,0.009191672836873895,-0.004113777937708492
2.0009999999998906,0.010531583960177279,-0.004774225487748999
2.2009999999998686,0.011972727662746409,-0.005488014828676513
2.4009999999998466,0.013487860438980833,-0.00624532200381104
2.6009999999998246,0.015065792891417329,-0.007016822090166859
2.8009999999998025,0.01668811295139589,-0.007775901084323789
3.0009999999997805,0.01837848129696117,-0.008538855532615878
3.2009999999997585,0.020153243693672586,-0.009312565742006527
3.4009999999997365,0.022005437091712356,-0.010085044501892149
3.6009999999997144,0.023927756978973622,-0.010855235415401093
3.8009999999996924,0.025916785156373842,-0.011618529064071242
4.000999999999671,0.028027766888581124,-0.012324663805112024
4.200999999999738,0.030254760150677528,-0.012975788035945755
4.400999999999804,0.032552201504938726,-0.013617026575620582
4.600999999999871,0.03494376012047795,-0.014256413628110623
4.800999999999938,0.03745378880290697,-0.014827984965999809
5.000000000000004,0.03997526353626071,-0.015425790201806318
5.200000000000071,0.04263396301152596,-0.01597162799498899
5.400000000000138,0.0453417322749607,-0.016496917909462144
5.600000000000205,0.048096299969225896,-0.01699548902465328
5.800000000000272,0.05093471784423365,-0.017454857147024296
6.000000000000338,0.053842112667482324,-0.017885727026058645
6.200000000000405,0.05681410436930666,-0.018281211849625945
6.400000000000472,0.05983332116367808,-0.01864848149570498
6.600000000000539,0.0626498218428307,-0.018936169237384358
6.800000000000606,0.06548412479328496,-0.019157489281869864
7.000000000000672,0.0683806050906803,-0.019335982058406198
7.200000000000739,0.07134737519475054,-0.019472787006387354
7.400000000000806,0.07439097909508069,-0.019567661536959078
7.600000000000873,0.07731107543985205,-0.0195934931986113
7.8000000000009395,0.08017850291948607,-0.019513529664931313
8.000000000001005,0.08311835133315812,-0.01935697794947961
8.200000000000895,0.08614030555577341,-0.019131314823623517
8.400000000000784,0.0892927155314976,-0.018820108218573727
8.600000000000673,0.09255164538106717,-0.01841623392430336
8.800000000000562,0.09590660523997968,-0.017907300861512668
9.000000000000451,0.09922985332398286,-0.017309711930492386
9.20000000000034,0.10235718144180042,-0.01658316170455828
9.40000000000023,0.10556933798588745,-0.01572694918817028
9.600000000000119,0.10886631639426088,-0.01474734557364311
9.800000000000008,0.11225540769963703,-0.013641286381974918
10.000999999999896,0.11563944448294725,-0.012435821071277482
10.200999999999786,0.11904524539680557,-0.010859715899877675
10.400999999999675,0.1219946893538873,-0.009238274347494817
10.600999999999564,0.12485204495392906,-0.007289637759388621
10.800999999999453,0.1278465718070015,-0.005201115966077114
11.000999999999342,0.13112099629884857,-0.003226087070383749
11.200999999999231,0.13430856188662663,-0.0009570131885178712
11.40099999999912,0.1374610215258859,0.0008882676958024586
11.60099999999901,0.14025183755380385,0.003359274383081802
11.800999999998899,0.14340319663665255,0.006012589448492498
12.000999999998788,0.1467848387454518,0.008504017907063285
12.200999999998677,0.15003200584473,0.011300803600619164
12.400999999998566,0.15328756606649338,0.014300879979215544
12.600999999998455,0.15658314047672708,0.017418896086840406
12.800999999998345,0.15991759578142356,0.020651379594851815
13.000999999998234,0.16332440151678465,0.02399462639444052
13.200999999998123,0.1667735680561203,0.027433256552415207
13.400999999998012,0.17015646507561738,0.03089473594765202
13.600999999997901,0.1733564142612806,0.034605334241765935
13.80099999999779,0.17669730657515423,0.03841901841676378
14.00099999999768,0.1801689475948232,0.04236554370414524
14.200999999997569,0.18364040428328035,0.04651621420957496
14.400999999997458,0.18692159556961455,0.05083030121888447
14.600999999997347,0.19036688505561913,0.055150499932565655
14.800999999997236,0.19372118789722298,0.05965270580050867
15.000999999997125,0.19763824225791699,0.06441148733925822
15.200999999997014,0.20084205473014893,0.07055405583802733
15.400999999996904,0.20443324471926405,0.07616811194376459
15.600999999996793,0.20854074657292457,0.08254024801943906
15.800999999996682,0.21216234742937357,0.0888844105297687
16.000999999996573,0.21596668977479036,0.09440458292713391
16.200999999996817,0.22032392961060315,0.10130517039524296
16.40099999999706,0.22406760910752063,0.1079775099462639
16.600999999997306,0.22868999603567636,0.11465005218434225
16.80099999999755,0.23296938560604868,0.12184374352392842
17.000999999997795,0.2369272664915141,0.12781970560352798
17.20099999999804,0.24114025414443788,0.13547401792601124
17.400999999998284,0.24499714698099617,0.14270442924645166
17.60099999999853,0.2488165171666421,0.1491324063509003
17.800999999998773,0.25377180426560886,0.1574993958349029
18.000999999999017,0.25897804125720186,0.1655935363376969
18.20099999999926,0.26393901392604247,0.17427630272762115
18.400999999999506,0.2691009799935693,0.1825832927120035
18.60099999999975,0.27381076451484004,0.1915995064295435
18.799999999999994,0.2786874963905581,0.1997142420721369
19.000000000000238,0.28308901331143577,0.2087624681104176
19.200000000000482,0.28681810971067073,0.21632048547484015
19.400000000000727,0.291357819540417,0.2257981993246291
19.60000000000097,0.29720653672416086,0.23502369337623202
19.800000000001216,0.3013395498552732,0.24457951717413925
20.00000000000146,0.30540640002516284,0.25262405650139746
