Time (s),X (m),Y (m)
0.001,-0.0004702548317818469,-0.0005157376242541218
0.20000000000000015,0.0005866795403331342,-0.00021004596501811282
0.4000000000000003,0.0016878724205398583,0.00037091105406855744
0.6000000000000004,0.003234556466849877,0.001313901433882323
0.8000000000000006,0.006041505665480342,0.003397913932341613
1.0000000000000007,0.010441096927095602,0.005107008889005146
1.2009999999999785,0.013562036616800785,0.007418684876725704
1.4009999999999565,0.01704330848845614,0.00975154113526537
1.6009999999999345,0.021221629942923873,0.013067401071726912
1.8009999999999124,0.02518829390139151,0.015382360583797142
2.0009999999998906,0.028401368060133683,0.017170085097168414
2.2009999999998686,0.031345196469870114,0.019192247886800518
2.4009999999998466,0.03509079718112458,0.021783241250725068
2.6009999999998246,0.037574552962514246,0.023340759555794514
2.8009999999998025,0.04195305693498124,0.028689834276709725
3.0009999999997805,0.044826707600291914,0.030624365453492564
3.2009999999997585,0.048164365181846025,0.03332688195901909
3.4009999999997365,0.05126699482416072,0.03683565399071916
3.6009999999997144,0.05419899910004565,0.03961899799003058
3.8009999999996924,0.05738329611129188,0.04494957783921085
4.000999999999671,0.061216633542549394,0.04960884632439217
4.200999999999738,0.06436302522826871,0.055057948204872635
4.400999999999804,0.06745382680850796,0.058708423831546966
4.600999999999871,0.07020501485314677,0.06558621695107741
4.800999999999938,0.07223619734029506,0.06815566977188779
5.000000000000004,0.07505071642829442,0.07428537323808548
5.200000000000071,0.0769286656866531,0.07913279230340046
5.400000000000138,0.07852799333419236,0.0849647478790315
5.600000000000205,0.07963129055478317,0.09266454155413341
5.800000000000272,0.0804478639789162,0.09888513294746236
6.000000000000338,0.08092080461088122,0.10458985314608064
6.200000000000405,0.08099991921186038,0.11147316905289759
6.400000000000472,0.08135815586187675,0.1191192851803813
6.600000000000539,0.08070356560318231,0.12501717268966012
6.800000000000606,0.07974517375656323,0.13101316557602283
7.000000000000672,0.07901225133592477,0.1366821872997182
7.200000000000739,0.07786550787824678,0.1454338582540741
7.400000000000806,0.07482351807551343,0.15304955390050648
7.600000000000873,0.07281981010168294,0.16091377357944245
7.8000000000009395,0.07120317158091305,0.16880164666259212
8.000000000001005,0.07038763485421344,0.17615914022902765
8.200000000000895,0.06705657908825831,0.1821927220137099
8.400000000000784,0.0641750273012786,0.1883090141205123
8.600000000000673,0.058861791538681325,0.19565213505748782
8.800000000000562,0.0545619490224552,0.20222102324087152
9.000000000000451,0.05064393324784469,0.20902213623362542
9.20000000000034,0.04711447740023059,0.21540255254590776
9.40000000000023,0.043000413520106334,0.22163054317860117
9.600000000000119,0.03882262835782978,0.2279558136100887
9.800000000000008,0.033242860253503016,0.23474407773374117
10.000999999999896,0.02750423710902095,0.23968332454215655
10.200999999999786,0.023487343195020445,0.24625738360934668
10.400999999999675,0.01896487521750477,0.2512122164394819
10.600999999999564,0.011841173724534863,0.25673721861119636
10.800999999999453,0.004800316446885456,0.26248314764887165
11.000999999999342,-0.0022936332460666807,0.2685347797398249
11.200999999999231,-0.006757850576390499,0.27329598496617236
11.40099999999912,-0.013450150327998145,0.27790702373803444
11.60099999999901,-0.019305003672207957,0.28306377251052156
11.800999999998899,-0.025675175076082423,0.28792885477434205
12.000999999998788,-0.03189764843295423,0.2924286548347075
12.200999999998677,-0.03948024295670415,0.2959644197881509
12.400999999998566,-0.04715818607945763,0.3001013838549629
12.600999999998455,-0.0556221655512904,0.30454645199476355
12.800999999998345,-0.06318981289944063,0.30743456203508146
13.000999999998234,-0.07079044182170632,0.3097397872330369
13.200999999998123,-0.07733226589522035,0.31084961942806083
13.400999999998012,-0.08467989797063209,0.31278170783434656
13.600999999997901,-0.09219120643401359,0.3135555035794261
13.80099999999779,-0.09917571018315045,0.3131657096267869
14.00099999999768,-0.10477465513911047,0.3126192885022876
14.200999999997569,-0.11327158241413637,0.3129351913567825
14.400999999997458,-0.11993363238746255,0.3119382709872777
14.600999999997347,-0.12774993688223857,0.31055694735124484
14.800999999997236,-0.1352884653108512,0.30938372503116374
15.000999999997125,-0.14231582493209594,0.30891452095682426
15.200999999997014,-0.15045194135995604,0.30607793361764746
15.400999999996904,-0.1607058771483144,0.30290568192093975
15.600999999996793,-0.16773002056304803,0.2999638922253616
15.800999999996682,-0.17560668074050462,0.2985242544148936
16.000999999996573,-0.1851113196968085,0.29388533275399514
16.200999999996817,-0.19367925462654867,0.28970753990294557
16.40099999999706,-0.2018574243090271,0.2859135158310734
16.600999999997306,-0.20931928506911743,0.28300806848976195
16.80099999999755,-0.21718797313203814,0.27799130507235825
17.000999999997795,-0.22465927918819986,0.2730572273396457
17.20099999999804,-0.23183899664365495,0.2689546335358849
17.400999999998284,-0.23747605513030298,0.2651484610645176
17.60099999999853,-0.24370821481883032,0.2624004698705695
17.800999999998773,-0.25094888293823375,0.25733525735573953
18.000999999999017,-0.2571306835691426,0.25195149882114004
18.20099999999926,-0.2645430650046587,0.24215707072658163
18.400999999999506,-0.27299235810065886,0.23374097560752374
18.60099999999975,-0.27900148999863067,0.2289473336993384
18.799999999999994,-0.284893004416229,0.22157256440714979
19.000000000000238,-0.2905222812227268,0.21499571692973615
19.200000000000482,-0.29546877878564526,0.20935184449383898
19.400000000000727,-0.3001348754748225,0.20278157985373618
19.60000000000097,-0.3046015962703268,0.1954335442362378
19.800000000001216,-0.3099014377712352,0.1872806322327844
20.00000000000146,-0.3135842638325562,0.18210811909053357
