Time (s),X (m),Y (m)
0.001,-0.0005462407427453492,-0.00035278531233166996
0.20000000000000015,0.0017296569278140023,0.0004118361316678582
0.4000000000000003,0.004050497959145008,0.0037495350991991476
0.6000000000000004,0.01489752321021639,0.010156144611089846
0.8000000000000006,0.019829915664264303,0.017623885755777325
1.0000000000000007,0.028099005636408835,0.0229039416575693
1.2009999999999785,0.036849758086974924,0.0314897765360553
1.4009999999999565,0.054239714731018795,0.04494107290902858
1.6009999999999345,0.08415190593168595,0.059944127089054264
1.8009999999999124,0.10992447276812348,0.07025488771679098
2.0009999999998906,0.13392426048150258,0.07147508721543415
2.2009999999998686,0.15568690832433182,0.0655379598953106
2.4009999999998466,0.18150792496643214,0.052918377476811204
2.6009999999998246,0.20692762427122713,0.03755818078673546
2.8009999999998025,0.2276707119381322,0.029031260798870806
3.0009999999997805,0.24561133606702315,0.02490970316670166
3.2009999999997585,0.2597036330004686,0.02354904118509906
3.4009999999997365,0.28058161013719446,0.026405306565649135
3.6009999999997144,0.3055146204413773,0.032549249536941285
3.8009999999996924,0.3292938417053737,0.04080597505283939
4.000999999999671,0.3572942475368158,0.051524394194243324
4.200999999999738,0.3834441676491551,0.06414765482890215
4.400999999999804,0.4037007016106478,0.07325226013296714
4.600999999999871,0.42266415910841965,0.0767272917560601
4.800999999999938,0.44074392435347803,0.0794750522123415
5.000000000000004,0.45853120310595963,0.08099797725754697
5.200000000000071,0.485188824429307,0.08110389999639699
5.400000000000138,0.5263445556647975,0.07298937868284418
5.600000000000205,0.561028917791038,0.06128828202058382
5.800000000000272,0.6013055927602908,0.04707337712312429
6.000000000000338,0.6328283288293974,0.031378202092845066
6.200000000000405,0.6610685442853487,0.016422969770899493
6.400000000000472,0.689297932995178,-0.005779918794613929
6.600000000000539,0.7299136668216225,-0.03067580841159007
6.800000000000606,0.7603714862175094,-0.05489215217302215
7.000000000000672,0.7941113976407536,-0.07889182876621384
7.200000000000739,0.8415103706956836,-0.10579439968784002
7.400000000000806,0.8875360641333452,-0.13401997442614225
7.600000000000873,0.9305556762851582,-0.16365442689963802
7.8000000000009395,0.9711500616430193,-0.1966765209900715
8.000000000001005,1.0191888263942537,-0.23634990209277124
8.200000000000895,1.0645751668848236,-0.2752737469344733
8.400000000000784,1.108369250196459,-0.3172723064002368
8.600000000000673,1.1513064959203878,-0.3618067070650628
8.800000000000562,1.1910545562915242,-0.4108228592668806
9.000000000000451,1.2199128128392867,-0.45758708750684285
9.20000000000034,1.2259858175001896,-0.49595515425727327
9.40000000000023,1.2080563876337602,-0.5301013656014522
9.600000000000119,1.1760856271256879,-0.5650653119395688
9.800000000000008,1.1403003420978972,-0.603324931094228
10.000999999999896,1.1032171355247768,-0.6356014403417882
10.200999999999786,1.0632341496195081,-0.6750426202337262
10.400999999999675,1.0208828088263022,-0.7106677138434654
10.600999999999564,0.9745619924251814,-0.7492351300426333
10.800999999999453,0.9285595036094865,-0.7887860984029222
11.000999999999342,0.8777494889709344,-0.8287567686804177
11.200999999999231,0.8342535235004808,-0.8634076605298764
11.40099999999912,0.7880986448656845,-0.8971775436831588
11.60099999999901,0.745551182280533,-0.9264559328417293
11.800999999998899,0.6973590696970352,-0.9498164248682647
12.000999999998788,0.6522765600288053,-0.9684818815438345
12.200999999998677,0.6131693872551626,-0.9636047292841454
12.400999999998566,0.578337690103681,-0.9412085753505546
12.600999999998455,0.5497816549437758,-0.917675994428492
12.800999999998345,0.5222676500108606,-0.895314123318545
13.000999999998234,0.48484222645520053,-0.8746934957419826
13.200999999998123,0.44033844115872306,-0.8573840397044431
13.400999999998012,0.3957917734493036,-0.8401812765070513
13.600999999997901,0.3630313848104002,-0.8281001439322181
13.80099999999779,0.31952803479968905,-0.8135805116395624
14.00099999999768,0.25799347936563055,-0.7966240288606768
14.200999999997569,0.21934208168045616,-0.7800436110301461
14.400999999997458,0.1864898267983674,-0.7601506955792545
14.600999999997347,0.14892403923929615,-0.7392855968170047
14.800999999997236,0.10803961453276387,-0.7269680129522456
15.000999999997125,0.06810018191065216,-0.7154329033466579
15.200999999997014,0.03089476135123688,-0.7082088254058255
15.400999999996904,-0.015759379766906383,-0.7078650548656388
15.600999999996793,-0.04606483157045909,-0.7085420433172971
15.800999999996682,-0.08056619627923607,-0.7092894313136054
16.000999999996573,-0.1204294678513548,-0.7028287587231935
16.200999999996817,-0.18058381062227263,-0.6826707702437125
16.40099999999706,-0.24051434002206418,-0.6577819791920329
16.600999999997306,-0.30548524430213,-0.6276034841600758
16.80099999999755,-0.36143416740036866,-0.5867722784689443
17.000999999997795,-0.4061192779879487,-0.5454409898114342
17.20099999999804,-0.4483272609077611,-0.4990933200285393
17.400999999998284,-0.489633652160965,-0.44635201202653063
17.60099999999853,-0.526962448401339,-0.39781007752248554
17.800999999998773,-0.5592023653773724,-0.34527996516761866
18.000999999999017,-0.588248265111032,-0.2947582523540146
18.20099999999926,-0.6065494475902584,-0.23946191948256812
18.400999999999506,-0.6049152250478268,-0.18019489481567483
18.60099999999975,-0.587579726602889,-0.12801496838053805
18.799999999999994,-0.5544583602671498,-0.08102678648539129
19.000000000000238,-0.5189687757263539,-0.045053483589835436
19.200000000000482,-0.48736655624440806,-0.009195100740077672
19.400000000000727,-0.4538323358030172,0.05020955408712092
19.60000000000097,-0.421152870812922,0.10599419600813653
19.800000000001216,-0.38679710112610516,0.15756343147171112
20.00000000000146,-0.34442580431899245,0.20579483352134376
