Time (s),X (m),Y (m)
0.001,0.0007758142491328282,-0.0009692696795465074
0.20000000000000015,0.0009387860864783984,-0.00022008655304025962
0.4000000000000003,0.0018596848665202606,-3.941981567924136e-06
0.6000000000000004,0.005606304140548629,-0.0026523925465680104
0.8000000000000006,0.0073965909665170936,-0.0027566797039821813
1.0000000000000007,0.012895865442190867,-0.0048258511482150105
1.2009999999999785,0.015339230101440473,-0.0054517753733349765
1.4009999999999565,0.022684592246963738,-0.010657204855944534
1.6009999999999345,0.027546191256042074,-0.01610250866675338
1.8009999999999124,0.03323286800819687,-0.020158914962618985
2.0009999999998906,0.039161444215415044,-0.021651665964341003
2.2009999999998686,0.04579225839214538,-0.021207004161940504
2.4009999999998466,0.05591763455166128,-0.017305481798979633
2.6009999999998246,0.06700126174428486,-0.010520668199577657
2.8009999999998025,0.08021492571181851,-0.01253292698783871
3.0009999999997805,0.09005523048064366,-0.014302692362190207
3.2009999999997585,0.09856721282327764,-0.014500458613476368
3.4009999999997365,0.10452337265851566,-0.0180602515721675
3.6009999999997144,0.10657112257004327,-0.011925415359482766
3.8009999999996924,0.10796196973855295,-0.01048647460799648
4.000999999999671,0.11430872898605166,-0.011082255871079874
4.200999999999738,0.12056913543645376,-0.0026280175916766502
4.400999999999804,0.12631940221540938,0.0011559719321390248
4.600999999999871,0.135256401184982,0.0036691960218272275
4.800999999999938,0.14506819188270798,0.0005993247169666311
5.000000000000004,0.15140763651288944,-0.00045890772396834495
5.200000000000071,0.15525262713560747,0.009100098915358044
5.400000000000138,0.16470536291494495,0.010515465287203509
5.600000000000205,0.17130063045692834,0.006803897884747571
5.800000000000272,0.17961044387464822,0.008659214113323597
6.000000000000338,0.1867569800005802,0.007336282724679562
6.200000000000405,0.19391304132053316,0.015444042009049664
6.400000000000472,0.19485055777964627,0.02433913991475353
6.600000000000539,0.1966947046408496,0.03193740952079452
6.800000000000606,0.20680736976282318,0.03751561113797361
7.000000000000672,0.20637835638453253,0.046981851412084795
7.200000000000739,0.20865886512255075,0.05174680654854238
7.400000000000806,0.2189943860120974,0.062406191149087624
7.600000000000873,0.22189561253612228,0.07260685408845981
7.8000000000009395,0.22790146245584936,0.08164928297542595
8.000000000001005,0.23317759936201188,0.08709253273274756
8.200000000000895,0.23690199276467647,0.09081252013402934
8.400000000000784,0.23787410867710776,0.09785863967358027
8.600000000000673,0.23859352326408456,0.10612287458971256
8.800000000000562,0.24340628185062904,0.11267570689037132
9.000000000000451,0.247066262271797,0.1168974345472804
9.20000000000034,0.2529685170604494,0.12006206619295609
9.40000000000023,0.25562967508394235,0.1253344541928674
9.600000000000119,0.26827410671188356,0.127874753554516
9.800000000000008,0.2698604659983264,0.13482619519107436
10.000999999999896,0.2761899624491267,0.1411961242454887
10.200999999999786,0.28606495018988637,0.14642416325128005
10.400999999999675,0.2889466778893322,0.15315116803319936
10.600999999999564,0.2891979214790271,0.1616415332617489
10.800999999999453,0.29342321614287087,0.16775878568194072
11.000999999999342,0.3004854820692437,0.17539543960243076
11.200999999999231,0.3120135821418242,0.18285787004068058
11.40099999999912,0.3183709410634722,0.18708496232054306
11.60099999999901,0.3176956005785031,0.19510481428645407
11.800999999998899,0.3281029487126784,0.20095487274028806
12.000999999998788,0.3348378046459336,0.2049057697511522
12.200999999998677,0.3344160979895337,0.21007881622470848
12.400999999998566,0.3388314939689666,0.22071045404193107
12.600999999998455,0.3507254773625449,0.23058730765444435
12.800999999998345,0.3528182951436912,0.2394337175168097
13.000999999998234,0.35408737988493755,0.2465644207759614
13.200999999998123,0.36524883281218756,0.2539648921017223
13.400999999998012,0.36516157672255434,0.2638310390750749
13.600999999997901,0.3678662064466055,0.27404668267153653
13.80099999999779,0.36936763093189806,0.2832212985928717
14.00099999999768,0.36864658079249474,0.2905331131677437
14.200999999997569,0.37732194361928545,0.2960933441110238
14.400999999997458,0.37929231236752936,0.3028307477313611
14.600999999997347,0.3804870286610171,0.3116182894465515
14.800999999997236,0.38975528473846194,0.31934604028565117
15.000999999997125,0.3971119800602494,0.3265131811562128
15.200999999997014,0.39336589461185556,0.33799971037541043
15.400999999996904,0.39676478002467436,0.3460808704527398
15.600999999996793,0.4038250619791881,0.35312122185023737
15.800999999996682,0.4121724008871351,0.35934250896520026
16.000999999996573,0.42441555028812583,0.3667999089181349
16.200999999996817,0.4244196059640705,0.37915899098511796
16.40099999999706,0.42368725101214205,0.3881228458006502
16.600999999997306,0.42911748241075487,0.3972536760987542
16.80099999999755,0.4315414604796115,0.40424084718882347
17.000999999997795,0.43173164586168816,0.4124750268887518
17.20099999999804,0.4355573100539025,0.4214491402733815
17.400999999998284,0.44036112712773456,0.4315735361756836
17.60099999999853,0.4510762537679743,0.43461537081550966
17.800999999998773,0.4532993850464269,0.4431529947506568
18.000999999999017,0.4665876001225572,0.4476286060986626
18.20099999999926,0.4734423157343349,0.45308382442557527
18.400999999999506,0.47821354120907467,0.45844893909755263
18.60099999999975,0.4802761895190222,0.46519405090033267
18.799999999999994,0.4840704363487266,0.4739279585394536
19.000000000000238,0.48759142633731684,0.4828673816984097
19.200000000000482,0.4907594252200134,0.48940724874959257
19.400000000000727,0.4920338941050841,0.4956321713641065
19.60000000000097,0.49615671788557997,0.5052442633701378
19.800000000001216,0.5006317270824293,0.5150344668498275
20.00000000000146,0.5061718167425439,0.5234126143163637
