Time (s),X (m),Y (m)
0.001,-0.000592775884969954,-0.0001791137972120003
0.20000000000000015,0.0013942801202779245,0.0002210407415851981
0.4000000000000003,9.906997528137713e-06,0.0012146267962478499
0.6000000000000004,0.0035652042828738166,0.003455763462717278
0.8000000000000006,0.0065517866449094925,0.006515698331518679
1.0000000000000007,0.01018173324114933,0.009944735817491524
1.2009999999999785,0.02131247095108661,0.014742520083014478
1.4009999999999565,0.037035179492794626,0.023881079921149084
1.6009999999999345,0.047226895876088824,0.032271423845340236
1.8009999999999124,0.0482428635680649,0.03817227832286195
2.0009999999998906,0.058309659656235045,0.04608343240949152
2.2009999999998686,0.06645758922757829,0.05263925831675679
2.4009999999998466,0.06983631216907066,0.05995818366751902
2.6009999999998246,0.07850690476343898,0.06875094603656585
2.8009999999998025,0.09642992119713248,0.07836014293982052
3.0009999999997805,0.11318250250142287,0.08256154708532464
3.2009999999997585,0.1315831833890928,0.08311379295646203
3.4009999999997365,0.1519445135914759,0.0772527706377855
3.6009999999997144,0.17086823640062448,0.06941393799921927
3.8009999999996924,0.18946313837629758,0.05834356264352821
4.000999999999671,0.21069869419517054,0.04320376419992519
4.200999999999738,0.23145535379188353,0.03204580695455297
4.400999999999804,0.25122439368821436,0.017287243324819294
4.600999999999871,0.270389042928758,-0.0014019907238376529
4.800999999999938,0.28945060009395096,-0.01913814539100611
5.000000000000004,0.30765062561785045,-0.03848754866128973
5.200000000000071,0.3268395384174713,-0.05452866635376519
5.400000000000138,0.35188400891491983,-0.06461616917982586
5.600000000000205,0.37311637816566207,-0.07549991470442358
5.800000000000272,0.39127239371755534,-0.0881832373428352
6.000000000000338,0.41227611726799385,-0.1016411538127195
6.200000000000405,0.43070330900166565,-0.11809177759072162
6.400000000000472,0.45251851863425985,-0.1395334983007203
6.600000000000539,0.47560272383716024,-0.15917529871267636
6.800000000000606,0.49800185669075797,-0.17452615450609113
7.000000000000672,0.5198838019553566,-0.18847487081183234
7.200000000000739,0.5375442623026584,-0.20317833382710082
7.400000000000806,0.553073214685123,-0.2177580967601604
7.600000000000873,0.57645601767394,-0.23128206588018627
7.8000000000009395,0.6054727540183747,-0.24779998135864553
8.000000000001005,0.6322749586866749,-0.2635862409724376
8.200000000000895,0.6632055761161835,-0.27903890859801084
8.400000000000784,0.6962682456881762,-0.2957070010797224
8.600000000000673,0.7224256874530295,-0.31501864754063846
8.800000000000562,0.7492223291339886,-0.33047516836802715
9.000000000000451,0.7682293888692076,-0.3433388215427291
9.20000000000034,0.7990646411795725,-0.3572199448698832
9.40000000000023,0.8247196309090841,-0.37412340902741753
9.600000000000119,0.8525457881086869,-0.3880528698504924
9.800000000000008,0.8781958903932001,-0.4067716446717211
10.000999999999896,0.904045664275929,-0.4325027865910702
10.200999999999786,0.9319038224773613,-0.4552676175055962
10.400999999999675,0.9586932426038548,-0.47864683521861306
10.600999999999564,0.9872524559803639,-0.4992994406663062
10.800999999999453,1.0173340423825683,-0.5283065952861802
11.000999999999342,1.043715403390091,-0.5656969759365476
11.200999999999231,1.0620019287037552,-0.5914417954877285
11.40099999999912,1.0744678756159083,-0.6198946313006859
11.60099999999901,1.083729932342627,-0.6373370826194631
11.800999999998899,1.0923610923413074,-0.660206072872485
12.000999999998788,1.0991706367434484,-0.6880343225678075
12.200999999998677,1.1061973322623062,-0.7105239360736374
12.400999999998566,1.110510539809254,-0.7359852637065931
12.600999999998455,1.1118956704127316,-0.7561128885788958
12.800999999998345,1.1108342696458609,-0.7683512991025844
13.000999999998234,1.1149354206666198,-0.7915035955889637
13.200999999998123,1.1160280351986105,-0.8209794417135916
13.400999999998012,1.1103879671847225,-0.8504212641992861
13.600999999997901,1.0974305372375746,-0.8749970099721752
13.80099999999779,1.0794604679325652,-0.9068708674921859
14.00099999999768,1.0592222579491966,-0.93785294155565
14.200999999997569,1.036222737011619,-0.9746724228982074
14.400999999997458,1.0184920236453021,-1.0015924780614844
14.600999999997347,1.0021979388967814,-1.030285649901927
14.800999999997236,0.9806562417468766,-1.0708447605736475
15.000999999997125,0.9624295806294693,-1.102037428394183
15.200999999997014,0.9478949088635016,-1.1280237706195038
15.400999999996904,0.9337440330615421,-1.1553764360488052
15.600999999996793,0.9169643837852188,-1.182270216232489
15.800999999996682,0.8913135108473027,-1.2164113891145183
16.000999999996573,0.8659168930189446,-1.2524358822881594
16.200999999996817,0.8384685700806362,-1.2843120201181546
16.40099999999706,0.8153229977462617,-1.321984088776932
16.600999999997306,0.7881242430802506,-1.3598734682915645
16.80099999999755,0.7614989611899764,-1.389346505747209
17.000999999997795,0.743694122091947,-1.417826211376059
17.20099999999804,0.7248972833737838,-1.4491793155035688
17.400999999998284,0.7068337271530588,-1.482573952864997
17.60099999999853,0.6849509471039309,-1.5192325604865642
17.800999999998773,0.6694598855783633,-1.5523826987076508
18.000999999999017,0.6558688433180886,-1.575541541974694
18.20099999999926,0.6403854927224574,-1.5992909833413442
18.400999999999506,0.6227806402982773,-1.6285430749405663
18.60099999999975,0.5965878830496024,-1.663287245666201
18.799999999999994,0.5660955803669235,-1.6973656888525186
19.000000000000238,0.5409389772850928,-1.731857388579094
19.200000000000482,0.5171455521975129,-1.7660738017001347
19.400000000000727,0.4858685492187551,-1.8031104746499615
19.60000000000097,0.45699666823823343,-1.8372839694293364
19.800000000001216,0.4291236353621548,-1.8670940818383628
20.00000000000146,0.40100920395868284,-1.893269284985523
