Time (s),X (m),Y (m)
0.001,-0.00023999057263828476,0.0007901558823345071
0.20000000000000015,0.001647296102172162,-0.0011239434539347336
0.4000000000000003,0.0035076371560858535,-0.0014964148761241448
0.6000000000000004,0.013588862752049615,-0.00534489383303432
0.8000000000000006,0.02329947729071083,-0.0027944938775242025
1.0000000000000007,0.03492108026554003,0.0024660059148141505
1.2009999999999785,0.04990979655355043,0.0032120419245621756
1.4009999999999565,0.060430917874188854,0.002647835990789768
1.6009999999999345,0.07710403769260248,-0.004328641280712219
1.8009999999999124,0.10258640844090505,-0.015010062731488747
2.0009999999998906,0.12515181040941134,-0.0254848109254684
2.2009999999998686,0.13222867524920995,-0.022468860480457774
2.4009999999998466,0.1424457089886249,-0.02016272578872738
2.6009999999998246,0.1660014550214727,-0.028505906130329113
2.8009999999998025,0.1863249224315993,-0.02884798324088581
3.0009999999997805,0.19987081384872876,-0.03294038686769202
3.2009999999997585,0.20342474308402286,-0.02938408898651706
3.4009999999997365,0.21665080328173944,-0.021430876740797387
3.6009999999997144,0.2270150813835263,-0.011211951143252926
3.8009999999996924,0.24314490597470287,-0.007202823481627076
4.000999999999671,0.25693846839712986,-0.002947331517189117
4.200999999999738,0.276800787461914,-0.0015300143810411575
4.400999999999804,0.3102937488885344,-0.0076867566693180015
4.600999999999871,0.33391127101454,-0.0011248497721170008
4.800999999999938,0.3574040089644514,0.00782743399723972
5.000000000000004,0.3931561325121413,0.001063001533179151
5.200000000000071,0.43363501824791295,-0.008655851920768379
5.400000000000138,0.4727617598941845,-0.0200075415846996
5.600000000000205,0.5077225314072172,-0.031407107769349144
5.800000000000272,0.5409374346131844,-0.04550113595638996
6.000000000000338,0.5626505746961515,-0.06501720903998756
6.200000000000405,0.57935532791092,-0.0861212655146236
6.400000000000472,0.5899894194165288,-0.11339024439951936
6.600000000000539,0.5938423836077583,-0.14600997488109704
6.800000000000606,0.6014913023156082,-0.17783905337237807
7.000000000000672,0.6089832983659839,-0.20299095595988353
7.200000000000739,0.6075403126710924,-0.23752238323293778
7.400000000000806,0.5993640819928203,-0.29030036441415225
7.600000000000873,0.5901142237489347,-0.3347061384760331
7.8000000000009395,0.586432444727182,-0.3710582625966944
8.000000000001005,0.5866812159102003,-0.4055919686229995
8.200000000000895,0.5830349531153906,-0.440451882014098
8.400000000000784,0.5841288016517961,-0.473695023025819
8.600000000000673,0.5870929800297273,-0.5034515455407579
8.800000000000562,0.5879790037528524,-0.5401969835729897
9.000000000000451,0.5910702240483194,-0.5811118903174253
9.20000000000034,0.5940099841525147,-0.6131004887769737
9.40000000000023,0.5962985536519497,-0.6591861803986564
9.600000000000119,0.5986668754009331,-0.693421718763203
9.800000000000008,0.5969696119110276,-0.7290515313055778
10.000999999999896,0.6031374236780159,-0.7542183919037219
10.200999999999786,0.6066874446993086,-0.7854505828822786
10.400999999999675,0.6060668514104487,-0.8232013857765642
10.600999999999564,0.6093420633709348,-0.8601117819989637
10.800999999999453,0.6104274994588749,-0.9033422828305471
11.000999999999342,0.6080128488810401,-0.953270994400113
11.200999999999231,0.6061334084530445,-0.9938372198281904
11.40099999999912,0.5988314097115762,-1.0376829731010877
11.60099999999901,0.6042338201244072,-1.072751734683369
11.800999999998899,0.6050950916322285,-1.1068159499437535
12.000999999998788,0.6061128797180889,-1.1335957661961467
12.200999999998677,0.6118546872005571,-1.1608800177230303
12.400999999998566,0.6096599383076143,-1.1978023553626511
12.600999999998455,0.6036750704566393,-1.2357479265271558
12.800999999998345,0.5963163108880906,-1.2815410036815695
13.000999999998234,0.5834910920629464,-1.3309225838256922
13.200999999998123,0.5698900384595194,-1.3778446057215816
13.400999999998012,0.5573934302923006,-1.4401052601268602
13.600999999997901,0.5502722082712775,-1.4883241314274107
13.80099999999779,0.5497430027702446,-1.5193856026435297
14.00099999999768,0.5496741686711267,-1.55816188487965
14.200999999997569,0.5531877240359221,-1.5900708966992467
14.400999999997458,0.5592497267515828,-1.6227853436424486
14.600999999997347,0.56139652461487,-1.6579398561795498
14.800999999997236,0.5648827648859842,-1.7005384823149243
15.000999999997125,0.5634406989743334,-1.7451198969092836
15.200999999997014,0.5642632951796901,-1.7840980415873375
15.400999999996904,0.5625242047393293,-1.8275363990674816
15.600999999996793,0.5676184463671566,-1.8547305699756207
15.800999999996682,0.5664635743439276,-1.8887718224046512
16.000999999996573,0.562655658310794,-1.9307641995989826
16.200999999996817,0.5616781043092824,-1.976530358173356
16.40099999999706,0.554204745930856,-2.0151668732558234
16.600999999997306,0.5443443558492962,-2.0547873170911584
16.80099999999755,0.5377832263674671,-2.0917872023712163
17.000999999997795,0.5437080413210453,-2.1282879400496344
17.20099999999804,0.552681655903645,-2.163059559987323
17.400999999998284,0.559690227136449,-2.1985231210812275
17.60099999999853,0.5653846696861772,-2.2341499422220092
17.800999999998773,0.5740650065940639,-2.2692092009771727
18.000999999999017,0.5831661474720214,-2.3007969663524004
18.20099999999926,0.5872375771977886,-2.337471104590743
18.400999999999506,0.583978452669391,-2.3872969859169073
18.60099999999975,0.5801594675060759,-2.432129731516706
18.799999999999994,0.5749201092176632,-2.47677335642847
19.000000000000238,0.5748467563715639,-2.518133343772686
19.200000000000482,0.57157964093773,-2.571602541325164
19.400000000000727,0.573404034332915,-2.6160163387397035
19.60000000000097,0.5734181567840548,-2.6726186208961407
19.800000000001216,0.5695445796227825,-2.7217195976888973
20.00000000000146,0.5751725300037153,-2.754757801359074
