Time (s),X (m),Y (m)
0.001,-0.00060452123697562,8.989899140956135e-05
0.20000000000000015,0.0006612258042198498,-5.910243838160887e-05
0.4000000000000003,0.001276481761916454,-7.278191259536566e-05
0.6000000000000004,0.0019533801691668474,-0.00012600523627835105
0.8000000000000006,0.0028118799024958846,-0.0002584277880280881
1.0000000000000007,0.0036665758754892796,-0.0003940358390263093
1.2009999999999785,0.0044289691871783185,-0.0005310980716786933
1.4009999999999565,0.005316069193899521,-0.0006948693393124998
1.6009999999999345,0.00628212019991282,-0.0008727229096819844
1.8009999999999124,0.007272439010131686,-0.0010523784957407814
2.0009999999998906,0.008272841619428477,-0.001240550824398348
2.2009999999998686,0.009304118034951068,-0.0014316532529051167
2.4009999999998466,0.010374227020423645,-0.001614412369518066
2.6009999999998246,0.01148546473129794,-0.0017876637751015427
2.8009999999998025,0.01263203264410943,-0.001948655746499886
3.0009999999997805,0.01381310945620801,-0.0021005012153310298
3.2009999999997585,0.015028770805620047,-0.002246003487918228
3.4009999999997365,0.016277717448806076,-0.002384750941454934
3.6009999999997144,0.01755991422743404,-0.0025167343105471987
3.8009999999996924,0.01887583163315829,-0.0026423477679552916
4.000999999999671,0.02022550052427622,-0.002761396428953779
4.200999999999738,0.021608607829200776,-0.0028740412207837636
4.400999999999804,0.02302486387858585,-0.002980553484442083
4.600999999999871,0.024474243932657593,-0.0030812287182367436
4.800999999999938,0.025956842157602276,-0.0031762438389348804
5.000000000000004,0.02748446184527347,-0.003266900983486889
5.200000000000071,0.02903334184230417,-0.0033503041433443678
5.400000000000138,0.03061539194891517,-0.0034277892592180018
5.600000000000205,0.032230666222019484,-0.00349939078137366
5.800000000000272,0.03387925533242567,-0.003565058022024848
6.000000000000338,0.0355613405505721,-0.003624617012948427
6.200000000000405,0.037277000944758804,-0.0036780170329959306
6.400000000000472,0.03902624949577831,-0.003725187377174319
6.600000000000539,0.04080935223802094,-0.0037658602507027105
6.800000000000606,0.04262630411290495,-0.0037997529788096557
7.000000000000672,0.044652678145396696,-0.003803084421158793
7.200000000000739,0.046584829925873504,-0.0038430450553705504
7.400000000000806,0.04870818164000766,-0.0038128910667540013
7.600000000000873,0.0508619779014863,-0.0037950439339914377
7.8000000000009395,0.053042292190254206,-0.0037842337661837273
8.000000000001005,0.055305712074717545,-0.003724755286051007
8.200000000000895,0.05765188908302467,-0.003671558966095131
8.400000000000784,0.06010610402114255,-0.0036402911343930743
8.600000000000673,0.06250291735827133,-0.003527747850056113
8.800000000000562,0.06492479419813862,-0.0034262268216145677
9.000000000000451,0.06746911824424319,-0.003288310581640958
9.20000000000034,0.07003314399305745,-0.003157042901721354
9.40000000000023,0.07255208900458612,-0.0029580861410411475
9.600000000000119,0.07517887550282029,-0.0027694471471841494
9.800000000000008,0.07786254234662988,-0.002529541903833108
10.000999999999896,0.08047212382025291,-0.002285285427173815
10.200999999999786,0.08317008110490326,-0.0019422384180058385
10.400999999999675,0.08576876464630916,-0.0016025121038020784
10.600999999999564,0.08855909810345627,-0.0011797685568813662
10.800999999999453,0.09129159307844457,-0.0007580990182989382
11.000999999999342,0.09401093899074286,-0.00022581041939522488
11.200999999999231,0.0968386680136593,0.00028825610688021683
11.40099999999912,0.09965205907199175,0.0009403237535273181
11.60099999999901,0.10247231975231823,0.0015654265494824383
11.800999999998899,0.10534000288747372,0.0023316841412451125
12.000999999998788,0.10822520586505249,0.0030963879849402426
12.200999999998677,0.1111901023898251,0.003993745859855586
12.400999999998566,0.11407224579539875,0.004871139717267883
12.600999999998455,0.11709788161647343,0.005959612866922723
12.800999999998345,0.11997682687828504,0.0069896432286914445
13.000999999998234,0.1230660875813028,0.008200570647794841
13.200999999998123,0.12605911804979975,0.009388380666939818
13.400999999998012,0.12912316747385474,0.010777310832643881
13.600999999997901,0.1321194740794137,0.012108398022246275
13.80099999999779,0.13536348757438013,0.013670914108218555
14.00099999999768,0.138464842653602,0.015150630338186413
14.200999999997569,0.1419013612283199,0.017260756190171856
14.400999999997458,0.1451148015398984,0.019125386212915374
14.600999999997347,0.1486713007304547,0.02138683838532196
14.800999999997236,0.1521836783879567,0.023608722940412646
15.000999999997125,0.1558353077261989,0.02608164094394846
15.200999999997014,0.15890651034573444,0.02807455266101192
15.400999999996904,0.16303861922791849,0.031054468791707163
15.600999999996793,0.1663406686788072,0.03350697983640981
15.800999999996682,0.17015548337791628,0.0364266289593019
16.000999999996573,0.1735640068550771,0.03909602579514697
16.200999999996817,0.17747267460618482,0.04224821106145429
16.40099999999706,0.18119531357267618,0.04529865744780597
16.600999999997306,0.18559650592375293,0.04890561642005996
16.80099999999755,0.1892311756441531,0.05209744497921425
17.000999999997795,0.19347401767334707,0.055954800976713404
17.20099999999804,0.1973635314486693,0.05951869428785543
17.400999999998284,0.20143619280969682,0.06341118562702401
17.60099999999853,0.20517286442451232,0.06687320425955927
17.800999999998773,0.2095855162854479,0.07143953090485756
18.000999999999017,0.21401096060792352,0.07572533724820328
18.20099999999926,0.2198428902923812,0.08162461209016054
18.400999999999506,0.2245567584134652,0.08588657105568942
18.60099999999975,0.22919070725066976,0.08998525992572072
18.799999999999994,0.2339943526978811,0.09425925765523797
19.000000000000238,0.23904246333679036,0.09911626358724644
19.200000000000482,0.24353535955995864,0.10336105529344075
19.400000000000727,0.24875163253233507,0.10831013773202358
19.60000000000097,0.25346151656091603,0.11277409577239467
19.800000000001216,0.25819290120116356,0.11739453321582996
20.00000000000146,0.26329557585923397,0.1222161894401269
