Time (s),X (m),Y (m)
0.001,0.001392298616347667,0.0003527853123316693
0.20000000000000015,0.0006681709129959303,0.00011758669223650797
0.4000000000000003,0.0018666743728972229,0.0019361427941776796
0.6000000000000004,0.005634375110236875,0.004072008701270952
0.8000000000000006,0.011480954888309492,0.010298009614201102
1.0000000000000007,0.015744633737615362,0.021056112074297632
1.2009999999999785,0.028669632768986934,0.03109923132743923
1.4009999999999565,0.041751762576693996,0.04266247275426499
1.6009999999999345,0.05204040238842601,0.05349540803797576
1.8009999999999124,0.06302247632011353,0.060004487379839405
2.0009999999998906,0.07524161343571327,0.07053958961113922
2.2009999999998686,0.09075218720749645,0.08506287903163275
2.4009999999998466,0.09865624725685657,0.09781587788338192
2.6009999999998246,0.10736934759694315,0.11125009814600544
2.8009999999998025,0.11652086231442346,0.11942129843001205
3.0009999999997805,0.12271188852588942,0.13080796385642957
3.2009999999997585,0.1281781516317326,0.13647169417557223
3.4009999999997365,0.13983306359371808,0.1446725481644372
3.6009999999997144,0.14600266279791937,0.1582706080710377
3.8009999999996924,0.14615268385158214,0.16857510761387481
4.000999999999671,0.14839070986830685,0.1912754014587011
4.200999999999738,0.14990201335826422,0.21289644203462166
4.400999999999804,0.15420043316613277,0.22808674535832774
4.600999999999871,0.16201690241105998,0.2403242732722182
4.800999999999938,0.1745693675907575,0.26524538356643595
5.000000000000004,0.186761975676565,0.28812736576294623
5.200000000000071,0.19666465186577042,0.31227138372710195
5.400000000000138,0.20945820573576496,0.3348407369731973
5.600000000000205,0.2213419176982092,0.35441029082826764
5.800000000000272,0.22895884431620075,0.3755732629470071
6.000000000000338,0.2342444462696145,0.4056523409957526
6.200000000000405,0.2420456290965978,0.4312016685938922
6.400000000000472,0.2488104186927312,0.4578430757841815
6.600000000000539,0.2608007985768698,0.4864234358432271
6.800000000000606,0.2710107375065887,0.5101194272737057
7.000000000000672,0.2786574083855909,0.5412383507325798
7.200000000000739,0.27979010244449537,0.5717135544188334
7.400000000000806,0.2775289067029433,0.5986199964180307
7.600000000000873,0.2731281068383062,0.6343065760950158
7.8000000000009395,0.2651593710130444,0.654346104133385
8.000000000001005,0.255905944545573,0.673803303295105
8.200000000000895,0.24931634250966692,0.7024983530075918
8.400000000000784,0.251220174657833,0.7207679249251123
8.600000000000673,0.25632886275847444,0.7310713874736874
8.800000000000562,0.26188097217069595,0.7493316292585678
9.000000000000451,0.2667808407154566,0.7726444556086584
9.20000000000034,0.2706094475924073,0.7907378638757259
9.40000000000023,0.2734627334656999,0.815439170263024
9.600000000000119,0.27130981350236616,0.8410441722161147
9.800000000000008,0.26972876450058186,0.8553802572873259
10.000999999999896,0.2728667846559368,0.880803701364047
10.200999999999786,0.2737890395085733,0.8979912283011829
10.400999999999675,0.27508992091016793,0.9190927242753247
10.600999999999564,0.2756173774282187,0.9288614107381314
10.800999999999453,0.27605960816841263,0.956746505151388
11.000999999999342,0.2760987492619896,0.9836542136714924
11.200999999999231,0.27528954004291256,1.008930359731487
11.40099999999912,0.2754389214614287,1.027368099637561
11.60099999999901,0.2792155242413415,1.0518632778116708
11.800999999998899,0.2840536462033767,1.0858703275753763
12.000999999998788,0.2891103042922661,1.1181507618988373
12.200999999998677,0.2889860826309769,1.147327438912957
12.400999999998566,0.29226437473787936,1.1665069540330595
12.600999999998455,0.2998208211285766,1.19015718827914
12.800999999998345,0.31150029257013073,1.216687881574442
13.000999999998234,0.3239347330885747,1.2402765801914397
13.200999999998123,0.3328790568257303,1.2585714793162972
13.400999999998012,0.3387991021379705,1.2803307175725434
13.600999999997901,0.3392488416494225,1.2943334110669882
13.80099999999779,0.33744957790925334,1.3126117094119634
14.00099999999768,0.33519957571942005,1.3371852514838574
14.200999999997569,0.33249829884395155,1.3689066255539346
14.400999999997458,0.3299076571895789,1.392965755866288
14.600999999997347,0.32300034262416616,1.410880602345608
14.800999999997236,0.3175763439978491,1.4320987616135286
15.000999999997125,0.31307250625511945,1.472340186331833
15.200999999997014,0.3080397044735497,1.4980208681590295
15.400999999996904,0.3041786652080011,1.5224103708617636
15.600999999996793,0.29908833423986586,1.5445275538425267
15.800999999996682,0.29325491653178637,1.5680575007216737
16.000999999996573,0.28531001368065223,1.579674750883349
16.200999999996817,0.27844778288463906,1.6014207765351998
16.40099999999706,0.2758127598735924,1.6254842844516133
16.600999999997306,0.2758987681142308,1.6504175775405987
16.80099999999755,0.28717181161169336,1.6855568503769123
17.000999999997795,0.3185042782832905,1.7279801199808151
17.20099999999804,0.3566683236507299,1.7698153684676552
17.400999999998284,0.3986233570456904,1.8119884872969578
17.60099999999853,0.43513432403882985,1.8458608714931766
17.800999999998773,0.48267707052454517,1.8777272948504966
18.000999999999017,0.5267761190683906,1.909875357111888
18.20099999999926,0.5582443793038413,1.9377921961381293
18.400999999999506,0.5786715493291036,1.9539079408810873
18.60099999999975,0.603417843842296,1.9589894940059789
18.799999999999994,0.6320459579254146,1.9559492795115696
19.000000000000238,0.6612611826241245,1.9518672361489497
19.200000000000482,0.6983784549021252,1.948245662296606
19.400000000000727,0.7275651532912208,1.9434306099227387
19.60000000000097,0.7643366297646178,1.9417334510925515
19.800000000001216,0.8069238607649151,1.9392273007427827
20.00000000000146,0.8375558828216287,1.9371838491766307
