Time (s),X (m),Y (m)
0.001,0.0013163127053841656,-0.0005157376242541218
0.20000000000000015,-0.00012264523088072153,0.00052150477448053
0.4000000000000003,-0.001881219636919885,0.002892957935406284
0.6000000000000004,0.002393245471226253,0.0019275706031244794
0.8000000000000006,0.005632544412356559,0.005599671958855685
1.0000000000000007,0.005062048874973761,0.009016485641643384
1.2009999999999785,0.00474284071111746,0.00718988123262868
1.4009999999999565,0.009915841321066004,0.009725477735647404
1.6009999999999345,0.024587696457857695,0.008847352402572475
1.8009999999999124,0.03879289090018264,-0.002914486952428677
2.0009999999998906,0.04284921321635322,-0.0016669688228563375
2.2009999999998686,0.04589593819399923,-0.0022326245462595566
2.4009999999998466,0.06051141286390129,-0.0059471286083508015
2.6009999999998246,0.07766365212476983,-0.009665649441513805
2.8009999999998025,0.09809816687643039,-0.017966683579717126
3.0009999999997805,0.12186450442230523,-0.03234568822778232
3.2009999999997585,0.13940476037449767,-0.05696175921593248
3.4009999999997365,0.16098686925959485,-0.07322184225739567
3.6009999999997144,0.1844253326408166,-0.09078174224211913
3.8009999999996924,0.20082752060084236,-0.1141397459501973
4.000999999999671,0.20917855755205378,-0.14051577175538657
4.200999999999738,0.20855152402445953,-0.168619116472449
4.400999999999804,0.20078458409741626,-0.20064949121453052
4.600999999999871,0.19161167728312645,-0.23547978417323692
4.800999999999938,0.18332114072653952,-0.26869828943868135
5.000000000000004,0.16871164707190953,-0.29678740858649555
5.200000000000071,0.15281014008973443,-0.3206303774958013
5.400000000000138,0.1295502686826695,-0.3434922213772795
5.600000000000205,0.10252386600895763,-0.361250595829806
5.800000000000272,0.08315941002544507,-0.36988728258655995
6.000000000000338,0.05965627546176084,-0.37314318707424365
6.200000000000405,0.0380470191313299,-0.3713977873996134
6.400000000000472,0.0127549598860548,-0.3647354008026046
6.600000000000539,-0.019085455638142172,-0.3559726830586493
6.800000000000606,-0.05438842046163922,-0.3430976248121738
7.000000000000672,-0.09381956192948789,-0.3180409554955546
7.200000000000739,-0.12866919584956468,-0.2895522263951605
7.400000000000806,-0.15407259646777416,-0.2628559195628868
7.600000000000873,-0.1716336613711391,-0.23904285063798658
7.8000000000009395,-0.18281436102679247,-0.20457452682032715
8.000000000001005,-0.189057478285974,-0.1755806456149256
8.200000000000895,-0.17833639553105787,-0.13859532832141475
8.400000000000784,-0.1766775647351982,-0.11417048768725646
8.600000000000673,-0.16754611004398282,-0.08768170925094841
8.800000000000562,-0.15930363811480222,-0.053482721024729715
9.000000000000451,-0.148591745110497,-0.019238370142336956
9.20000000000034,-0.14038910950816086,0.014031434748943666
9.40000000000023,-0.13153877103042466,0.04437292247031064
9.600000000000119,-0.12118336125528895,0.08505058960661617
9.800000000000008,-0.10048499242637139,0.1327971954719921
10.000999999999896,-0.0674627781775497,0.17669070603359935
10.200999999999786,-0.033955369705112357,0.19536697812113774
10.400999999999675,0.006537770214628813,0.18985892205559782
10.600999999999564,0.05034838188692711,0.17213928859235464
10.800999999999453,0.09815023741066896,0.15051602389381347
11.000999999999342,0.1334936854389452,0.1392268508811631
11.200999999999231,0.17221867974166774,0.1284653656394616
11.40099999999912,0.21002134699616637,0.12397436018982594
11.60099999999901,0.2452957424129913,0.11551174148260926
11.800999999998899,0.2800356530793177,0.09692739512456308
12.000999999998788,0.32011771406666967,0.08091404525384632
12.200999999998677,0.35760440561677553,0.0650678106317499
12.400999999998566,0.39599832396888546,0.047677893403920014
12.600999999998455,0.4402838587211043,0.02685980073425578
12.800999999998345,0.47914144559304345,0.0036074498490263683
13.000999999998234,0.5151374103096933,-0.028448523990899897
13.200999999998123,0.5417271788263766,-0.05950567859546678
13.400999999998012,0.559834118989798,-0.09076045119299256
13.600999999997901,0.5643192910427638,-0.12922906603086276
13.80099999999779,0.5532671701878092,-0.17645839519534895
14.00099999999768,0.5415763603633051,-0.2215520465038864
14.200999999997569,0.527812820920582,-0.26084502843686
14.400999999997458,0.5091909196954569,-0.3025963283471311
14.600999999997347,0.5035421370916082,-0.3347382055422943
14.800999999997236,0.4898021318737582,-0.37974216909751646
15.000999999997125,0.47221093118028723,-0.42476405459553035
15.200999999997014,0.4631633384585578,-0.46281150487407935
15.400999999996904,0.4567390319894592,-0.4987725382523467
15.600999999996793,0.4389118884785713,-0.5406418883901281
15.800999999996682,0.4250943254763394,-0.5759691896682979
16.000999999996573,0.4055980135990163,-0.6134418542490508
16.200999999996817,0.3891810018937954,-0.6580391360407429
16.40099999999706,0.37101205729123904,-0.7018677116070176
16.600999999997306,0.3580688291174988,-0.7400631542983194
16.80099999999755,0.33254919344000383,-0.7698611539447588
17.000999999997795,0.2981989940151857,-0.7890182164359937
17.20099999999804,0.24791762142456486,-0.7958536370092314
17.400999999998284,0.18680087591619107,-0.7871885528466688
17.60099999999853,0.12556320605891408,-0.7722935662528666
17.800999999998773,0.07350349848681283,-0.757522993386739
18.000999999999017,0.033070795332427,-0.747680672069271
18.20099999999926,-0.005599440824165905,-0.7378875327326356
18.400999999999506,-0.05711576709858017,-0.721493455139753
18.60099999999975,-0.11220976489052459,-0.7053970269521127
18.799999999999994,-0.15815908574542265,-0.6911133678832937
19.000000000000238,-0.199812181999976,-0.6769057226981273
19.200000000000482,-0.23917906095067967,-0.6702279126460283
19.400000000000727,-0.2822470997705173,-0.6573107291326532
19.60000000000097,-0.32268685058710006,-0.6421013219238378
19.800000000001216,-0.3663664415640405,-0.6242498092967101
20.00000000000146,-0.4085354250485432,-0.6144234956859475
