Time (s),X (m),Y (m)
0.001,0.0014505791105779379,-8.989899140956135e-05
0.20000000000000015,0.0008480500382759034,-7.324828359332955e-05
0.4000000000000003,0.001521358355835865,-0.00011525852643897302
0.6000000000000004,0.0024685923043990445,-0.00043188697388173885
0.8000000000000006,0.00384283231799314,-0.0006728387391434852
1.0000000000000007,0.0050934682878119785,-0.0005509261055533933
1.2009999999999785,0.006410133826177456,-0.0003219718832408536
1.4009999999999565,0.00828683912614819,-9.420553123362419e-05
1.6009999999999345,0.010240578498835567,0.00012183721634378893
1.8009999999999124,0.012166440853270837,0.00040122460870608325
2.0009999999998906,0.014496307766913854,0.0006560104042443811
2.2009999999998686,0.017006808824440674,0.0009883544349109233
2.4009999999998466,0.01992719941928021,0.0013479476195484104
2.6009999999998246,0.022941385871482825,0.001804284675210285
2.8009999999998025,0.02592317298199035,0.002574244888850294
3.0009999999997805,0.02874264709467651,0.0033731014164769778
3.2009999999997585,0.031827683676951816,0.004280964121229265
3.4009999999997365,0.03499336592044998,0.0052458242148202775
3.6009999999997144,0.03811176642638402,0.006268558636239047
3.8009999999996924,0.04115635465405198,0.007462332698534066
4.000999999999671,0.04423666452767173,0.00863215591290643
4.200999999999738,0.04754202520006748,0.009940505771517397
4.400999999999804,0.051137016743712106,0.011384592126840388
4.600999999999871,0.05468027341186556,0.012886178336618632
4.800999999999938,0.0584748311623942,0.014646818974234208
5.000000000000004,0.06260293214478163,0.01648591007287124
5.200000000000071,0.06694882510151512,0.018485314625676052
5.400000000000138,0.0713245494227788,0.020555864856197325
5.600000000000205,0.07594702049573826,0.022849443605089895
5.800000000000272,0.08063955142841,0.025249286778300288
6.000000000000338,0.08511625532758724,0.027685451833032622
6.200000000000405,0.08914011429616686,0.03024359969284809
6.400000000000472,0.09326957096632237,0.0328822893738916
6.600000000000539,0.09742127129235237,0.03557414633038828
6.800000000000606,0.10175461392646502,0.03843653156303886
7.000000000000672,0.10620322666534317,0.041379564173553214
7.200000000000739,0.11054848279077911,0.04458272459793288
7.400000000000806,0.11526189751261315,0.04766968689532682
7.600000000000873,0.12024964131499649,0.050885731116987104
7.8000000000009395,0.12488465847285228,0.05424826114358453
8.000000000001005,0.1298374993465701,0.05814268348227871
8.200000000000895,0.13418857388273595,0.061576655199092944
8.400000000000784,0.13891100081366484,0.06503199185074242
8.600000000000673,0.14314928538885283,0.06853128750776676
8.800000000000562,0.14756196472139518,0.07210395336313294
9.000000000000451,0.15200697423164417,0.07568029033992155
9.20000000000034,0.1563431878424207,0.07953319539699799
9.40000000000023,0.16051923552632005,0.08313544232881978
9.600000000000119,0.16459778377522985,0.0866955542867687
9.800000000000008,0.1694798224808076,0.09057102333162166
10.000999999999896,0.17437993581331213,0.09521507753315538
10.200999999999786,0.17979419807620975,0.1005210115209586
10.400999999999675,0.18532432459196407,0.10562018603186148
10.600999999999564,0.19026122194579503,0.11023861599799097
10.800999999999453,0.19496893391745962,0.11465858617787877
11.000999999999342,0.19900779098974875,0.11886962981896887
11.200999999999231,0.20376607734554356,0.12329570099910013
11.40099999999912,0.20842304885748542,0.12779855930229883
11.60099999999901,0.2126249900067893,0.13179920416815358
11.800999999998899,0.21660718432521914,0.1359184873993306
12.000999999998788,0.22125393476431343,0.14043163012360366
12.200999999998677,0.2257787179232584,0.14552589714294709
12.400999999998566,0.23070942663518298,0.15042625935012857
12.600999999998455,0.23585356502864105,0.155598639953182
12.800999999998345,0.23999030655395429,0.16019176788098205
13.000999999998234,0.24439783858660327,0.16484804556928762
13.200999999998123,0.2490891594875295,0.16993913344933953
13.400999999998012,0.2543386597389337,0.17662462116706715
13.600999999997901,0.2585864776869706,0.1815197690878375
13.80099999999779,0.26284596543570476,0.18770290514294286
14.00099999999768,0.26709554611712194,0.19272588109375124
14.200999999997569,0.27114114130072436,0.1979305211385773
14.400999999997458,0.27581174473821857,0.20441795789222064
14.600999999997347,0.27926128503132835,0.2087091200100302
14.800999999997236,0.2834405039883434,0.21435941527790678
15.000999999997125,0.287859893426906,0.21980733801680222
15.200999999997014,0.2917959657636608,0.2251835253044683
15.400999999996904,0.29571727219508737,0.23149054388991167
15.600999999996793,0.3000456399634977,0.23778589775285994
15.800999999996682,0.30361373774848144,0.24305931744822776
16.000999999996573,0.307236430237279,0.24836610702414982
16.200999999996817,0.31156947960809295,0.2555025329826292
16.40099999999706,0.31539352468389764,0.2610281853870911
16.600999999997306,0.3191115561864128,0.267796079240896
16.80099999999755,0.32322525513454653,0.27402145078846507
17.000999999997795,0.3266616216880859,0.28036937606739304
17.20099999999804,0.3304159839928227,0.2862389748383595
17.400999999998284,0.3335860138289899,0.29134846659133135
17.60099999999853,0.3366200598159894,0.2970134921526516
17.800999999998773,0.33979991697311424,0.30274559150748914
18.000999999999017,0.3431113619444635,0.30924542952208595
18.20099999999926,0.34665480979609853,0.3165179060542923
18.400999999999506,0.3493496595326761,0.32364455104380463
18.60099999999975,0.35197628120996044,0.3292567007649405
18.799999999999994,0.35427880559323394,0.3375902781827282
19.000000000000238,0.35650847099080135,0.34456743976042165
19.200000000000482,0.3586276410178176,0.3514354167133738
19.400000000000727,0.3606270043066631,0.3572714082944351
19.60000000000097,0.3621593625892094,0.3631573131941518
19.800000000001216,0.3636360771864254,0.3695373109181786
20.00000000000146,0.36496829841431955,0.3757546708025902
