Time (s),X (m),Y (m)
0.001,0.0007758142491328282,0.0009692696795465077
0.20000000000000015,0.000863402945758607,6.290596843999712e-05
0.4000000000000003,0.0013235964756544854,8.433802593272952e-05
0.6000000000000004,0.002066316083678082,0.00032728687679991797
0.8000000000000006,0.0029168755699746805,0.0003620614527212041
1.0000000000000007,0.00407595860951119,0.0005207160557710041
1.2009999999999785,0.005088831109570897,0.000498183922192758
1.4009999999999565,0.006100410604567877,0.0008566844551775438
1.6009999999999345,0.007237733041892869,0.0012344287054131438
1.8009999999999124,0.008487836624794626,0.001600502317314624
2.0009999999998906,0.009853912181219185,0.002066226059981382
2.2009999999998686,0.011344937340283358,0.0025680239211976963
2.4009999999998466,0.012844938267649616,0.0031150534210765608
2.6009999999998246,0.01439239136909584,0.003662824039791331
2.8009999999998025,0.015957148008541124,0.004253825056387656
3.0009999999997805,0.017533479438465924,0.00487673721324844
3.2009999999997585,0.019107178123900354,0.005519537097942166
3.4009999999997365,0.02066204476424953,0.006171431396098027
3.6009999999997144,0.022193985827043593,0.006831753779491444
3.8009999999996924,0.02370484510647011,0.007498650820708633
4.000999999999671,0.025196650351814037,0.008171162063952932
4.200999999999738,0.02666875569798079,0.00884819734647154
4.400999999999804,0.02811913181009083,0.009529026764835136
4.600999999999871,0.029549720509412784,0.010216798395359576
4.800999999999938,0.03096422002599413,0.010910952609844747
5.000000000000004,0.03235216774067012,0.01160922997574873
5.200000000000071,0.033720341896884186,0.012317451103146118
5.400000000000138,0.03502791446966032,0.013025603194903005
5.600000000000205,0.03620412797162221,0.013736695961334049
5.800000000000272,0.037230238724810516,0.01444687414644625
6.000000000000338,0.03811465315624853,0.015152136420900932
6.200000000000405,0.03886185156844645,0.01585227828968075
6.400000000000472,0.03948847658597152,0.01654053346644813
6.600000000000539,0.040016043529314774,0.0172124274957392
6.800000000000606,0.04045857276056248,0.017866107234592407
7.000000000000672,0.04083134734415303,0.01850193854068909
7.200000000000739,0.04114156609004339,0.01911873735030577
7.400000000000806,0.04139387043810946,0.019717525853106065
7.600000000000873,0.04162126812420404,0.02030157764613931
7.8000000000009395,0.041834434087453645,0.02087132926563314
8.000000000001005,0.04202722822787906,0.021425137918329073
8.200000000000895,0.04217639300440331,0.021961626083841265
8.400000000000784,0.04228100548398617,0.022480587295444398
8.600000000000673,0.04234407661160191,0.022984328813375626
8.800000000000562,0.04238749646777734,0.02348298442671532
9.000000000000451,0.04241493132233839,0.023977375963624217
9.20000000000034,0.04242566117840149,0.02446714756924715
9.40000000000023,0.04242175275086611,0.024952116078307163
9.600000000000119,0.04241465291980964,0.025432490944679257
9.800000000000008,0.04241687718224037,0.025907448992852345
10.000999999999896,0.04242913933551223,0.02638041506687069
10.200999999999786,0.04245096230343246,0.026848422652903707
10.400999999999675,0.042482717411145295,0.02731473628977992
10.600999999999564,0.042523726533469794,0.027783188146765826
10.800999999999453,0.04257264516166141,0.028260897805912365
11.000999999999342,0.042628446078306,0.02875301758612859
11.200999999999231,0.0426910731070528,0.029261967436364406
11.40099999999912,0.04275987086596663,0.02978958812634371
11.60099999999901,0.042833510882283925,0.030334140321090934
11.800999999998899,0.04290892028434995,0.030895251501995836
12.000999999998788,0.04298156566967808,0.03147424018300215
12.200999999998677,0.043047930931937615,0.03207012192043733
12.400999999998566,0.043105923922560144,0.03267766206921511
12.600999999998455,0.043150755275721236,0.03329114251410304
12.800999999998345,0.043181918101561176,0.03391021006344579
13.000999999998234,0.04319615500306891,0.03453433381997551
13.200999999998123,0.04319117758008859,0.03516411669789005
13.400999999998012,0.04316472372194822,0.03580219045946966
13.600999999997901,0.043113590087145,0.03644962162260607
13.80099999999779,0.043034685717710235,0.037107426156557974
14.00099999999768,0.04291815842281301,0.03778344354307804
14.200999999997569,0.04271568026075408,0.03900522920652964
14.400999999997458,0.04219677265287747,0.040617099775557795
14.600999999997347,0.041960424691380165,0.042082547108662154
14.800999999997236,0.0413717086264628,0.04347765250071045
15.000999999997125,0.04102185858855096,0.0445523472434083
15.200999999997014,0.04034039172540518,0.04611219625867901
15.400999999996904,0.03968580871797506,0.04776410044548972
15.600999999996793,0.03888396929954596,0.04950758951217574
15.800999999996682,0.038023165644424706,0.0511832059248388
16.000999999996573,0.037501247974030066,0.05227443455632154
16.200999999996817,0.03699186686847108,0.05378926394120208
16.40099999999706,0.03658647649983417,0.05519148315225653
16.600999999997306,0.03615050515479071,0.05665491953949614
16.80099999999755,0.03579116300246088,0.05823729212830076
17.000999999997795,0.035144726386966495,0.059735459614584846
17.20099999999804,0.03458455668020919,0.06134649704494301
17.400999999998284,0.03393604456001091,0.06325392115047204
17.60099999999853,0.03323320263597577,0.0649506812122788
17.800999999998773,0.032463049564204545,0.06679084341445254
18.000999999999017,0.0316844360497836,0.06873783123271378
18.20099999999926,0.03090191667766346,0.07073666484794262
18.400999999999506,0.030105267283019998,0.07271816168663892
18.60099999999975,0.029295117149686904,0.07467760846020545
18.799999999999994,0.028484324637063654,0.07659355687122658
19.000000000000238,0.02766873672146636,0.07848112633379213
19.200000000000482,0.026850918959401025,0.08033288888571961
19.400000000000727,0.026030854665867884,0.08215103526115465
19.60000000000097,0.025209483301592363,0.08393614193440214
19.800000000001216,0.024386529600728676,0.0856885085055085
20.00000000000146,0.02356197482948472,0.08740823108403886
