Time (s),X (m),Y (m)
0.001,0.0009387665610552813,-0.0008932837685830058
0.20000000000000015,0.0008740106020481662,-0.00017387271151562267
0.4000000000000003,0.0013768281419610888,-0.0004047312808377979
0.6000000000000004,0.0022244924132153988,-0.0007459183175869796
0.8000000000000006,0.00396504236657566,-0.0010490665265878898
1.0000000000000007,0.006402666605059683,-0.0019398305346430367
1.2009999999999785,0.008276650039551272,-0.0005815373857785714
1.4009999999999565,0.009025142402404396,-0.00010346437209172824
1.6009999999999345,0.011430842970928789,-0.0007232602463229761
1.8009999999999124,0.014018591951201328,-0.0004191670786756988
2.0009999999998906,0.017746576164681803,-0.0015116011718106608
2.2009999999998686,0.019803301659591193,-0.0007615109924571509
2.4009999999998466,0.021628282627066703,0.0003078008426418614
2.6009999999998246,0.024139188452800723,0.001487522870156125
2.8009999999998025,0.02531081716691201,0.0032208290023288
3.0009999999997805,0.025983540799928113,0.005485027156910311
3.2009999999997585,0.02610571749831732,0.008479861399972257
3.4009999999997365,0.026923407599006254,0.0106809568723843
3.6009999999997144,0.029746803293455543,0.012452317005062335
3.8009999999996924,0.03164610482368696,0.015439353313197773
4.000999999999671,0.03383208993284997,0.01825908020702529
4.200999999999738,0.03583178138709944,0.02139050301301178
4.400999999999804,0.037767819480832236,0.024771640660372976
4.600999999999871,0.040360606225065224,0.028127433515425605
4.800999999999938,0.043517387590502436,0.031394190841894126
5.000000000000004,0.04729954326853364,0.0348550015262155
5.200000000000071,0.05067238560145103,0.038632588182345835
5.400000000000138,0.05386681457605052,0.04231253778814469
5.600000000000205,0.05647375547575063,0.0463161583586457
5.800000000000272,0.059132706562305085,0.05112485590067915
6.000000000000338,0.06043549970896837,0.05626786263690127
6.200000000000405,0.06273958644625302,0.06254649281034219
6.400000000000472,0.06362670622097526,0.06877759254542165
6.600000000000539,0.06526012986711856,0.07466113775993069
6.800000000000606,0.06657126589833674,0.08035832526779567
7.000000000000672,0.06740762642848885,0.08681240228101657
7.200000000000739,0.06820450316962004,0.09317163826295351
7.400000000000806,0.06872756778127682,0.09949247614639602
7.600000000000873,0.06907200052961726,0.10656102078656518
7.8000000000009395,0.06923117846470328,0.11342528892421323
8.000000000001005,0.06897661251608314,0.12001453576136811
8.200000000000895,0.06800072150057536,0.12666415106436854
8.400000000000784,0.06662177798878392,0.13233869989364455
8.600000000000673,0.06484051910491816,0.13761889154137957
8.800000000000562,0.06265324223318587,0.14329895745559806
9.000000000000451,0.06085694955752145,0.14695973187508957
9.20000000000034,0.05781844662958448,0.15040763342453445
9.40000000000023,0.0541776567550365,0.15428670596683897
9.600000000000119,0.050088831831687566,0.15760027329320664
9.800000000000008,0.04515507994839036,0.1615607788017947
10.000999999999896,0.04095075862069037,0.1635279593807291
10.200999999999786,0.03564907408458202,0.16622367700327367
10.400999999999675,0.029122832839620028,0.1688670744818879
10.600999999999564,0.023404088851368132,0.1700691838772124
10.800999999999453,0.018398866275957517,0.17113744646390672
11.000999999999342,0.012946501457056073,0.17200429035221898
11.200999999999231,0.0077712427263405106,0.17281295977542885
11.40099999999912,0.00038540916104718787,0.17289740112189442
11.60099999999901,-0.007019120846459665,0.17324803447979426
11.800999999998899,-0.0140896718956409,0.17321400072230053
12.000999999998788,-0.020579566652028897,0.17364681342896884
12.200999999998677,-0.025610893870580798,0.17313357584676414
12.400999999998566,-0.031033832392800418,0.17214200579498823
12.600999999998455,-0.036178158363555375,0.17096553841255085
12.800999999998345,-0.04140189058801623,0.16988103585558903
13.000999999998234,-0.04627529469063041,0.1689690164344237
13.200999999998123,-0.050229086465523834,0.16705342264182393
13.400999999998012,-0.05395454535264842,0.16504663300084924
13.600999999997901,-0.057815074880724474,0.16333338703823433
13.80099999999779,-0.060672424716948,0.16087533379139365
14.00099999999768,-0.06558167864347818,0.15720359941568357
14.200999999997569,-0.06995077513192799,0.15400676490196766
14.400999999997458,-0.07423019127422327,0.14979636087687787
14.600999999997347,-0.07722116781687828,0.14530665262217285
14.800999999997236,-0.07937339415865902,0.14017864625334284
15.000999999997125,-0.08139879132771521,0.13524449894525298
15.200999999997014,-0.0850562423402272,0.13138308412138594
15.400999999996904,-0.0889932184500186,0.126452485982323
15.600999999996793,-0.09149032671851304,0.12031980251141196
15.800999999996682,-0.09289254653380294,0.11463408792722872
16.000999999996573,-0.09442977701995231,0.10752464874367466
16.200999999996817,-0.09612218786358372,0.10098361857838936
16.40099999999706,-0.09622563606084628,0.09452460510239621
16.600999999997306,-0.0979033727440722,0.08712773900030275
16.80099999999755,-0.09863722317781219,0.08079042294931274
17.000999999997795,-0.09841834429915211,0.07351878951136614
17.20099999999804,-0.09826792249187832,0.06716001536578309
17.400999999998284,-0.09761956604474478,0.061104276111872496
17.60099999999853,-0.0970520938979546,0.05612998031395536
17.800999999998773,-0.09666995198472089,0.04994401753987496
18.000999999999017,-0.09549654054340805,0.04446002619851385
18.20099999999926,-0.09416396169457919,0.038529926943772046
18.400999999999506,-0.0919676645294573,0.034847210479063015
18.60099999999975,-0.09062149702986025,0.031908120770308926
18.799999999999994,-0.08802681939306482,0.02750954639250159
19.000000000000238,-0.08527371742467553,0.023951943720739832
19.200000000000482,-0.08200510457897642,0.019745286670352327
19.400000000000727,-0.0780938786290178,0.01574322442652162
19.60000000000097,-0.07395362331990675,0.011703486584081489
19.800000000001216,-0.06964335497792234,0.006911341477799957
20.00000000000146,-0.0650394181399773,0.0027040506511998605
