Time (s),X (m),Y (m)
0.001,-0.00023999057263828476,0.0007901558823345071
0.20000000000000015,0.0017912093631574778,-0.0013270360474702996
0.4000000000000003,0.004608882254351563,-0.0031257023893106303
0.6000000000000004,0.006237107635025267,-0.007389308594775115
0.8000000000000006,0.0048976180195903956,-0.011454709165575417
1.0000000000000007,0.015361748008008332,-0.02043480025774342
1.2009999999999785,0.025087081846523467,-0.026383428758757894
1.4009999999999565,0.041491543492762746,-0.022053726864016562
1.6009999999999345,0.05989426314982561,-0.025153369430013773
1.8009999999999124,0.08914283648686266,-0.0289562156377905
2.0009999999998906,0.11183434515612764,-0.0255798473398481
2.2009999999998686,0.12074356887107757,-0.01428200651598636
2.4009999999998466,0.13781384112323794,-0.006760298277740875
2.6009999999998246,0.15353296244603667,-0.0029486538862627857
2.8009999999998025,0.17341716414042346,-0.0022239841807751323
3.0009999999997805,0.19692347583013772,-0.0006721285674077715
3.2009999999997585,0.23070637874016858,-0.001921160353347583
3.4009999999997365,0.2615774054875988,-0.004284628821080769
3.6009999999997144,0.2914702507375263,-0.006605616283070571
3.8009999999996924,0.33719709698940714,-0.02158772924297577
4.000999999999671,0.375937711438286,-0.02908510539936472
4.200999999999738,0.3955486328663948,-0.029578973735677888
4.400999999999804,0.4105052574019379,-0.027062366795282993
4.600999999999871,0.4345505327050129,-0.02246543745727833
4.800999999999938,0.45521912427094646,-0.01821660928244614
5.000000000000004,0.47832784858014915,-0.014908326313076316
5.200000000000071,0.5177307952178711,-0.013963384128319298
5.400000000000138,0.5615337304636427,-0.013539161565953344
5.600000000000205,0.6028488746533099,-0.013136661134739155
5.800000000000272,0.6237737056875408,-0.006544118740542139
6.000000000000338,0.6442515677081228,0.005851762251030335
6.200000000000405,0.6526792160336466,0.021722395256637876
6.400000000000472,0.665359138969792,0.04035894250975986
6.600000000000539,0.6943960179370126,0.04784773126728404
6.800000000000606,0.7169438401162808,0.059673724960732054
7.000000000000672,0.7269206408562379,0.07157146938663432
7.200000000000739,0.7337378310942729,0.08314853906141388
7.400000000000806,0.7524464683590592,0.09720219607178306
7.600000000000873,0.7724053926183644,0.11064093196617113
7.8000000000009395,0.8008740222259784,0.1237033191810747
8.000000000001005,0.8179878855245837,0.13657131261607336
8.200000000000895,0.8473623653571151,0.1511101415339082
8.400000000000784,0.8788971473185063,0.1652458725742851
8.600000000000673,0.9133871050045556,0.17464385795076698
8.800000000000562,0.943262475751713,0.18307098521085738
9.000000000000451,0.9886999438746427,0.18904828693063533
9.20000000000034,1.0361842640624965,0.19169158506293005
9.40000000000023,1.083389652102522,0.18987838150164565
9.600000000000119,1.1202912760506598,0.19012801925919542
9.800000000000008,1.1530272197580507,0.19239685476824944
10.000999999999896,1.182438782629261,0.19349429821267872
10.200999999999786,1.2088663490727758,0.19496521117452714
10.400999999999675,1.2389558906803428,0.1973351216809012
10.600999999999564,1.2659999739330652,0.20131354520107633
10.800999999999453,1.2899415863224823,0.2100395228414972
11.000999999999342,1.3144398287961894,0.2191714604829149
11.200999999999231,1.3476989090436613,0.22430476802243693
11.40099999999912,1.377486008314095,0.23299988023342671
11.60099999999901,1.4045845855789945,0.24200908721841208
11.800999999998899,1.4336780968294962,0.25352513468702703
12.000999999998788,1.4665169895303591,0.2638099818700945
12.200999999998677,1.5082368964076163,0.27153259000635505
12.400999999998566,1.5441011936632822,0.2783314650855717
12.600999999998455,1.5797885078820677,0.2860326258537666
12.800999999998345,1.6256588017528615,0.29426092168621754
13.000999999998234,1.6641483242274961,0.3005585690649852
13.200999999998123,1.6955835850175676,0.30891197397080444
13.400999999998012,1.7127647667353134,0.32055011941531936
13.600999999997901,1.7348784165249127,0.3357786790168556
13.80099999999779,1.7677608803033498,0.34502364906057426
14.00099999999768,1.807451450205777,0.348790475396492
14.200999999997569,1.8478811225215708,0.35221030479285786
14.400999999997458,1.8953647173628583,0.3529375514905602
14.600999999997347,1.9508127843313725,0.3480211241355638
14.800999999997236,1.9943471411341227,0.34883489770049725
15.000999999997125,2.033360574505654,0.35116936600372234
15.200999999997014,2.0783090333166214,0.350609357977225
15.400999999996904,2.126032083905913,0.3422546089557025
15.600999999996793,2.180784728629192,0.337982680001845
15.800999999996682,2.2411666672745865,0.3328732004514032
16.000999999996573,2.293619725716135,0.3317274107442428
16.200999999996817,2.3537466479845404,0.32100294408926305
16.40099999999706,2.414078421442558,0.3094666955394239
16.600999999997306,2.45927449547791,0.30320852549724575
16.80099999999755,2.512646018037454,0.2961303964747832
17.000999999997795,2.5556338925337454,0.2962627839006943
17.20099999999804,2.608677172184411,0.2925018841684246
17.400999999998284,2.672776100867349,0.2806842588336728
17.60099999999853,2.7364587399983047,0.26985024085871584
17.800999999998773,2.788126675511636,0.2659509180353626
18.000999999999017,2.8325063683750145,0.2671248216045075
18.20099999999926,2.878199540293327,0.2723057548441159
18.400999999999506,2.9289206831406336,0.27303685908712033
18.60099999999975,2.981912708744455,0.2688777850813671
18.799999999999994,3.0141615886172977,0.27078797139930194
19.000000000000238,3.0476395837511627,0.27392302347516556
19.200000000000482,3.089868021260619,0.28144428399501736
19.400000000000727,3.131515064609093,0.28639431382250424
19.60000000000097,3.181544233232383,0.2844820550487847
19.800000000001216,3.2265837616885586,0.2819838725231172
20.00000000000146,3.25601328291532,0.2880923989541288
