Time (s),X (m),Y (m)
0.001,0.0006899943756669482,0.0009963285817120476
0.20000000000000015,0.0008376226050987037,-5.166037983450621e-05
0.4000000000000003,0.0014217975417415913,0.00011946515749997893
0.6000000000000004,0.0024912431974139586,0.00037554759865265664
0.8000000000000006,0.003848136298285632,0.0006270558194774612
1.0000000000000007,0.005163362835580958,0.0021186446722924125
1.2009999999999785,0.008779416764310932,0.004898598814279792
1.4009999999999565,0.012465853572354328,0.005051190895214886
1.6009999999999345,0.0142576764662227,0.0038738881351389628
1.8009999999999124,0.01766302450936229,0.005338674008932772
2.0009999999998906,0.02108172107957215,0.006328159397863434
2.2009999999998686,0.0235190518097091,0.008016869184203627
2.4009999999998466,0.026291854079061396,0.009061293721500274
2.6009999999998246,0.029266310278085718,0.009557118071434683
2.8009999999998025,0.032120760121559566,0.009593145846979255
3.0009999999997805,0.034231338015100976,0.010556137460711816
3.2009999999997585,0.038109470854674865,0.011875135571268689
3.4009999999997365,0.040512978355065406,0.00933806035018108
3.6009999999997144,0.04504910758219629,0.011046535889983895
3.8009999999996924,0.047050860256291314,0.010943522395658857
4.000999999999671,0.05008184738526305,0.014706863561887997
4.200999999999738,0.052662248678972075,0.015040896111683869
4.400999999999804,0.055458022409220924,0.01845160556515326
4.600999999999871,0.05964053256199395,0.020324981917495544
4.800999999999938,0.06425201678619133,0.02178253781561103
5.000000000000004,0.0669569159491411,0.023367568956863587
5.200000000000071,0.07278450431498448,0.024799268184249948
5.400000000000138,0.0740657139938371,0.02889834538319487
5.600000000000205,0.07915511873724485,0.03205993179717947
5.800000000000272,0.08402148969306769,0.034306030675990244
6.000000000000338,0.07978843235531306,0.04116562554547306
6.200000000000405,0.08246997141042886,0.045221990461951786
6.400000000000472,0.08316732040137212,0.0510135212935308
6.600000000000539,0.08236581704599132,0.056284624003792444
6.800000000000606,0.08357332251196398,0.06056188671973896
7.000000000000672,0.08390554068095792,0.0661433712544194
7.200000000000739,0.08906110265794727,0.06998096061933987
7.400000000000806,0.08587526322058582,0.07645356757622296
7.600000000000873,0.08864767292776797,0.08006221322726036
7.8000000000009395,0.08730010698086153,0.08522836618811147
8.000000000001005,0.08693374087782556,0.09148503459432794
8.200000000000895,0.08764810249016984,0.09720211872514609
8.400000000000784,0.08841015887911258,0.10156110990813376
8.600000000000673,0.08317109286222052,0.1084316666815146
8.800000000000562,0.08345779383179146,0.11452078621961477
9.000000000000451,0.0824944029278741,0.1203338790205581
9.20000000000034,0.08038303175610376,0.12672226129223135
9.40000000000023,0.0796833298146147,0.13109458352786202
9.600000000000119,0.07831993104619646,0.13803575494477682
9.800000000000008,0.07597968235338659,0.14338413196998467
10.000999999999896,0.07442579539109415,0.14978062245526633
10.200999999999786,0.07245288636506916,0.15594286850187583
10.400999999999675,0.07096578200265634,0.16087623875791027
10.600999999999564,0.06852014174026785,0.16753875526583592
10.800999999999453,0.06342260186691015,0.17339177476058143
11.000999999999342,0.06322624426210596,0.17938376902054845
11.200999999999231,0.060869077443376426,0.18738050724129668
11.40099999999912,0.058531361682022345,0.19290494975888958
11.60099999999901,0.056807095036301374,0.1997437877607622
11.800999999998899,0.054745938191224815,0.20595518485227243
12.000999999998788,0.050078743713247324,0.211484470621274
12.200999999998677,0.04733066166445704,0.21862138832579606
12.400999999998566,0.04468884596559885,0.22239539186340304
12.600999999998455,0.04248582579428085,0.2266128884675343
12.800999999998345,0.03777680919100992,0.2316192706855848
13.000999999998234,0.03296744329353043,0.2360343103000891
13.200999999998123,0.028222483776911757,0.24169689057808125
13.400999999998012,0.023627545852577016,0.24309963330739576
13.600999999997901,0.01968873582368795,0.24724086692695066
13.80099999999779,0.01197419766659522,0.24759801237696513
14.00099999999768,0.006032819017637419,0.24767512651932325
14.200999999997569,0.001244497154656389,0.24943697681198107
14.400999999997458,-0.003292238780015037,0.25087700105613053
14.600999999997347,-0.009776225889727753,0.24967177929089485
14.800999999997236,-0.015558787422873904,0.24902416238083738
15.000999999997125,-0.020715712771409482,0.2525122863072835
15.200999999997014,-0.025238815879501386,0.25357943942032796
15.400999999996904,-0.03174616173479584,0.2522653196711365
15.600999999996793,-0.037001408575640125,0.25304441590238624
15.800999999996682,-0.04142135542830899,0.2523963016719056
16.000999999996573,-0.046469174849293936,0.2522318478762759
16.200999999996817,-0.05225225080803647,0.2511774875688399
16.40099999999706,-0.058663690873231485,0.24699422517651076
16.600999999997306,-0.06557279021151004,0.24513422756265532
16.80099999999755,-0.07046605612356219,0.2427796889235778
17.000999999997795,-0.07726026034754682,0.23983428310000693
17.20099999999804,-0.08446524392026544,0.2369014102034082
17.400999999998284,-0.08904053397304777,0.23398077258623076
17.60099999999853,-0.09538012911686507,0.23277628082084936
17.800999999998773,-0.10227597614868937,0.22838471276465752
18.000999999999017,-0.108739843097331,0.22520698998339508
18.20099999999926,-0.11411354342236898,0.22256368736683182
18.400999999999506,-0.11926784318868922,0.21940502377017213
18.60099999999975,-0.12546705549237658,0.21838775422934859
18.799999999999994,-0.13158236498410997,0.2158802028190324
19.000000000000238,-0.13539985339143443,0.21113294469315452
19.200000000000482,-0.1397774603044765,0.2068050365649543
19.400000000000727,-0.14248143158912732,0.20115643517823167
19.60000000000097,-0.14509843581330753,0.19716240354439654
19.800000000001216,-0.14949224913180154,0.1947578177392634
20.00000000000146,-0.1536432382480594,0.18747492132443264
