Time (s),X (m),Y (m)
0.001,0.0007758142491328282,-0.0009692696795465074
0.20000000000000015,0.0009073334386762672,0.0005232934870827353
0.4000000000000003,0.00569696515867262,0.0007470146417491321
0.6000000000000004,0.013028382083279668,0.0005145216568092451
0.8000000000000006,0.020182909838623597,0.003790536817643388
1.0000000000000007,0.02839995636193812,0.0041825038748123915
1.2009999999999785,0.039261741084406374,-0.013947983486798677
1.4009999999999565,0.05574351583067441,-0.028887482229081576
1.6009999999999345,0.0719932674551594,-0.04189683864317876
1.8009999999999124,0.08889115040817558,-0.031179765856081624
2.0009999999998906,0.11094561581832378,-0.028188347219266663
2.2009999999998686,0.1348649004859372,-0.042123126771832935
2.4009999999998466,0.15748711743026828,-0.04937023270455834
2.6009999999998246,0.181662015975514,-0.041050188347835956
2.8009999999998025,0.20737806385600333,-0.041476063210187916
3.0009999999997805,0.228544521645541,-0.04878117641237125
3.2009999999997585,0.24725829394625046,-0.05435413521865137
3.4009999999997365,0.2697426372312208,-0.0627157931078864
3.6009999999997144,0.2912099010655264,-0.06851873335906855
3.8009999999996924,0.3112133538930322,-0.09015291891126466
4.000999999999671,0.3295854623047699,-0.11816534693696179
4.200999999999738,0.34482267862990895,-0.13530793862084145
4.400999999999804,0.36069101929282543,-0.14827068212782388
4.600999999999871,0.3787420368706916,-0.15476808774869621
4.800999999999938,0.39964022620728046,-0.16740502048321665
5.000000000000004,0.4249552437603337,-0.17385099583980274
5.200000000000071,0.45528654556328224,-0.19225838018678404
5.400000000000138,0.4848532682576458,-0.22374500430695882
5.600000000000205,0.5124446131003896,-0.2416349153517931
5.800000000000272,0.5412949346966067,-0.2572233983184039
6.000000000000338,0.5720344909200312,-0.2716791083694506
6.200000000000405,0.607472323557688,-0.29117099641800576
6.400000000000472,0.6448761035850399,-0.3003225727113673
6.600000000000539,0.6800630757381738,-0.30771645139608717
6.800000000000606,0.7160275350999195,-0.3055105744685274
7.000000000000672,0.7555669851166865,-0.3003630637978752
7.200000000000739,0.7951231966619109,-0.2944820738228341
7.400000000000806,0.8306649708149118,-0.30089594908407186
7.600000000000873,0.8630806183575135,-0.3089091516086167
7.8000000000009395,0.8898380859346532,-0.32721398497069515
8.000000000001005,0.9092198311153099,-0.35318878150116617
8.200000000000895,0.9289775139843,-0.38201941324693645
8.400000000000784,0.9491619354299745,-0.41019342123632885
8.600000000000673,0.9665503603073426,-0.43692837802859763
8.800000000000562,0.9873233007865634,-0.4664379270186765
9.000000000000451,1.0142036312637277,-0.4870368382049576
9.20000000000034,1.043019693679457,-0.4949639339031692
9.40000000000023,1.0695401151995079,-0.5017961393083791
9.600000000000119,1.096718834112752,-0.5085695662705595
9.800000000000008,1.1281723918093869,-0.5071673051978688
10.000999999999896,1.1557636170492378,-0.5150909477463197
10.200999999999786,1.1722432046739475,-0.5396641279295918
10.400999999999675,1.1872047787098556,-0.553658504362082
10.600999999999564,1.2072032856960162,-0.5386562219735069
10.800999999999453,1.2306337447907176,-0.5280023163688639
11.000999999999342,1.2595605030385086,-0.5267134229116622
11.200999999999231,1.2897596703658976,-0.5303604542467998
11.40099999999912,1.322788896384503,-0.5413034295206443
11.60099999999901,1.3556611963536467,-0.5541498699878894
11.800999999998899,1.3904247137067212,-0.5644185885697213
12.000999999998788,1.4266470348338183,-0.5799038421396883
12.200999999998677,1.4585653607674856,-0.6029788561905506
12.400999999998566,1.4886483285752343,-0.61118239704995
12.600999999998455,1.5231403373488408,-0.6331106762587358
12.800999999998345,1.555299453411636,-0.6670700021353044
13.000999999998234,1.586996310354605,-0.6911044689120547
13.200999999998123,1.6135241255937685,-0.7051168355039533
13.400999999998012,1.6324662818715963,-0.7391254694356776
13.600999999997901,1.6474873558239647,-0.7694950202622336
13.80099999999779,1.6640909711207974,-0.800111246832951
14.00099999999768,1.6809056746105344,-0.8366667615732654
14.200999999997569,1.6884061599244227,-0.8750483952433576
14.400999999997458,1.6791503353633077,-0.9196188606279923
14.600999999997347,1.675729832791581,-0.9632712448838944
14.800999999997236,1.6738364405507493,-1.0069055833344345
15.000999999997125,1.6757263017002333,-1.0496342767294042
15.200999999997014,1.6880364798392813,-1.0849186136359672
15.400999999996904,1.7087437666248153,-1.1117363037528727
15.600999999996793,1.7297459508053497,-1.1413888412043998
15.800999999996682,1.7481138530653577,-1.1772948765321487
16.000999999996573,1.768239976516735,-1.2142250314213048
16.200999999996817,1.786866828318537,-1.2428265686353737
16.40099999999706,1.8009605388133558,-1.277378038059675
16.600999999997306,1.8115545095777097,-1.3191715456529305
16.80099999999755,1.8200938251337084,-1.358448635937017
17.000999999997795,1.8343143400214703,-1.3844001298669926
17.20099999999804,1.8547369716878368,-1.4117991722579997
17.400999999998284,1.869981596291481,-1.4471347657792375
17.60099999999853,1.8861198475916736,-1.4772050088638269
17.800999999998773,1.903147234680092,-1.5047608123693732
18.000999999999017,1.9268077838819133,-1.525776854744722
18.20099999999926,1.9536316046494322,-1.553477334041593
18.400999999999506,1.982667333289487,-1.5625266691297328
18.60099999999975,2.006115241611681,-1.5795856579230427
18.799999999999994,2.026832508843518,-1.6110382025234011
19.000000000000238,2.0529131127898923,-1.6386568888442499
19.200000000000482,2.0816333841209476,-1.6637446408036576
19.400000000000727,2.1120305818928715,-1.6953268197618012
19.60000000000097,2.1458266465911446,-1.7138474402558617
19.800000000001216,2.1872207266070434,-1.7345656105683516
20.00000000000146,2.229426630057983,-1.7505490930321441
