Time (s),X (m),Y (m)
0.001,-0.00060452123697562,8.989899140956135e-05
0.20000000000000015,0.0010013385714531605,-0.00010828263921158106
0.4000000000000003,0.0012596017557771773,-9.127859699247147e-05
0.6000000000000004,0.0018323838820199715,-9.65353704497386e-05
0.8000000000000006,0.0025561570038415055,-0.00017757555921970634
1.0000000000000007,0.0032227032916019556,-0.0002660000556803365
1.2009999999999785,0.004034300665272528,-0.00033377550127712714
1.4009999999999565,0.004651182195006943,-0.00033939642760438403
1.6009999999999345,0.005271682308123786,-0.0003349449141960298
1.8009999999999124,0.0060033968794347995,-0.00035308727068826865
2.0009999999998906,0.006787770017848506,-0.0003888156464180015
2.2009999999998686,0.007607027074274497,-0.0004354803508474275
2.4009999999998466,0.008446835981452789,-0.000482474520350082
2.6009999999998246,0.009291722108575174,-0.0005263558671001711
2.8009999999998025,0.010144316486657366,-0.0005681977692617613
3.0009999999997805,0.011015006776402226,-0.0006117272932725073
3.2009999999997585,0.011909530128212803,-0.0006597881765492625
3.4009999999997365,0.012828962326429282,-0.0007168804669544952
3.6009999999997144,0.013771248389830735,-0.0007832068687460412
3.8009999999996924,0.014733953614222488,-0.000854889864567216
4.000999999999671,0.01571803592763014,-0.000924304677163565
4.200999999999738,0.016723780826891865,-0.0009918224529874686
4.400999999999804,0.017752127519180278,-0.0010574180579689396
4.600999999999871,0.018802905955119218,-0.001121346076073694
4.800999999999938,0.01987580726692066,-0.0011838476500756387
5.000000000000004,0.020953444959384854,-0.0012427093439223704
5.200000000000071,0.02206831739762714,-0.0013023101099941107
5.400000000000138,0.023203444215639708,-0.0013605905571090553
5.600000000000205,0.02435843191696106,-0.0014175588118986076
5.800000000000272,0.025533464859468617,-0.0014731776231628859
6.000000000000338,0.02672895051807102,-0.0015275023690761393
6.200000000000405,0.02794489123991117,-0.00158063524253389
6.400000000000472,0.029181299382054427,-0.0016324426397439748
6.600000000000539,0.03043848815078165,-0.0016827829729255956
6.800000000000606,0.03171678428210148,-0.0017317637616834937
7.000000000000672,0.03301635885074179,-0.0017792145096538208
7.200000000000739,0.03433753759053632,-0.001824999550760357
7.400000000000806,0.035680536069294055,-0.0018690102021514195
7.600000000000873,0.03704551784393637,-0.0019111090196756234
7.8000000000009395,0.038432962395597584,-0.0019512769348972122
8.000000000001005,0.03984313792729685,-0.001989515876346092
8.200000000000895,0.041276240953617704,-0.002025644099143783
8.400000000000784,0.04273252342315977,-0.0020594332371841446
8.600000000000673,0.04421234445766067,-0.002090760426821747
8.800000000000562,0.0457161627855685,-0.002119454000087859
9.000000000000451,0.04724428324022189,-0.0021453423587288463
9.20000000000034,0.04879708136615596,-0.002168506745620609
9.40000000000023,0.05037502632222873,-0.00218883055998778
9.600000000000119,0.051978694001045614,-0.0022060260800172123
9.800000000000008,0.05360842129294712,-0.0022198731101204217
10.000999999999896,0.05528574577406169,-0.0022308807866983126
10.200999999999786,0.05696884099260435,-0.002237251993848448
10.400999999999675,0.0586791366518396,-0.002239548688117384
10.600999999999564,0.06054055872470193,-0.002234879776671206
10.800999999999453,0.06233759930678315,-0.002233308646120555
11.000999999999342,0.06437766879230111,-0.0022029489088107577
11.200999999999231,0.06639447644230673,-0.002177708018648406
11.40099999999912,0.06850462317574653,-0.0021384187851947647
11.60099999999901,0.07068310220904286,-0.0020975712892238284
11.800999999998899,0.07300875775811827,-0.0020465582412246847
12.000999999998788,0.07537114168435283,-0.001983185951192557
12.200999999998677,0.07778596023645817,-0.0019073888318759502
12.400999999998566,0.08021314735095032,-0.0018158838616117428
12.600999999998455,0.0826940912123705,-0.001699344355160832
12.800999999998345,0.08522095228004212,-0.0015775977556520592
13.000999999998234,0.08778093587341239,-0.0014500691913856862
13.200999999998123,0.09036786931524526,-0.0012929421702664943
13.400999999998012,0.09300970492822368,-0.0011076371918610718
13.600999999997901,0.09568610530302418,-0.0008922146508146739
13.80099999999779,0.09838493804029409,-0.0006419915895234657
14.00099999999768,0.1011108730462535,-0.0003429528948844841
14.200999999997569,0.10389200504509541,-6.275852284439625e-06
14.400999999997458,0.10673589627110466,0.0003616124911806202
14.600999999997347,0.10962351852155183,0.0007622329714511621
14.800999999997236,0.11252671306887507,0.0012237220243043404
15.000999999997125,0.11548533161804021,0.0017335158542062016
15.200999999997014,0.11846539521259161,0.002268508764806377
15.400999999996904,0.12150463315008322,0.0028798515729660063
15.600999999996793,0.12461104680744811,0.0035386903971293773
15.800999999996682,0.12778061080891584,0.004229751050860214
16.000999999996573,0.13111804840493607,0.0049879948427899185
16.200999999996817,0.13453015535235222,0.005830603081685784
16.40099999999706,0.13791934592823446,0.006718666597452401
16.600999999997306,0.1414388953769945,0.007681942202759757
16.80099999999755,0.14484270225601348,0.008695287049060219
17.000999999997795,0.14833976260916834,0.009774991924946118
17.20099999999804,0.15182566007320444,0.010930237728829952
17.400999999998284,0.1552972959672662,0.012134886340530601
17.60099999999853,0.15884842196446763,0.013425018848402004
17.800999999998773,0.16242541989879442,0.014785816447138864
18.000999999999017,0.16597393953688588,0.016214991603437243
18.20099999999926,0.16953597566195372,0.017787582283894918
18.400999999999506,0.1734663825316032,0.019651545618131365
18.60099999999975,0.17762692488503595,0.021905035061699548
18.799999999999994,0.182100923197213,0.024770191053692284
19.000000000000238,0.18665272608345396,0.028763970127990098
19.200000000000482,0.19273276587550592,0.034601300197519114
19.400000000000727,0.19867024597668823,0.04063115307800006
19.60000000000097,0.20504408146747297,0.04699368647102185
19.800000000001216,0.21161992343559866,0.05359212121700476
20.00000000000146,0.21793994483971285,0.06040409536139942
