Time (s),X (m),Y (m)
0.001,0.00042302893680115855,-0.0010314752485082442
0.20000000000000015,0.0008255878066870358,-0.0002467107859544236
0.4000000000000003,0.0012290551206648116,-0.0001616507204023499
0.6000000000000004,0.0018006553213077545,-0.00021758128991028247
0.8000000000000006,0.0026730379650691783,-0.00019649138744758175
1.0000000000000007,0.0036985678401242556,-4.031859845534645e-05
1.2009999999999785,0.004728886285619796,9.45541012977889e-05
1.4009999999999565,0.00568133863124546,0.00012196539925064176
1.6009999999999345,0.006583436759716904,0.0001652862628911316
1.8009999999999124,0.00749864958904734,0.00018237243135004684
2.0009999999998906,0.008486773300892694,0.00016645543845666966
2.2009999999998686,0.009565557560814817,0.00012438661021561516
2.4009999999998466,0.01066854524645817,7.627798392501544e-05
2.6009999999998246,0.011780979970776002,3.076194984567565e-05
2.8009999999998025,0.012905449964939848,-2.541361114617577e-05
3.0009999999997805,0.014031550659842516,-9.39338373527649e-05
3.2009999999997585,0.015154142825411486,-0.00016998420828344011
3.4009999999997365,0.016287366832265553,-0.0002571076207336473
3.6009999999997144,0.017443944552570735,-0.0003523486075050148
3.8009999999996924,0.018626742318082694,-0.00045032330271636763
4.000999999999671,0.0198341010430346,-0.0005511556482919624
4.200999999999738,0.02106248561042734,-0.0006560074323486864
4.400999999999804,0.0223126263172414,-0.0007660587816051083
4.600999999999871,0.02358021684846667,-0.0008846081844179262
4.800999999999938,0.024837557194125386,-0.0010152488511625689
5.000000000000004,0.026070507977686556,-0.0011707018031689503
5.200000000000071,0.027282145325119293,-0.0013261455063840993
5.400000000000138,0.028472147838859686,-0.0014957303957704679
5.600000000000205,0.029638299377405333,-0.0016791561112275463
5.800000000000272,0.030775633862402653,-0.0018735386621946924
6.000000000000338,0.03188112365336226,-0.0020783647014619632
6.200000000000405,0.03295245249119507,-0.0022936464486323273
6.400000000000472,0.03398894434273398,-0.002518608680899084
6.600000000000539,0.03498990954906892,-0.0027518023028115916
6.800000000000606,0.03595540992384807,-0.002992759243635334
7.000000000000672,0.03688634685769651,-0.003241176433377847
7.200000000000739,0.037787603249452066,-0.003500524892910825
7.400000000000806,0.038666456239990876,-0.0037710035569660802
7.600000000000873,0.03951808110843346,-0.0040496828268888115
7.8000000000009395,0.04034282910489911,-0.004333381409653219
8.000000000001005,0.041208509965169365,-0.004919611518152933
8.200000000000895,0.042216333788842396,-0.0055649106716602744
8.400000000000784,0.04318886889563721,-0.006267196832318004
8.600000000000673,0.04416683702828388,-0.006805297195349525
8.800000000000562,0.04623425539103104,-0.007326755079203348
9.000000000000451,0.04828585491813231,-0.007173785105107088
9.20000000000034,0.050102606034666985,-0.007281922403256776
9.40000000000023,0.05104370846048595,-0.00800355954522149
9.600000000000119,0.05197385563844944,-0.008691523620082896
9.800000000000008,0.0528987615895823,-0.009244300965943955
10.000999999999896,0.05498142875308792,-0.009072049262857276
10.200999999999786,0.05672533545452466,-0.008599139717795728
10.400999999999675,0.05841634964413494,-0.008629810021257968
10.600999999999564,0.06020208872595181,-0.008009010725303398
10.800999999999453,0.061733092532090895,-0.0075523632325059575
11.000999999999342,0.06269285489502374,-0.00791769254735983
11.200999999999231,0.06362229545116711,-0.008145932329783525
11.40099999999912,0.06454790121149329,-0.008265163429753359
11.60099999999901,0.06543921095753723,-0.007349938418922733
11.800999999998899,0.06605213939493117,-0.007259479931013252
12.000999999998788,0.0666018447379734,-0.007033940612122458
12.200999999998677,0.06709764882605579,-0.0067035374504480815
12.400999999998566,0.06756155596568207,-0.006262390315745396
12.600999999998455,0.06801346525823743,-0.005700080138822321
12.800999999998345,0.06846345900901955,-0.00499193545653036
13.000999999998234,0.06885434394910356,-0.003971518671993365
13.200999999998123,0.0694247356154757,-0.003095703263953725
13.400999999998012,0.06994300245357322,-0.0020282225811045036
13.600999999997901,0.07049147556585476,-0.0008579476963359612
13.80099999999779,0.07100345788771764,0.00043922734277498666
14.00099999999768,0.07147410885431162,0.0020107320284432554
14.200999999997569,0.07170732204768084,0.0035137532437741503
14.400999999997458,0.07218534483458545,0.005099414140108085
14.600999999997347,0.07263755149179961,0.006800501327214269
14.800999999997236,0.07282728023384843,0.008597554061751929
15.000999999997125,0.07326357646670782,0.010586937043895888
15.200999999997014,0.07351949910955156,0.012477918790421183
15.400999999996904,0.07380810444850801,0.014393456552898616
15.600999999996793,0.0741260903850893,0.016353629554422468
15.800999999996682,0.07447055445600481,0.018370991784855094
16.000999999996573,0.07483503643851899,0.020416812997253526
16.200999999996817,0.07521036094463139,0.02245096131518524
16.40099999999706,0.07559276147328278,0.024464809353930028
16.600999999997306,0.07598032994075778,0.02645051292141486
16.80099999999755,0.07637362698348144,0.028422056231846085
17.000999999997795,0.07676827067334052,0.03039271464301179
17.20099999999804,0.07716201796762677,0.032355616688781966
17.400999999998284,0.07755554731095639,0.03428730171826029
17.60099999999853,0.07795059764964284,0.03617144825398688
17.800999999998773,0.07834880464652036,0.03800648249920696
18.000999999999017,0.07874986957582374,0.03979015855670755
18.20099999999926,0.0791561237843899,0.04152306474568172
18.400999999999506,0.07940360173314631,0.04327430624541361
18.60099999999975,0.07967951263374687,0.04555055811066307
18.799999999999994,0.08016648453979874,0.04709762302912779
19.000000000000238,0.08041858718180936,0.04861887895167585
19.200000000000482,0.08115850969886725,0.0505746093106865
19.400000000000727,0.08159850207869972,0.051812181768403576
19.60000000000097,0.08214758986699743,0.05324678420869215
19.800000000001216,0.08298455613760518,0.05539397766564647
20.00000000000146,0.08376482906124405,0.056723433252421164
