Time (s),X (m),Y (m)
0.001,0.001152392079647418,0.0007293631428462583
0.20000000000000015,0.0007130772619724597,-0.0002862241827217008
0.4000000000000003,0.0014137102335524654,0.0002447311281276533
0.6000000000000004,0.002124856529390923,0.0005804064291717978
0.8000000000000006,0.0027992205873954633,0.0008436059618376415
1.0000000000000007,0.0037727108578683864,0.001457044872444931
1.2009999999999785,0.004673093938895989,0.0020226872652510464
1.4009999999999565,0.005500945738067471,0.0025221781418471724
1.6009999999999345,0.006288499967601164,0.0029841898678751888
1.8009999999999124,0.007118858113863076,0.0035066630475769234
2.0009999999998906,0.00803109645046594,0.004132085771042328
2.2009999999998686,0.008991282332938697,0.004821984236645147
2.4009999999998466,0.009958392139300803,0.00553193247126084
2.6009999999998246,0.01091627917998687,0.0062443431476286
2.8009999999998025,0.011869976571286866,0.006965907071790043
3.0009999999997805,0.012830265953251742,0.007707292654466979
3.2009999999997585,0.013803130576576658,0.008475011438153575
3.4009999999997365,0.014788732809677437,0.009268981762466487
3.6009999999997144,0.01578349275043135,0.01008490300493628
3.8009999999996924,0.016784524404983837,0.01091899255491409
4.000999999999671,0.01779037039574703,0.011769953405508246
4.200999999999738,0.018801348477401898,0.01263795063392939
4.400999999999804,0.019817885036110386,0.013523303106497079
4.600999999999871,0.02084000489739643,0.014425931960742547
4.800999999999938,0.021867492027569706,0.01534525121911566
5.000000000000004,0.022881250755147714,0.016252885871175116
5.200000000000071,0.023917454333715622,0.017202780935666646
5.400000000000138,0.024956593197776784,0.018166790883163562
5.600000000000205,0.025997221639199534,0.019143936500906854
5.800000000000272,0.027037606208696056,0.02013317643197895
6.000000000000338,0.028077709734580982,0.021134458535796413
6.200000000000405,0.029117311232631008,0.022147524520262345
6.400000000000472,0.030156066292890554,0.023172066676553308
6.600000000000539,0.031193813888310776,0.02420783725327548
6.800000000000606,0.032230607469670956,0.025254484373445834
7.000000000000672,0.03326614685223939,0.026311650539314085
7.200000000000739,0.03430009934620959,0.027378979086184786
7.400000000000806,0.03533215404335888,0.028456171789483526
7.600000000000873,0.03636203262316533,0.029542868476167352
7.8000000000009395,0.03738947173511257,0.03063872263734378
8.000000000001005,0.038414358442444216,0.031743527288881496
8.200000000000895,0.03943653380275696,0.03285716300531879
8.400000000000784,0.04045588645943716,0.033979607268357415
8.600000000000673,0.04147221009053319,0.03511057477283582
8.800000000000562,0.04248521537696959,0.036249865573477105
9.000000000000451,0.04349457416775376,0.03739736848906729
9.20000000000034,0.044500033156546805,0.03855289722694219
9.40000000000023,0.045501394217001896,0.039716228136514375
9.600000000000119,0.04649883569548795,0.04088728444812467
9.800000000000008,0.047492162204780745,0.04206593409985128
10.000999999999896,0.04849491052680368,0.04328183635912923
10.200999999999786,0.049479037073821806,0.044475263631128276
10.400999999999675,0.050458313518882865,0.0456757342914859
10.600999999999564,0.05143242841518881,0.04688316143171536
10.800999999999453,0.05240124607207736,0.04809747856301274
11.000999999999342,0.05336474774587453,0.04931864267526529
11.200999999999231,0.05432264198922229,0.050546610344344
11.40099999999912,0.05527470733051567,0.05178130409616057
11.60099999999901,0.0562208123805356,0.05302255585901393
11.800999999998899,0.057160729407181754,0.054270201635208425
12.000999999998788,0.05809423725193279,0.05552407416707648
12.200999999998677,0.05902111506142692,0.056784034536792045
12.400999999998566,0.05994114583376334,0.058049949709339535
12.600999999998455,0.06085410963609613,0.05932170839909629
12.800999999998345,0.06175978360788345,0.06059920727927156
13.000999999998234,0.06265796320891553,0.061882306178938404
13.200999999998123,0.06354850419397703,0.06317091446012789
13.400999999998012,0.06443136333624436,0.0644649533732972
13.600999999997901,0.065306360551933,0.06576434893988337
13.80099999999779,0.06617336991185276,0.06706900881528147
14.00099999999768,0.06703237367265626,0.06837890433801147
14.200999999997569,0.06788316780405436,0.069693912838185
14.400999999997458,0.06872554600551152,0.07101391215123377
14.600999999997347,0.0695592759162407,0.07233880086028666
14.800999999997236,0.07038416041021286,0.07366845401151598
15.000999999997125,0.07120000978423711,0.07500278374236213
15.200999999997014,0.07200664327951169,0.07634170893124874
15.400999999996904,0.07280388066060436,0.07768509850081119
15.600999999996793,0.07359154126423818,0.0790328257412028
15.800999999996682,0.07436944044311718,0.08038478080624022
16.000999999996573,0.07513740473760354,0.08174083877055113
16.200999999996817,0.07589525774436258,0.08310087927965296
16.40099999999706,0.07664287033217408,0.08446477136125692
16.600999999997306,0.07738021792957955,0.0858324170218148
16.80099999999755,0.07810723049292453,0.08720370579299896
17.000999999997795,0.07882377429108836,0.08857852233388548
17.20099999999804,0.0795297159662799,0.08995682448786191
17.400999999998284,0.08022491505518874,0.09133847052595019
17.60099999999853,0.08090927889109585,0.09272335942570956
17.800999999998773,0.08158282150007118,0.09411141602553472
18.000999999999017,0.08224543485897699,0.09550251022269625
18.20099999999926,0.08289698967794451,0.096896502696952
18.400999999999506,0.0835373605810535,0.09829325277453382
18.60099999999975,0.08416642652173534,0.09969261983168565
18.799999999999994,0.08478054307121774,0.1010620526937609
19.000000000000238,0.08538689432260223,0.10246619608913765
19.200000000000482,0.0859780111024672,0.1038729679157804
19.400000000000727,0.0865447479589404,0.10528251497179028
19.60000000000097,0.08708614394770633,0.10669426820470204
19.800000000001216,0.0876022651217182,0.10810775136044688
20.00000000000146,0.08809259975771397,0.10952263845773069
