Time (s),X (m),Y (m)
0.001,0.001392298616347667,0.0003527853123316693
0.20000000000000015,0.0006919446922015448,1.3268843393688e-05
0.4000000000000003,-0.0015420553627863245,0.00021420517257819582
0.6000000000000004,-0.0032749996670667723,0.0020057647809256186
0.8000000000000006,0.005104884942494452,0.007424390828457827
1.0000000000000007,0.003010179656639094,0.012995951339250062
1.2009999999999785,0.0013795910459872681,0.019196787187387473
1.4009999999999565,0.00030924789331931036,0.02854742844670074
1.6009999999999345,0.015417575165980675,0.038167605372260355
1.8009999999999124,0.019516981913393766,0.047327406626546276
2.0009999999998906,0.021885134787753124,0.05883227030319072
2.2009999999998686,0.030312584679316006,0.0737092930674165
2.4009999999998466,0.0490070263435547,0.09104567287862679
2.6009999999998246,0.07423052945510891,0.10836856849552433
2.8009999999998025,0.10572266810868662,0.12477875464729705
3.0009999999997805,0.13960737329361106,0.1380419460594032
3.2009999999997585,0.16900004818422434,0.14825992597626983
3.4009999999997365,0.19941276125900712,0.14816536631038757
3.6009999999997144,0.2242390351651742,0.13716789052848638
3.8009999999996924,0.25116051424070285,0.12201456828652178
4.000999999999671,0.26716931078879136,0.10572684699983514
4.200999999999738,0.2926953885289015,0.0901153656631153
4.400999999999804,0.3191538426275202,0.07218324753585113
4.600999999999871,0.32610152998243,0.05853877432534005
4.800999999999938,0.3400793389559731,0.054481967424364515
5.000000000000004,0.3600793247939188,0.05260521553730231
5.200000000000071,0.3837936047549125,0.05563433522499567
5.400000000000138,0.41240054125392483,0.059205054102150746
5.600000000000205,0.44482205118261736,0.059811185189442014
5.800000000000272,0.4730966967386128,0.0494366018222465
6.000000000000338,0.5082811115210392,0.033916460092671546
6.200000000000405,0.5342307156982703,0.015801613222763453
6.400000000000472,0.5630023791724372,-0.0048775101838783134
6.600000000000539,0.5961035628824498,-0.026446455816060168
6.800000000000606,0.6223596198569002,-0.04316891396375982
7.000000000000672,0.6533729920614774,-0.05133279236608346
7.200000000000739,0.6826743054668158,-0.05466284188649113
7.400000000000806,0.7090465328859137,-0.05469308470422965
7.600000000000873,0.7405126680723322,-0.05894834532188948
7.8000000000009395,0.7665182754278155,-0.06601639145257124
8.000000000001005,0.7976912947259475,-0.07991559124332341
8.200000000000895,0.834903887038984,-0.1068170056496229
8.400000000000784,0.8746558825086233,-0.1442792136148708
8.600000000000673,0.9154907425679191,-0.1831582392990826
8.800000000000562,0.9569774214247858,-0.22352852944865545
9.000000000000451,1.0019206871805268,-0.2698508758311674
9.20000000000034,1.0453590633487553,-0.3124667065758098
9.40000000000023,1.0869745038875713,-0.3548088491006029
9.600000000000119,1.132826972074255,-0.3980244603309565
9.800000000000008,1.1752757781915957,-0.4431239136193308
10.000999999999896,1.2127701893782816,-0.48617226075937825
10.200999999999786,1.255041382160302,-0.5327948717701368
10.400999999999675,1.2968552097449784,-0.5767847723777639
10.600999999999564,1.3430457236232292,-0.6219349252673944
10.800999999999453,1.3885555207556197,-0.6648143735722432
11.000999999999342,1.429905646837624,-0.7060433597167016
11.200999999999231,1.4647872501741452,-0.7442048247330633
11.40099999999912,1.499124429598143,-0.7833070433408691
11.60099999999901,1.5344276599102602,-0.8216485110433582
11.800999999998899,1.5644010335059129,-0.854069607464383
12.000999999998788,1.6040268536315498,-0.8928190598621033
12.200999999998677,1.647076026836793,-0.934435140932694
12.400999999998566,1.6854810122035833,-0.975028634550392
12.600999999998455,1.7212960636756014,-1.011115318552769
12.800999999998345,1.76087531656682,-1.0391960147433352
13.000999999998234,1.7998017611184565,-1.0673631975475162
13.200999999998123,1.8438697769958587,-1.1030498961343294
13.400999999998012,1.8913507408054537,-1.1422215030265386
13.600999999997901,1.9476120061897364,-1.181671083858711
13.80099999999779,1.995518970797587,-1.2131844009118424
14.00099999999768,2.0491882336973126,-1.2365059122716793
14.200999999997569,2.1065261485876663,-1.255838939288807
14.400999999997458,2.1597290603787527,-1.2818335123273379
14.600999999997347,2.208029369479935,-1.318577440602168
14.800999999997236,2.257538991512479,-1.3600361958743896
15.000999999997125,2.311512651083097,-1.403169700131544
15.200999999997014,2.3592944882811437,-1.4406075909844647
15.400999999996904,2.3948091825350946,-1.4728316470193599
15.600999999996793,2.43759993756726,-1.5140315303362524
15.800999999996682,2.4808384246003006,-1.5591501737465878
16.000999999996573,2.5240979677618913,-1.606350466172839
16.200999999996817,2.5689989772479382,-1.656452202535412
16.40099999999706,2.6142285434566532,-1.7122330969677324
16.600999999997306,2.6564279001130005,-1.770391954347097
16.80099999999755,2.692950502896981,-1.8249156521741168
17.000999999997795,2.710701448088922,-1.8697380319090717
17.20099999999804,2.697535228313629,-1.9158383923935558
17.400999999998284,2.6621168312758057,-1.9656778506592572
17.60099999999853,2.614090944725557,-2.0171780264120303
17.800999999998773,2.559712459741872,-2.0615590520209004
18.000999999999017,2.505013162149812,-2.098571227424049
18.20099999999926,2.4497998856663736,-2.1216959701797022
18.400999999999506,2.3962518547221596,-2.1307187549298026
18.60099999999975,2.335885326354226,-2.12840175423926
18.799999999999994,2.283489501075039,-2.10505112334187
19.000000000000238,2.232512166136879,-2.066566644820428
19.200000000000482,2.185251979652846,-2.020734504363363
19.400000000000727,2.1404413082993936,-1.9718206932783409
19.60000000000097,2.1016754482886006,-1.9287195268810324
19.800000000001216,2.0649378290520923,-1.8804220014512332
20.00000000000146,2.026860653308226,-1.8232395999687356
