Time (s),X (m),Y (m)
0.001,0.001267963995250183,0.0005916298972236683
0.20000000000000015,0.0009848593310763322,0.00010773496820234323
0.4000000000000003,0.002184288519813076,0.00046469868440974463
0.6000000000000004,0.003340581152934156,0.0004748304589131254
0.8000000000000006,0.006813957880381104,0.0016116109789412875
1.0000000000000007,0.011632726350696012,0.0005432850075139712
1.2009999999999785,0.014743725840068824,0.00042512478296105106
1.4009999999999565,0.01919792093411507,0.003922066752211374
1.6009999999999345,0.025166941052589563,0.008486751923961814
1.8009999999999124,0.031772572009205115,0.011083020908810744
2.0009999999998906,0.035451599560029384,0.013163517233595481
2.2009999999998686,0.03968028349338584,0.01443816342108848
2.4009999999998466,0.046493562229828034,0.023654952220684793
2.6009999999998246,0.053208761754413275,0.027349754621465276
2.8009999999998025,0.0602431072079936,0.03512543112280432
3.0009999999997805,0.06612319181422675,0.0392887992138937
3.2009999999997585,0.07098908730561278,0.04721135461620562
3.4009999999997365,0.07430515419000407,0.05486185030353417
3.6009999999997144,0.07758442861026422,0.05450264939437766
3.8009999999996924,0.07932177752838808,0.05462253299624413
4.000999999999671,0.08028290341145776,0.05497869537028446
4.200999999999738,0.08369819346102671,0.06083922392489087
4.400999999999804,0.08608485087409336,0.06267817870827831
4.600999999999871,0.08717257140825817,0.06917459908352837
4.800999999999938,0.08801699785301365,0.0782749742413975
5.000000000000004,0.09208903220270567,0.08479044416344568
5.200000000000071,0.09962807662261718,0.09072847350925262
5.400000000000138,0.10455885826070957,0.1003389014741183
5.600000000000205,0.10698918487534685,0.1115349807624031
5.800000000000272,0.10915748628206497,0.11930284471473794
6.000000000000338,0.1093493349903461,0.12987675942647905
6.200000000000405,0.11176436950573804,0.13410197875740498
6.400000000000472,0.1143089019495136,0.14415224851314795
6.600000000000539,0.11829739442841031,0.15165234518625506
6.800000000000606,0.12014707845729997,0.16003757217219267
7.000000000000672,0.12303056046291629,0.16938589726892564
7.200000000000739,0.12594072057172107,0.17764234428767606
7.400000000000806,0.12525926239950433,0.1889309220685883
7.600000000000873,0.12611263999888472,0.20062169408268918
7.8000000000009395,0.12481966712387434,0.2119710532279459
8.000000000001005,0.12392922051163242,0.21918863927463217
8.200000000000895,0.1212669224530594,0.2293991304375432
8.400000000000784,0.11698876621134227,0.24034566615392755
8.600000000000673,0.11503894355765928,0.25146712047627884
8.800000000000562,0.11218469881883959,0.264012053289853
9.000000000000451,0.10606368702399523,0.2763420041969975
9.20000000000034,0.10028429309621996,0.2892620071622211
9.40000000000023,0.09520416963906049,0.2982492946200539
9.600000000000119,0.08615782017497704,0.3126394092387208
9.800000000000008,0.07960585454727313,0.3254748497670509
10.000999999999896,0.07335696098398917,0.3372815990878266
10.200999999999786,0.0713010436487059,0.3468526527554967
10.400999999999675,0.06754433836891635,0.35774816994129255
10.600999999999564,0.05486832646200579,0.3707254089595982
10.800999999999453,0.04218740632516404,0.38419349130700264
11.000999999999342,0.03361896346523638,0.39625216550528336
11.200999999999231,0.022767910671042425,0.4078499587760061
11.40099999999912,0.013358849793493662,0.41909375070328914
11.60099999999901,0.00623184802812373,0.430694866980825
11.800999999998899,-0.0006323643743071106,0.4395736373899713
12.000999999998788,-0.00701043431155821,0.448283820892651
12.200999999998677,-0.014648431406163107,0.4573170095166521
12.400999999998566,-0.02142516796569494,0.4672743529784658
12.600999999998455,-0.033345698641940306,0.4748535755307468
12.800999999998345,-0.04664424080448308,0.4788894730499024
13.000999999998234,-0.059530595394240444,0.4828383096831646
13.200999999998123,-0.06921677640527772,0.4868539287996902
13.400999999998012,-0.07835354162074953,0.49033895581737136
13.600999999997901,-0.08781415135557807,0.4926034036596145
13.80099999999779,-0.09616082892554666,0.4958647304883948
14.00099999999768,-0.10676058566164756,0.4989984214594722
14.200999999997569,-0.11580415127286255,0.5036308220111195
14.400999999997458,-0.1276572685779129,0.5055010079126131
14.600999999997347,-0.14302682778449424,0.5049540413375644
14.800999999997236,-0.15190652703828977,0.5082399724185108
15.000999999997125,-0.16311877256483806,0.5085233065994584
15.200999999997014,-0.17701452626689998,0.5064497787392795
15.400999999996904,-0.18891951553304287,0.5066358718678075
15.600999999996793,-0.19870614763596106,0.5082799086138563
15.800999999996682,-0.21293486263998673,0.5027628969275943
16.000999999996573,-0.22613342796629085,0.4968557141447999
16.200999999996817,-0.23837044674162083,0.49288035284281506
16.40099999999706,-0.24917452427743644,0.4892514191755165
16.600999999997306,-0.26548783079501836,0.48280898014806767
16.80099999999755,-0.281408284725336,0.4794898938063227
17.000999999997795,-0.29650782532381664,0.4710679351630274
17.20099999999804,-0.3117062394185067,0.4617451980772855
17.400999999998284,-0.32690034953121605,0.45034884466435315
17.60099999999853,-0.34186338245040676,0.43969741402368223
17.800999999998773,-0.35587985155963986,0.43327942729675334
18.000999999999017,-0.37011497811412936,0.4270872738078107
18.20099999999926,-0.3839903405517616,0.4186232161243386
18.400999999999506,-0.396375379866225,0.40974544608411156
18.60099999999975,-0.40736462289663167,0.3947508854627061
18.799999999999994,-0.41888551421761205,0.3822707012537215
19.000000000000238,-0.42846088281257666,0.37287613393807295
19.200000000000482,-0.43663950465644163,0.3593775111882117
19.400000000000727,-0.4440574618990134,0.34595321871939727
19.60000000000097,-0.45262065635393356,0.33031330225534433
19.800000000001216,-0.4600674144557891,0.3183511278388956
20.00000000000146,-0.4639356597891076,0.3043081370430268
