Time (s),X (m),Y (m)
0.001,-0.00023999057263828476,0.0007901558823345071
0.20000000000000015,0.0015600635459774635,-0.00109589734522156
0.4000000000000003,0.0030938801085062654,-0.00013326969335934597
0.6000000000000004,0.010994811023296493,-0.007413402667095885
0.8000000000000006,0.021516493438961667,-0.017632039983855603
1.0000000000000007,0.0360216012939387,-0.021076392511294277
1.2009999999999785,0.05126696034987941,-0.03595677938413882
1.4009999999999565,0.0703613343830103,-0.040728778182003114
1.6009999999999345,0.08951621630129572,-0.04407375984285711
1.8009999999999124,0.10265716437223985,-0.051475878289629545
2.0009999999998906,0.11161117540416711,-0.06292087933186262
2.2009999999998686,0.11432754294461658,-0.08329974904628752
2.4009999999998466,0.11393703482603237,-0.11427084482882079
2.6009999999998246,0.10864366469611948,-0.15091729896229394
2.8009999999998025,0.10673451644004898,-0.19638793014599196
3.0009999999997805,0.10989272972676947,-0.22790792029650397
3.2009999999997585,0.11599804492124283,-0.26272372736495664
3.4009999999997365,0.12085835723161736,-0.29470602607797075
3.6009999999997144,0.12813187696597567,-0.30951774692374345
3.8009999999996924,0.13746058344060955,-0.31619908242295974
4.000999999999671,0.146357803151773,-0.32018981019048526
4.200999999999738,0.15765280897549436,-0.32998481168766325
4.400999999999804,0.17234093539623127,-0.3370581571063559
4.600999999999871,0.18915245499512875,-0.33092384826990756
4.800999999999938,0.2084191309695235,-0.31454209506669467
5.000000000000004,0.23361349552089605,-0.3056273857295817
5.200000000000071,0.2646038537394253,-0.30231555162447143
5.400000000000138,0.29975972824588865,-0.3010630826598264
5.600000000000205,0.3332481675571368,-0.3004812333304527
5.800000000000272,0.3775638862268704,-0.3050081918861096
6.000000000000338,0.42881433024239657,-0.3131008255272045
6.200000000000405,0.47090303281292756,-0.31897883643432173
6.400000000000472,0.4830037725456305,-0.31622037306045314
6.600000000000539,0.49275648830461927,-0.3058952376690832
6.800000000000606,0.5279730861926795,-0.29697367350594933
7.000000000000672,0.5776626491230694,-0.2993029128261017
7.200000000000739,0.6194831370873553,-0.2992718832731405
7.400000000000806,0.6672787858696339,-0.29878685539539307
7.600000000000873,0.724404191282649,-0.30709682311544034
7.8000000000009395,0.7680100849343608,-0.31277423638680474
8.000000000001005,0.8076949256918764,-0.313168626811064
8.200000000000895,0.8427374442561846,-0.3121017739958858
8.400000000000784,0.8467000844425172,-0.30481814132148494
8.600000000000673,0.8244554403650631,-0.2894024621899888
8.800000000000562,0.822187973317807,-0.2677328558888327
9.000000000000451,0.8150865349241014,-0.24381377425056597
9.20000000000034,0.8066477340267284,-0.21646042099431692
9.40000000000023,0.7907469379440029,-0.18908392164434867
9.600000000000119,0.7736622164158035,-0.15851038085851415
9.800000000000008,0.7691653524360145,-0.12061044501262057
10.000999999999896,0.7847547236506397,-0.07186284146035449
10.200999999999786,0.8122567368978426,-0.020207819647699115
10.400999999999675,0.8350388604085496,0.02255320119121869
10.600999999999564,0.8556780413024279,0.07290210926780859
10.800999999999453,0.8694051120940336,0.12163833139991721
11.000999999999342,0.8731893593151407,0.1706097374912408
11.200999999999231,0.8722879597240593,0.2150003499756621
11.40099999999912,0.879132438965544,0.2620161514781879
11.60099999999901,0.8933396224676339,0.3137578538483664
11.800999999998899,0.9303949584331782,0.3594803711167673
12.000999999998788,0.9656308617565699,0.40338456495545094
12.200999999998677,1.0026964599773978,0.43705695329957994
12.400999999998566,1.0571866850117455,0.44919424226374594
12.600999999998455,1.100788134187328,0.45560130841984203
12.800999999998345,1.147287328603666,0.4587197531277143
13.000999999998234,1.2036824975293707,0.44806111143502647
13.200999999998123,1.2693994870468284,0.4235566220187076
13.400999999998012,1.3296079177252598,0.4038401812068461
13.600999999997901,1.3811829151618058,0.3599103951164016
13.80099999999779,1.4243471747858976,0.31979635334682033
14.00099999999768,1.4573930701633122,0.2779963684654199
14.200999999997569,1.483617451691389,0.23358379061378412
14.400999999997458,1.4952272905347517,0.17525432231196608
14.600999999997347,1.5011327924015574,0.11738876257229398
14.800999999997236,1.5037730908780587,0.06543970831161289
15.000999999997125,1.5076675445754848,0.014105996673406989
15.200999999997014,1.5236777270452206,-0.02606061481794958
15.400999999996904,1.5395548460342392,-0.06906781044023572
15.600999999996793,1.548019246305291,-0.12343093548918496
15.800999999996682,1.5499375601229248,-0.173847303340287
16.000999999996573,1.5552684796269804,-0.22442111314695878
16.200999999996817,1.555450145303229,-0.28058424603472
16.40099999999706,1.5612053369110175,-0.33655129462818745
16.600999999997306,1.5671683335927993,-0.393407278231923
16.80099999999755,1.557639195685856,-0.4547918731972671
17.000999999997795,1.5537436346334725,-0.5099511686828121
17.20099999999804,1.5539685597780726,-0.5628505937186278
17.400999999998284,1.5506782875932603,-0.6248643530773774
17.60099999999853,1.5393837709756262,-0.6907222550692771
17.800999999998773,1.5245119190096756,-0.760196708063553
18.000999999999017,1.508958441999081,-0.8247950910180959
18.20099999999926,1.4884984616623096,-0.8692982475974256
18.400999999999506,1.4684902026207687,-0.9016387036504454
18.60099999999975,1.4393897458081466,-0.921454631667768
18.799999999999994,1.4022214038240408,-0.937701468429671
19.000000000000238,1.3508370230092388,-0.952845390760256
19.200000000000482,1.303679704519387,-0.9670596610501975
19.400000000000727,1.2636307754783331,-0.9792546605285707
19.60000000000097,1.2180346702946907,-0.9873132468001689
19.800000000001216,1.1729903083175908,-0.9902237648872868
20.00000000000146,1.1157067743701734,-0.9822005902182792
