Time (s),X (m),Y (m)
0.001,-0.0005732996449108882,-0.0002669654388657886
0.20000000000000015,0.001182613842249612,8.026530396615627e-05
0.4000000000000003,0.0019878241239157006,0.001499322574877993
0.6000000000000004,0.003578447593672728,0.0034045576530478076
0.8000000000000006,0.010459404701168951,0.00908041422281058
1.0000000000000007,0.015379901227044376,0.013363122097834097
1.2009999999999785,0.018179142856811548,0.019929905242596718
1.4009999999999565,0.026101552858102083,0.02934047152230738
1.6009999999999345,0.03341945151474202,0.03315868238404105
1.8009999999999124,0.03691768297036949,0.036227345547414275
2.0009999999998906,0.04496793038598339,0.04494846392590817
2.2009999999998686,0.05854757823033336,0.05631524125742522
2.4009999999998466,0.06975247822444926,0.06463110223476146
2.6009999999998246,0.08254580697432151,0.07684723259497755
2.8009999999998025,0.08871631065179741,0.08737735804275668
3.0009999999997805,0.09652717622535803,0.09988765083782979
3.2009999999997585,0.10266733645439778,0.10883658396947904
3.4009999999997365,0.11070155099990162,0.11976872437811656
3.6009999999997144,0.11791943330587525,0.1315506441060876
3.8009999999996924,0.12841675290581797,0.14646680782761623
4.000999999999671,0.1488095970926337,0.16423180938650872
4.200999999999738,0.1692130947197868,0.1822014892215691
4.400999999999804,0.17895042136317216,0.19746993616891748
4.600999999999871,0.1911859705082988,0.2149861828975511
4.800999999999938,0.20228694730290755,0.22809772305734585
5.000000000000004,0.21255975977584554,0.24384933253516541
5.200000000000071,0.22332798672149093,0.2622144184137135
5.400000000000138,0.23200788016552162,0.277979234390706
5.600000000000205,0.2446700941155946,0.2981131491676856
5.800000000000272,0.2590000701035769,0.31402048329954924
6.000000000000338,0.26897442214163253,0.33404245078397793
6.200000000000405,0.27556287581604205,0.35314654959190134
6.400000000000472,0.28153560489633933,0.3673520653818083
6.600000000000539,0.28220104248117983,0.3883619677319
6.800000000000606,0.2811223642318809,0.410375793598599
7.000000000000672,0.2811882497546795,0.42610940497029853
7.200000000000739,0.2832304851333275,0.4451292022014504
7.400000000000806,0.2880225393567116,0.4644892628043989
7.600000000000873,0.2921467603349138,0.47861700816156066
7.8000000000009395,0.29820313122320397,0.49790113440835754
8.000000000001005,0.3091439921021717,0.5148882198159
8.200000000000895,0.31935910750832447,0.5341756615335596
8.400000000000784,0.3274722290694014,0.5500781975720708
8.600000000000673,0.3320922120569675,0.5616334670933119
8.800000000000562,0.33369356980628645,0.5795170895047465
9.000000000000451,0.3387988703190749,0.6019819869056242
9.20000000000034,0.3427651984885095,0.6185466524682092
9.40000000000023,0.3448928691596918,0.6345560405562044
9.600000000000119,0.34777175906942814,0.6477747942098186
9.800000000000008,0.3455888192001066,0.6676970078846792
10.000999999999896,0.34480048143523745,0.6825839571019249
10.200999999999786,0.3435562458988574,0.6950983444011511
10.400999999999675,0.34288189690907545,0.713841038784681
10.600999999999564,0.33929664342015964,0.7307585680111003
10.800999999999453,0.33628115034616873,0.7432149983860454
11.000999999999342,0.32881735330356343,0.7607527995208592
11.200999999999231,0.32049795026668493,0.7743597635573531
11.40099999999912,0.31401436743755246,0.795215300539631
11.60099999999901,0.30871374853701505,0.8190612549621155
11.800999999998899,0.3037940336444774,0.8448751347412347
12.000999999998788,0.3042154412043169,0.8634291466881376
12.200999999998677,0.30807700452965175,0.8769172370187444
12.400999999998566,0.3149296167465348,0.8995749902261312
12.600999999998455,0.3220147422023556,0.9155331269291632
12.800999999998345,0.3322280348977882,0.9312152205315112
13.000999999998234,0.3401305890668533,0.9501458929556262
13.200999999998123,0.35548131211058426,0.967926888505274
13.400999999998012,0.3685004997268323,0.9844481714929364
13.600999999997901,0.3826335944474464,1.0113831226683772
13.80099999999779,0.3963721060433118,1.0347039955503592
14.00099999999768,0.4081975246327458,1.048233868121179
14.200999999997569,0.42159444718276434,1.0722117144748375
14.400999999997458,0.4333994096531824,1.091689493187352
14.600999999997347,0.4438437305553769,1.1053869869696804
14.800999999997236,0.45856385862506777,1.1239734416509302
15.000999999997125,0.4767602273130304,1.1529369549404551
15.200999999997014,0.49550288428954153,1.1826707351633277
15.400999999996904,0.514927968973925,1.2096233848979032
15.600999999996793,0.5278100844119205,1.2266049353174617
15.800999999996682,0.5382230774023112,1.2451997133688808
16.000999999996573,0.5478874663574654,1.2548345262946674
16.200999999996817,0.5591291038864922,1.2681833793206643
16.40099999999706,0.5727849656329946,1.2837802746011717
16.600999999997306,0.5887236539480214,1.3082674457237555
16.80099999999755,0.6036047021165634,1.3340985251885786
17.000999999997795,0.6157098387549585,1.3593592661216922
17.20099999999804,0.6306327972051328,1.3877509923980753
17.400999999998284,0.6410404871658812,1.4111163258524044
17.60099999999853,0.6527751884788567,1.4366358423810262
17.800999999998773,0.6634204787823429,1.4607543257962055
18.000999999999017,0.6747184841677162,1.4777080222709886
18.20099999999926,0.6837754956897306,1.5041857586890415
18.400999999999506,0.6945989610553976,1.5264044802447256
18.60099999999975,0.7019503577486584,1.5435213297914832
18.799999999999994,0.7095408201380615,1.5565784058136634
19.000000000000238,0.7172771346857437,1.57102182858069
19.200000000000482,0.7257792999426367,1.5896586750231878
19.400000000000727,0.7354948122403914,1.613287828526678
19.60000000000097,0.7416630481192256,1.6349314632395686
19.800000000001216,0.7500665141792926,1.6501974094725758
20.00000000000146,0.7595682269810436,1.668036015099427
