Time (s),X (m),Y (m)
0.001,-0.0004702548317818469,0.0005157376242541224
0.20000000000000015,0.0015100106249769445,-0.0007388303239853467
0.4000000000000003,0.0008063836313269912,0.0014655626864760103
0.6000000000000004,0.010506855279336782,-0.0035048255605583897
0.8000000000000006,0.02510756454552122,-0.013890792753859188
1.0000000000000007,0.04034485922235707,-0.021567181907318066
1.2009999999999785,0.04494051670128191,-0.02296732774588769
1.4009999999999565,0.05307657332816084,-0.022663084900629737
1.6009999999999345,0.0613675496243292,-0.018829388528112057
1.8009999999999124,0.0690372588252468,-0.01579740398441984
2.0009999999998906,0.07513620057572717,-0.010526735102578916
2.2009999999998686,0.09064576577646477,-0.016213260785181753
2.4009999999998466,0.10506304338139925,-0.017938327860794433
2.6009999999998246,0.1167335235606487,-0.023109508895265845
2.8009999999998025,0.1292677959294523,-0.03472338376370107
3.0009999999997805,0.14999364655151093,-0.051036537807622746
3.2009999999997585,0.1740970523106379,-0.0694191971970352
3.4009999999997365,0.19697122498685604,-0.07950306983568561
3.6009999999997144,0.2147756330022253,-0.08712594225861327
3.8009999999996924,0.22611836879932606,-0.09121321506323983
4.000999999999671,0.2420482743429166,-0.10151509921361013
4.200999999999738,0.2577316126231384,-0.11326225315329357
4.400999999999804,0.27572560345824415,-0.1385576562243428
4.600999999999871,0.2874728437763627,-0.1673129548590169
4.800999999999938,0.29531162419198664,-0.18871476892445513
5.000000000000004,0.30026858517385846,-0.21188311939972623
5.200000000000071,0.3021978152166664,-0.22842141726373671
5.400000000000138,0.30348866674445446,-0.2461688564482
5.600000000000205,0.2995487163046392,-0.2742827826996172
5.800000000000272,0.28990108671423903,-0.29839688965837485
6.000000000000338,0.2823855738593382,-0.3194902948137517
6.200000000000405,0.2774459609515963,-0.3432746375558207
6.400000000000472,0.26446042575541145,-0.37643557106621206
6.600000000000539,0.2485859680795998,-0.4063290545623578
6.800000000000606,0.23204169217144419,-0.4414553886354619
7.000000000000672,0.21027864892485526,-0.4817454426717383
7.200000000000739,0.18667906630596245,-0.5214972157514192
7.400000000000806,0.17099785110301696,-0.5522429568056009
7.600000000000873,0.16111246495190878,-0.5795641179303247
7.8000000000009395,0.141448753063548,-0.6178155856663008
8.000000000001005,0.1171552047766265,-0.6587676797542448
8.200000000000895,0.10027149035517632,-0.6965929011568059
8.400000000000784,0.07329617670096368,-0.72590018963841
8.600000000000673,0.051738945900235284,-0.7386306996895196
8.800000000000562,0.036734392463205104,-0.7481081007571635
9.000000000000451,0.019442515622092007,-0.7459880250910172
9.20000000000034,-0.007944760289140665,-0.7360126286042148
9.40000000000023,-0.04161362024227837,-0.724320358206146
9.600000000000119,-0.07654100049700771,-0.7142226469689664
9.800000000000008,-0.12138203068961827,-0.69668069013427
10.000999999999896,-0.15456876785553958,-0.683900694732633
10.200999999999786,-0.18534687707791178,-0.6742863072719666
10.400999999999675,-0.22274482479992577,-0.6591125927877167
10.600999999999564,-0.25821079616733883,-0.6461926255856034
10.800999999999453,-0.29673621989031657,-0.6306595975530764
11.000999999999342,-0.325897400070558,-0.6107935310212279
11.200999999999231,-0.35850540255323265,-0.5957347505563793
11.40099999999912,-0.38818360879784636,-0.5814571716648071
11.60099999999901,-0.41668713764203513,-0.5612455503378285
11.800999999998899,-0.44133449168651745,-0.5340734016513854
12.000999999998788,-0.4641454396033926,-0.503090053088419
12.200999999998677,-0.4735398935061729,-0.46891281829617365
12.400999999998566,-0.4775275133484913,-0.44934439751833405
12.600999999998455,-0.4801684864872502,-0.4354558482233715
12.800999999998345,-0.48465194977655607,-0.4092624728101499
13.000999999998234,-0.4908167889990973,-0.3852792096420938
13.200999999998123,-0.49409940349769654,-0.3515873338130928
13.400999999998012,-0.49930928132050195,-0.3224911150362856
13.600999999997901,-0.49992027967916874,-0.29377340963525245
13.80099999999779,-0.4961036714205417,-0.25410784541727344
14.00099999999768,-0.4847540437689372,-0.21343764933538167
14.200999999997569,-0.4695558611901913,-0.17399710722629053
14.400999999997458,-0.4568264531925396,-0.1391049281467692
14.600999999997347,-0.44031449128954175,-0.10369347353802587
14.800999999997236,-0.43302112423198297,-0.07086925223892017
15.000999999997125,-0.42533648246704314,-0.03709928999376097
15.200999999997014,-0.414991812192709,-0.002063133434799822
15.400999999996904,-0.40940547495515694,0.039018744159378546
15.600999999996793,-0.4018319147163488,0.07807451404497769
15.800999999996682,-0.3853079565712731,0.11975437559422757
16.000999999996573,-0.37121813609175236,0.16332692873766338
16.200999999996817,-0.36204298474086205,0.19949331964427014
16.40099999999706,-0.3449227310691097,0.2418369669671677
16.600999999997306,-0.33518416546717006,0.2757408093306576
16.80099999999755,-0.3148143554348921,0.3173290385486813
17.000999999997795,-0.3008822335209356,0.3561184508831396
17.20099999999804,-0.2933820641213671,0.39342649803615193
17.400999999998284,-0.2765858663523089,0.4352325946967927
17.60099999999853,-0.2508889352468086,0.48635770685908947
17.800999999998773,-0.2252689109072394,0.5373558144132718
18.000999999999017,-0.20521107266859348,0.578585333971516
18.20099999999926,-0.17354383231227852,0.619507769899677
18.400999999999506,-0.13344815168784946,0.6528553079640316
18.60099999999975,-0.09186608630369003,0.6700921428868449
18.799999999999994,-0.05888499118260461,0.6772128016838868
19.000000000000238,-0.017742706738641676,0.6803056132595471
19.200000000000482,0.025722579964988695,0.6798591117389454
19.400000000000727,0.06959633586870241,0.6738953849394819
19.60000000000097,0.1053010620607962,0.6620555945668134
19.800000000001216,0.14663817619937722,0.6434255463302672
20.00000000000146,0.18708340937314555,0.628452541937999
