Time (s),X (m),Y (m)
0.001,-0.00023999057263828476,0.0007901558823345071
0.20000000000000015,0.0011228906960042207,-0.0005757487749981186
0.4000000000000003,0.0027955414999525224,-0.0005250542727925446
0.6000000000000004,0.002167520216898639,0.002427145773967232
0.8000000000000006,0.0021445397614204835,0.006803760260672418
1.0000000000000007,0.003882755823195237,0.01016681427374091
1.2009999999999785,0.008275590835776551,0.009197433206532789
1.4009999999999565,0.009845292403264694,0.004199736177465043
1.6009999999999345,0.015947562288891073,-0.0016802403720848843
1.8009999999999124,0.020594712895142104,-0.010039641813010583
2.0009999999998906,0.02436672506774993,-0.009495825660748079
2.2009999999998686,0.02381878563460411,-0.008065491138942796
2.4009999999998466,0.026590981115144362,-0.0032012580176252977
2.6009999999998246,0.03050702063635954,-0.003444676129429407
2.8009999999998025,0.04061756400152982,-0.0071637021533224885
3.0009999999997805,0.0500101906993289,-0.007260058004052693
3.2009999999997585,0.06162448818321973,-0.00217674365290015
3.4009999999997365,0.06926382049358615,0.0007435638543583898
3.6009999999997144,0.07851271849607656,-0.0018480145180314472
3.8009999999996924,0.08987269622803604,-0.008248873185647387
4.000999999999671,0.10061706949491801,-0.014517899894405615
4.200999999999738,0.10513073645973152,-0.016046884835114034
4.400999999999804,0.11682323101283432,-0.011138680457906903
4.600999999999871,0.12991313292637865,-0.012776440944391959
4.800999999999938,0.14350399909896777,-0.015327216907540166
5.000000000000004,0.15945068301050078,-0.013175623124351712
5.200000000000071,0.17125805979298245,-0.01043098926434923
5.400000000000138,0.18847868482223618,-0.009654003606945972
5.600000000000205,0.20566362647106812,-0.005679656997297004
5.800000000000272,0.21501789630202447,0.002354191731381159
6.000000000000338,0.22949449592498006,0.009372536716316215
6.200000000000405,0.2428379497378393,0.01358479753398179
6.400000000000472,0.2522310375158208,0.017050222411654534
6.600000000000539,0.26915908368683283,0.014865799164015368
6.800000000000606,0.2825456167283194,0.018095486808480093
7.000000000000672,0.2910846534148262,0.02356523361287758
7.200000000000739,0.29652643646328514,0.030949549345369917
7.400000000000806,0.299694849281456,0.040718136241785476
7.600000000000873,0.30722524237034715,0.046387546214900294
7.8000000000009395,0.31619300527498245,0.04838237369116347
8.000000000001005,0.3270081179674604,0.05223721091235562
8.200000000000895,0.33838897207919316,0.056640910553015025
8.400000000000784,0.3461744783432889,0.05940074139115819
8.600000000000673,0.3597421378583409,0.0613679714472643
8.800000000000562,0.3853611800889965,0.06090671514547322
9.000000000000451,0.3950363678128552,0.06256333207812198
9.20000000000034,0.41002566794206935,0.06176701399100074
9.40000000000023,0.4260700077023777,0.06546140526464153
9.600000000000119,0.4367694613035064,0.0684781357470963
9.800000000000008,0.45025131968873705,0.07172897914569103
10.000999999999896,0.46232963985574427,0.07353528174458757
10.200999999999786,0.4800721760345266,0.07163092952865102
10.400999999999675,0.49647300619702406,0.07217456616394638
10.600999999999564,0.5069286839591022,0.07457400872146383
10.800999999999453,0.5133485974582676,0.08155809458075688
11.000999999999342,0.530674261404667,0.09269751227055706
11.200999999999231,0.5512857621424809,0.1041924840038447
11.40099999999912,0.5634334983097367,0.11051430569264332
11.60099999999901,0.5859880717519619,0.11173877945595734
11.800999999998899,0.6034495555091314,0.11327932566516787
12.000999999998788,0.6222384609065945,0.11489810926911098
12.200999999998677,0.6419708671323674,0.11658038198823087
12.400999999998566,0.6672498800083848,0.12115620414392106
12.600999999998455,0.6923368732319428,0.12485168224277941
12.800999999998345,0.7114228537913272,0.12770734301945527
13.000999999998234,0.721007198438971,0.1258267869669166
13.200999999998123,0.7344925541073091,0.12762264156617317
13.400999999998012,0.7519446669837916,0.1326864874376
13.600999999997901,0.7752524834545946,0.13349825141617747
13.80099999999779,0.7980164425680648,0.13895593827249925
14.00099999999768,0.8242882856130859,0.1430902902162937
14.200999999997569,0.8393168171733568,0.14762953069207854
14.400999999997458,0.8488195902430457,0.15297187769698686
14.600999999997347,0.8576028901753305,0.16063054213108696
14.800999999997236,0.8757748373514909,0.16217165720770524
15.000999999997125,0.8970542323012487,0.1615618347135842
15.200999999997014,0.9195084234367493,0.16176468402007863
15.400999999996904,0.9466488346511353,0.15536494245435062
15.600999999996793,0.9712304310138345,0.1552774980806839
15.800999999996682,0.9952853941532895,0.15469747720600635
16.000999999996573,1.0097206447747764,0.15691185815081213
16.200999999996817,1.0263374981109714,0.1629853600418779
16.40099999999706,1.0395314840774839,0.17049124493892678
16.600999999997306,1.0531368061823465,0.17544042636739926
16.80099999999755,1.0701585442860801,0.17762837938426532
17.000999999997795,1.0839707409785586,0.17930935364281672
17.20099999999804,1.1014985774493555,0.18161700426235672
17.400999999998284,1.1181442053358603,0.1831855339183301
17.60099999999853,1.1396700209494797,0.18550991032856612
17.800999999998773,1.156822408852578,0.18724897606416543
18.000999999999017,1.1734384545049659,0.1906951896823777
18.20099999999926,1.191573941891575,0.19494316251970817
18.400999999999506,1.2202002991168808,0.19177428334696078
18.60099999999975,1.2469444848908857,0.19217301187571423
18.799999999999994,1.274072468230092,0.1974640375920653
19.000000000000238,1.3040274328882784,0.19485509935243944
19.200000000000482,1.3222885639539863,0.19619476304321196
19.400000000000727,1.332211637879126,0.2015885564880484
19.60000000000097,1.3458411323636896,0.20599651504527658
19.800000000001216,1.3655604714915088,0.20806615681041005
20.00000000000146,1.381693096817037,0.21050796915143496
