Time (s),X (m),Y (m)
0.001,0.0005129279282107199,-0.0010275501737767782
0.20000000000000015,0.000839943103376262,-0.00019123777643062265
0.4000000000000003,0.0012579672847855704,-0.00022982094795871458
0.6000000000000004,0.0017980500398648961,-2.22965970483181e-05
0.8000000000000006,0.0024152454686321555,-0.00012991821458432231
1.0000000000000007,0.003068360952005727,-0.0004253277754497354
1.2009999999999785,0.003720302498196702,-0.0004672271767595406
1.4009999999999565,0.004358781377577786,-0.0005661334743356699
1.6009999999999345,0.004996252915990846,-0.00073560604465858
1.8009999999999124,0.0056363714233156805,-0.000888020135438008
2.0009999999998906,0.006285111989626817,-0.001021739370046552
2.2009999999998686,0.006942995062061094,-0.0011627554256261482
2.4009999999998466,0.007606219550023301,-0.001310651588372357
2.6009999999998246,0.008270893467859511,-0.0014653011712683925
2.8009999999998025,0.008937425351466887,-0.0016286441423880068
3.0009999999997805,0.009606413059652708,-0.0017996642556824818
3.2009999999997585,0.010282467749475648,-0.001977496624289554
3.4009999999997365,0.010979641471832217,-0.0021664342607925035
3.6009999999997144,0.01169813671834843,-0.0023662841963498155
3.8009999999996924,0.012437543176032628,-0.0025774033657804105
4.000999999999671,0.013195174765046553,-0.0027997955947061106
4.200999999999738,0.013962626644896307,-0.0030343211387417655
4.400999999999804,0.014737429259417694,-0.003280506399940738
4.600999999999871,0.015520025158208621,-0.003537813991556088
4.800999999999938,0.016310633575242782,-0.0038060609411693395
5.000000000000004,0.0171052210775536,-0.004083392987258593
5.200000000000071,0.017914314593576203,-0.004374656792077496
5.400000000000138,0.0187331858261313,-0.004677586828417113
5.600000000000205,0.01956169052377773,-0.004992176108719547
5.800000000000272,0.020399451313860405,-0.005318266922748783
6.000000000000338,0.02124631409116069,-0.0056558595632035
6.200000000000405,0.02210191445967648,-0.006004897246388226
6.400000000000472,0.02296602584498687,-0.006365305792107197
6.600000000000539,0.02383835342486429,-0.006737141607107052
6.800000000000606,0.02471881454005994,-0.007120587268809415
7.000000000000672,0.02560705830357375,-0.007515651155389952
7.200000000000739,0.02650270363032819,-0.007922116898994195
7.400000000000806,0.027405494240899116,-0.008340164253078207
7.600000000000873,0.028314657545437938,-0.008769367061951026
7.8000000000009395,0.029227140038385196,-0.009208195356650267
8.000000000001005,0.030141745085218323,-0.009656446258618508
8.200000000000895,0.03105890203608893,-0.010114331955216754
8.400000000000784,0.031979452872578175,-0.010581826076757358
8.600000000000673,0.03290118980042751,-0.011057824699937418
8.800000000000562,0.03382355638393648,-0.011541718646799105
9.000000000000451,0.034745781780071074,-0.01203291082359051
9.20000000000034,0.03566749775470839,-0.012531244393723672
9.40000000000023,0.03658929091208424,-0.013036719694651464
9.600000000000119,0.03750900631124909,-0.013549052217262408
9.800000000000008,0.03842709335668602,-0.014068534549504212
10.000999999999896,0.03934820337332156,-0.014597070144882209
10.200999999999786,0.040262580488408944,-0.015130136658219438
10.400999999999675,0.041175852570969854,-0.015669648996535404
10.600999999999564,0.0420876712765323,-0.016215423381999
10.800999999999453,0.042996565338826766,-0.016766985107472557
11.000999999999342,0.04390319006916003,-0.017324174548506554
11.200999999999231,0.04480896471763956,-0.017886474134791167
11.40099999999912,0.04571631246552203,-0.0184532510362639
11.60099999999901,0.046623622907529916,-0.019024165580723833
11.800999999998899,0.04753619704832272,-0.01959778473465512
12.000999999998788,0.04845651962965648,-0.020172758227815335
12.200999999998677,0.04938350989386775,-0.020746537328424887
12.400999999998566,0.05031712282131652,-0.02131495731996789
12.600999999998455,0.05125567659534467,-0.021875952857397876
12.800999999998345,0.05219766351232812,-0.022429337256740886
13.000999999998234,0.05314183220861406,-0.022975700594591454
13.200999999998123,0.05408682222834616,-0.02351535310230611
13.400999999998012,0.05503187900340469,-0.024048119661129113
13.600999999997901,0.055974803254800816,-0.024574113914065037
13.80099999999779,0.05691180593149881,-0.02509325280963115
14.00099999999768,0.05784101920027273,-0.025606207628784065
14.200999999997569,0.05876061744641269,-0.02611483537463098
14.400999999997458,0.059669214838001236,-0.026620728981539468
14.600999999997347,0.06056487376180492,-0.02712350223963936
14.800999999997236,0.06144220793176534,-0.02761919571250701
15.000999999997125,0.062298618101511945,-0.028105988014384492
15.200999999997014,0.06308215781987962,-0.02866900834314631
15.400999999996904,0.06396208594751926,-0.02912973524150927
15.600999999996793,0.06474921172599699,-0.029693539959866695
15.800999999996682,0.06561261108050281,-0.03019578765553496
16.000999999996573,0.0663976236782011,-0.03077694496742598
16.200999999996817,0.06715140654625805,-0.031232834500361302
16.40099999999706,0.06797354287687457,-0.03170031826470323
16.600999999997306,0.0687101737568131,-0.03220040178842255
16.80099999999755,0.0694752150742971,-0.03262494496500359
17.000999999997795,0.07027392120197827,-0.0331535808899323
17.20099999999804,0.07097241448144273,-0.033579541957168606
17.400999999998284,0.07180258996198784,-0.034017578651405235
17.60099999999853,0.0724521994607847,-0.03437919830954387
17.800999999998773,0.07317289706095927,-0.03468321090997591
18.000999999999017,0.07390218184162983,-0.03507998130501027
18.20099999999926,0.07451272666161017,-0.03532253514104446
18.400999999999506,0.07520688127575949,-0.035615128669776605
18.60099999999975,0.0756879696844363,-0.03578057748964058
18.799999999999994,0.07632774356338212,-0.03596052419403271
19.000000000000238,0.07676733503392932,-0.03613332491288069
19.200000000000482,0.07727433718316279,-0.03620983793362588
19.400000000000727,0.07766308672998445,-0.03632531316366387
19.60000000000097,0.0780829323879352,-0.03637864838625417
19.800000000001216,0.07835457534389563,-0.03645095426941821
20.00000000000146,0.07876131470228782,-0.03641154667173833
