Time (s),X (m),Y (m)
0.001,-0.00016860096042250976,-0.0008449350584490231
0.20000000000000015,0.0021174478724705218,0.0007349583643387709
0.4000000000000003,0.00521637582096896,0.0001730795329196521
0.6000000000000004,0.009300101375557722,-0.0009508839577202947
0.8000000000000006,0.014602512177070068,0.00027025570908751576
1.0000000000000007,0.016147967808182777,-0.003404653158787223
1.2009999999999785,0.02461290012255926,-0.006490875862412633
1.4009999999999565,0.032679888088525934,-0.010818206392565434
1.6009999999999345,0.044673644387147986,-0.01348438174216246
1.8009999999999124,0.06380625080309825,-0.01202554061638601
2.0009999999998906,0.08289068882049487,0.0029277321296552385
2.2009999999998686,0.10087463545444363,0.012795224230408495
2.4009999999998466,0.11908036208179651,0.020312148015829944
2.6009999999998246,0.14411732550320178,0.037542754896342234
2.8009999999998025,0.1710396819389653,0.048922328113175005
3.0009999999997805,0.19621101106800323,0.05194809048787403
3.2009999999997585,0.2165428579119152,0.06028721538195746
3.4009999999997365,0.23019266485826592,0.07429599408484927
3.6009999999997144,0.24057090965024241,0.0885925767311963
3.8009999999996924,0.24358026268140687,0.11482148221557374
4.000999999999671,0.24747719954116756,0.1352368648846841
4.200999999999738,0.25674367864937386,0.14365768647251673
4.400999999999804,0.2750919506199365,0.14082542398767756
4.600999999999871,0.2932735741719129,0.1625151836176532
4.800999999999938,0.30601334398125846,0.1858091174352176
5.000000000000004,0.31298669003325846,0.21521931302575908
5.200000000000071,0.31643985697062965,0.25524344908215085
5.400000000000138,0.3194700721184366,0.29880267584008746
5.600000000000205,0.3297429133361624,0.3371668586275553
5.800000000000272,0.3463136041111723,0.364657539832316
6.000000000000338,0.3725300881545587,0.39746106879989784
6.200000000000405,0.4072965931914607,0.42767292044523614
6.400000000000472,0.44308978241524233,0.447580169963045
6.600000000000539,0.4731526976951531,0.4671758895994331
6.800000000000606,0.5026403729012883,0.49659907382278773
7.000000000000672,0.5271396389424066,0.5385023614802126
7.200000000000739,0.5452917001810174,0.5773058924566595
7.400000000000806,0.571190351465585,0.6021734067739518
7.600000000000873,0.600400767142848,0.6290069399075567
7.8000000000009395,0.6359044131700117,0.6702887285218702
8.000000000001005,0.6757980512825178,0.7137891035122251
8.200000000000895,0.7190787171284349,0.7554844285127904
8.400000000000784,0.7608504487110725,0.7756101199525692
8.600000000000673,0.8005858186977991,0.7860775948024559
8.800000000000562,0.8431679799480891,0.7973908001742216
9.000000000000451,0.888978120509793,0.818674138815569
9.20000000000034,0.9341326580851207,0.8343792357536959
9.40000000000023,0.9842088406520422,0.8553860899032871
9.600000000000119,1.0382309790606148,0.8839301596154006
9.800000000000008,1.095853422676792,0.9020162848176297
10.000999999999896,1.1483684985554548,0.9143433991123961
10.200999999999786,1.203037225807898,0.9346218843545422
10.400999999999675,1.258882163526753,0.9589291478490292
10.600999999999564,1.3158891178611172,0.987534408724331
10.800999999999453,1.3770444087275195,1.0303064509940885
11.000999999999342,1.435785791778242,1.0622638480138689
11.200999999999231,1.490695178128629,1.095419336821608
11.40099999999912,1.5355092093293838,1.1260991064853088
11.60099999999901,1.5749394631707168,1.1729893438400791
11.800999999998899,1.6153892723447727,1.2085175227692757
12.000999999998788,1.6552453815471189,1.2515003035741443
12.200999999998677,1.692276275883585,1.2883075989531565
12.400999999998566,1.7315591302852227,1.317639508733554
12.600999999998455,1.76133262966807,1.364591117068291
12.800999999998345,1.78253563566873,1.4186379813003271
13.000999999998234,1.8079122145266353,1.475172529152305
13.200999999998123,1.8395397843189532,1.5258395929307698
13.400999999998012,1.8769981907976623,1.5819460675724875
13.600999999997901,1.9064858753736555,1.63901850816403
13.80099999999779,1.9219439536466456,1.693416893552729
14.00099999999768,1.930658109485203,1.741511673865093
14.200999999997569,1.9526236715480594,1.8061299214150892
14.400999999997458,1.9798909972037262,1.868125267457864
14.600999999997347,2.0094704246218766,1.9213800759123538
14.800999999997236,2.028513649777534,1.9846940364053627
15.000999999997125,2.039984718452479,2.0358825517784775
15.200999999997014,2.0682024446752094,2.0872656233154965
15.400999999996904,2.114897010062108,2.12710314352788
15.600999999996793,2.1658726673132795,2.168521359557933
15.800999999996682,2.2210254831605574,2.21810089238726
16.000999999996573,2.2724583413786132,2.267596028243005
16.200999999996817,2.327265740675609,2.326889568552407
16.40099999999706,2.386412986975657,2.38344889309614
16.600999999997306,2.441569827273678,2.4314565776244486
16.80099999999755,2.487100772163738,2.483288807163617
17.000999999997795,2.5194714787314454,2.541879801551525
17.20099999999804,2.5334517507931897,2.6023409809484175
17.400999999998284,2.5456043046354706,2.664852142314996
17.60099999999853,2.585232649737323,2.71625849921947
17.800999999998773,2.639998422201458,2.762997034767823
18.000999999999017,2.687497348383334,2.8248773855545424
18.20099999999926,2.7122338919666826,2.891843243367158
18.400999999999506,2.7298355906251994,2.95003506378416
18.60099999999975,2.7568985449092893,3.000133380280468
18.799999999999994,2.7925249910603314,3.051267620838467
19.000000000000238,2.835328020539706,3.092807912126709
19.200000000000482,2.8883350177923224,3.1202815518201255
19.400000000000727,2.94981130749927,3.1494493221878965
19.60000000000097,3.018646823919466,3.189592205259934
19.800000000001216,3.0954271604214183,3.2442600867505123
20.00000000000146,3.16965346468548,3.288455400128181
