Time (s),X (m),Y (m)
0.001,-0.0004702548317818469,-0.0005157376242541218
0.20000000000000015,0.0006433183852403586,-0.0001346746549084936
0.4000000000000003,0.001226660136761524,-6.37200252168384e-05
0.6000000000000004,0.002148378448745032,0.0004269554180931993
0.8000000000000006,0.0031479574114915984,0.0010015405404497442
1.0000000000000007,0.004443728785433264,0.001806456961155398
1.2009999999999785,0.005527493671087939,0.0024777322954423254
1.4009999999999565,0.006703575197466804,0.003221613973671803
1.6009999999999345,0.007917244751577405,0.003998498119173609
1.8009999999999124,0.00914055397983159,0.004799856776155854
2.0009999999998906,0.010405938046638004,0.005654920230686271
2.2009999999998686,0.01172046366069589,0.006562501397654442
2.4009999999998466,0.013062344347609804,0.0075005529749082814
2.6009999999998246,0.014424667390338715,0.00846107755819805
2.8009999999998025,0.015805504354950508,0.00944544822200065
3.0009999999997805,0.017207479834447575,0.01045658470058367
3.2009999999997585,0.018631176517942806,0.011496822781650247
3.4009999999997365,0.02007675827132054,0.012565346012012963
3.6009999999997144,0.021542469105948137,0.013660887660655143
3.8009999999996924,0.023025894073056014,0.014782150411073258
4.000999999999671,0.024525130034702785,0.01592776740887566
4.200999999999738,0.026039306298619464,0.017097542810359297
4.400999999999804,0.02756743547470235,0.018291157756977563
4.600999999999871,0.029108309238012425,0.019508285964342356
4.800999999999938,0.03065991662286814,0.020748689718820948
5.000000000000004,0.032219945780167965,0.022010814222052512
5.200000000000071,0.03378949937885377,0.023296286086606457
5.400000000000138,0.035366001285195056,0.024603622559714756
5.600000000000205,0.03694853525312226,0.025932761075704525
5.800000000000272,0.038536731808718826,0.027283380132663158
6.000000000000338,0.04013014284948255,0.02865509179807433
6.200000000000405,0.041728495215739424,0.030047747409903514
6.400000000000472,0.043331452419381425,0.031461092524955464
6.600000000000539,0.04493850162178983,0.03289475406592696
6.800000000000606,0.04654951142082598,0.03434845877359143
7.000000000000672,0.048163971573959005,0.03582204641958884
7.200000000000739,0.049781393825764284,0.03731529358250287
7.400000000000806,0.05140122074478583,0.03882792988762429
7.600000000000873,0.05302318551747408,0.04036003394651461
7.8000000000009395,0.05464692377782718,0.041911421421083186
8.000000000001005,0.056271989039770424,0.04348195597896637
8.200000000000895,0.05789787133878065,0.04507140451705611
8.400000000000784,0.05952423192083847,0.04667960856562374
8.600000000000673,0.061150519374618933,0.048306282492171705
8.800000000000562,0.0627762535396408,0.04995143834090398
9.000000000000451,0.06440129714624099,0.0516150281078382
9.20000000000034,0.06602519187363272,0.0532967676259308
9.40000000000023,0.06764740705113427,0.05499634155276867
9.600000000000119,0.06926733989253396,0.05671324877863118
9.800000000000008,0.0708844253328062,0.05844697511280566
10.000999999999896,0.07249979805355572,0.06019761568292288
10.200999999999786,0.07410981264151138,0.0619639635837488
10.400999999999675,0.07571545789494234,0.06374622896332784
10.600999999999564,0.07731619189935561,0.06554402321680372
10.800999999999453,0.0789115988772671,0.06735708905293965
11.000999999999342,0.0805009999552686,0.0691851358760733
11.200999999999231,0.08208375662909916,0.07102785678634935
11.40099999999912,0.08365921878177908,0.07288486104714778
11.60099999999901,0.08522159265524092,0.07481496694676958
11.800999999998899,0.08677935775308862,0.07671274170149539
12.000999999998788,0.08832950702628721,0.07869460752116673
12.200999999998677,0.08985160182139365,0.08071401189530251
12.400999999998566,0.09137040885246944,0.08267659722328084
12.600999999998455,0.09284619474924484,0.08474293625757055
12.800999999998345,0.09431266318816829,0.08682554132589235
13.000999999998234,0.09578223054160982,0.08886793349041479
13.200999999998123,0.09724045827586468,0.09093376320519098
13.400999999998012,0.09866727424659281,0.09308770365397585
13.600999999997901,0.10005549869287932,0.09532467138027512
13.80099999999779,0.10144973997812448,0.09750162249509063
14.00099999999768,0.10282727020113147,0.09963250940152758
14.200999999997569,0.10414418224357819,0.10193737545146625
14.400999999997458,0.10546034272754783,0.10421224767595898
14.600999999997347,0.10676168069511525,0.10642875173244587
14.800999999997236,0.10799564652269132,0.10879083329739322
15.000999999997125,0.10924647084452539,0.11103149327613879
15.200999999997014,0.1104486774861132,0.11347820790125368
15.400999999996904,0.11159044976933435,0.11582075220544626
15.600999999996793,0.11268665571764576,0.11816072753093286
15.800999999996682,0.11376776926510716,0.12050894087373207
16.000999999996573,0.1148432592348469,0.12295222409717121
16.200999999996817,0.11587989251661768,0.12531706660487205
16.40099999999706,0.11690484759786564,0.1277805720105639
16.600999999997306,0.1179099667449036,0.1302131262796443
16.80099999999755,0.11888027298363203,0.13269281011539497
17.000999999997795,0.11985529085617609,0.13523753653427353
17.20099999999804,0.12076837798652361,0.13775462327409713
17.400999999998284,0.12161920535559939,0.14023932966784855
17.60099999999853,0.12245011867136361,0.14274720567606403
17.800999999998773,0.12320369401987817,0.14524464828149256
18.000999999999017,0.12396250850858831,0.14784370601074956
18.20099999999926,0.12463536296030694,0.15031910871262857
18.400999999999506,0.12526359912048293,0.15285817809422125
18.60099999999975,0.1258344823875203,0.15533742253374688
18.799999999999994,0.12636335328058712,0.15792133458720842
19.000000000000238,0.1268464724927862,0.16042370209334567
19.200000000000482,0.12727296136596364,0.16302324242162383
19.400000000000727,0.12767013186332193,0.16559825241367937
19.60000000000097,0.12799539614602692,0.16821454473187392
19.800000000001216,0.12830841530350046,0.17087363921967294
20.00000000000146,0.1285293181801968,0.17346906177290225
