Time (s),X (m),Y (m)
0.001,-0.00036712694553334754,0.0006630195094394434
0.20000000000000015,0.0009073823073033365,-0.00024786751338936756
0.4000000000000003,0.0020394720062341712,-0.000839885747219155
0.6000000000000004,0.0013187293084294322,0.00026528775289620345
0.8000000000000006,0.001388016986574753,-0.00011398354589766484
1.0000000000000007,0.004207765601435745,-0.0008407228946805532
1.2009999999999785,0.007961304449712686,0.002812243224642154
1.4009999999999565,0.010980236901851213,0.005761245638387633
1.6009999999999345,0.017763284716575314,0.0033809113710465753
1.8009999999999124,0.020534624902901002,0.004472521756507024
2.0009999999998906,0.025391420888508882,0.004160863804603886
2.2009999999998686,0.032782890649714666,0.006310076960742069
2.4009999999998466,0.03736534385096354,0.007317670286543847
2.6009999999998246,0.04397649269605992,0.006130982804371644
2.8009999999998025,0.050822311300437656,0.007247244190886414
3.0009999999997805,0.06042129484875784,-0.0014634454693940495
3.2009999999997585,0.07194872400789284,-0.005557339736168311
3.4009999999997365,0.086417297343668,-0.011807804841388112
3.6009999999997144,0.08833851923965333,-0.008751097468513507
3.8009999999996924,0.09830950725045258,-0.009390493041429247
4.000999999999671,0.1115210886699579,-0.012592778808344541
4.200999999999738,0.12064403181847566,-0.01320303124329606
4.400999999999804,0.13057426854583268,-0.014039833067719552
4.600999999999871,0.1384082124392742,-0.012848954123878703
4.800999999999938,0.14672999704753548,-0.012984718819917928
5.000000000000004,0.15700765748589657,-0.01629672810461042
5.200000000000071,0.17126912429916882,-0.02142170889959588
5.400000000000138,0.18450222588836535,-0.024462157240258728
5.600000000000205,0.19728450044843276,-0.02825188321891859
5.800000000000272,0.21098983207327518,-0.03099331830705533
6.000000000000338,0.22760700355665414,-0.03431897473372923
6.200000000000405,0.24348954678105592,-0.0402096241608037
6.400000000000472,0.255290513159798,-0.04186813583723673
6.600000000000539,0.27041850743834617,-0.04613415879116888
6.800000000000606,0.2880778007704529,-0.05214755286291951
7.000000000000672,0.2999130525420874,-0.05280841754497437
7.200000000000739,0.3116766400014079,-0.052094010122198685
7.400000000000806,0.33188109278642375,-0.05872114471716319
7.600000000000873,0.3478707494912675,-0.059070398208054896
7.8000000000009395,0.3610736244531523,-0.06139946841482509
8.000000000001005,0.3751894265044085,-0.05999757714680024
8.200000000000895,0.39168121646000154,-0.0626084126300763
8.400000000000784,0.4049543024892385,-0.0646239836085822
8.600000000000673,0.41586510450679154,-0.06521102539108613
8.800000000000562,0.42602507456882716,-0.06467436584454264
9.000000000000451,0.4411482199198801,-0.06532061185799963
9.20000000000034,0.4558249039847153,-0.06635678037654955
9.40000000000023,0.47197018828241744,-0.06967768948945174
9.600000000000119,0.48703010308806255,-0.07327385917308345
9.800000000000008,0.5057198091929936,-0.07677439826687416
10.000999999999896,0.5199498960720419,-0.0772976307366521
10.200999999999786,0.5334555086078957,-0.07785366113121867
10.400999999999675,0.5506817718061753,-0.07859186513487694
10.600999999999564,0.5648935365936152,-0.08231358194062109
10.800999999999453,0.5754681512354681,-0.08245048876148997
11.000999999999342,0.5903597082435901,-0.08569328545059014
11.200999999999231,0.6025872737567355,-0.09009968002662447
11.40099999999912,0.621484553765232,-0.0952548377888227
11.60099999999901,0.6423568294318024,-0.10046431561054156
11.800999999998899,0.6673214114350834,-0.10621616536214648
12.000999999998788,0.6865815610397409,-0.10939994919541907
12.200999999998677,0.7095240750180075,-0.11895332895556088
12.400999999998566,0.733366240625117,-0.12600846861415904
12.600999999998455,0.7494232092977856,-0.1287107440657974
12.800999999998345,0.7632726308743727,-0.1328385880728628
13.000999999998234,0.7803528556067415,-0.13857797343497225
13.200999999998123,0.7995240187433802,-0.14639041361846802
13.400999999998012,0.8216658263700375,-0.15090571445231013
13.600999999997901,0.8481321386403496,-0.16074522493406956
13.80099999999779,0.8691562624023432,-0.16306274491781908
14.00099999999768,0.8921966181056006,-0.16769457201636914
14.200999999997569,0.9127666125806212,-0.17214440380821333
14.400999999997458,0.9297109501416538,-0.17084220755810642
14.600999999997347,0.9428196428490702,-0.17018159070069558
14.800999999997236,0.9559946417700962,-0.1729775780464823
15.000999999997125,0.9720324131846888,-0.1746753906715151
15.200999999997014,0.9875724572958292,-0.17787793355862863
15.400999999996904,1.005444375039178,-0.1848517333255898
15.600999999996793,1.0234517234848988,-0.1916568143641316
15.800999999996682,1.0432584304798524,-0.1978129073569346
16.000999999996573,1.0638538621443143,-0.20503939663228643
16.200999999996817,1.0783785382249547,-0.2027207709608971
16.40099999999706,1.0944558257716512,-0.20131464526252865
16.600999999997306,1.1126995495011769,-0.2065028148822803
16.80099999999755,1.1282959817363603,-0.20476632928027455
17.000999999997795,1.1393355126272775,-0.20630442702018328
17.20099999999804,1.1590923365503158,-0.20997599248653545
17.400999999998284,1.1852041083194786,-0.22023183057379883
17.60099999999853,1.206723080335303,-0.2253183555606143
17.800999999998773,1.2260992485959783,-0.22847773149398212
18.000999999999017,1.2478460008983454,-0.23991955710695567
18.20099999999926,1.2654659656224803,-0.24468642873368207
18.400999999999506,1.285517969500955,-0.24993962750073573
18.60099999999975,1.3018848926693167,-0.25331811538927457
18.799999999999994,1.3168911043797862,-0.25698400853486597
19.000000000000238,1.3340347345798689,-0.26550675783203237
19.200000000000482,1.3484207546422993,-0.2732024245142281
19.400000000000727,1.3621540730245407,-0.28406352685081815
19.60000000000097,1.3734679427356289,-0.29702007587816265
19.800000000001216,1.3839265166762125,-0.310951995713708
20.00000000000146,1.392664681680356,-0.3302455297534366
