Time (s),X (m),Y (m)
0.001,0.001086048446240603,-0.0007901558823345071
0.20000000000000015,0.0006867853179604717,0.00024113896774278644
0.4000000000000003,0.0012968205660147752,-0.0002911722249448953
0.6000000000000004,0.001853464178247057,-0.0005807568150144945
0.8000000000000006,0.0023863597491601838,-0.0007341099127117987
1.0000000000000007,0.003154742505012417,-0.0013018403768678755
1.2009999999999785,0.003917472971247295,-0.0018297635511646748
1.4009999999999565,0.0046292052985467454,-0.002291276653803145
1.6009999999999345,0.005306065385164215,-0.002706119042790707
1.8009999999999124,0.006027579006150151,-0.0031766008697568784
2.0009999999998906,0.006827028191294011,-0.003751679742896827
2.2009999999998686,0.007675504043072711,-0.004392338090631496
2.4009999999998466,0.00854112266711034,-0.005054395768614684
2.6009999999998246,0.009410329662532592,-0.0057200318506640405
2.8009999999998025,0.010285568642277886,-0.006393665591890842
3.0009999999997805,0.011177644656836194,-0.007086628122857926
3.2009999999997585,0.012091971403442373,-0.007805515532739177
3.4009999999997365,0.013028904701761813,-0.008550217792883019
3.6009999999997144,0.013982434608362073,-0.009313954015457999
3.8009999999996924,0.014948328498372038,-0.010091287179819488
4.000999999999671,0.015925792150157034,-0.010880372952638405
4.200999999999738,0.016915393477113235,-0.011680107767635622
4.400999999999804,0.017917756268582316,-0.012489101108834989
4.600999999999871,0.018933396656564926,-0.013306988581415491
4.800999999999938,0.019962521065263812,-0.014133579022960257
5.000000000000004,0.02098490097630753,-0.014942973138300565
5.200000000000071,0.022040542343961342,-0.015785636721565927
5.400000000000138,0.023109221477125727,-0.016635545372803862
5.600000000000205,0.024190912870377928,-0.01749217256280871
5.800000000000272,0.02528564775552052,-0.018355277188732044
6.000000000000338,0.026393625673723678,-0.019224925972269376
6.200000000000405,0.027515075173195683,-0.02010116852319091
6.400000000000472,0.02864987495535276,-0.02098379358964152
6.600000000000539,0.029797854508921837,-0.021872313088878863
6.800000000000606,0.03095884706230104,-0.022766300508197418
7.000000000000672,0.032132932522685356,-0.023665531239716663
7.200000000000739,0.033320681350474154,-0.02456987879822085
7.400000000000806,0.0345222917011316,-0.02547907036004734
7.600000000000873,0.03573771202451283,-0.02639286104645671
7.8000000000009395,0.036966775770975645,-0.027311080911171685
8.000000000001005,0.03820956944196319,-0.028233410318538304
8.200000000000895,0.0394659543662649,-0.029159489111247872
8.400000000000784,0.04073576945272097,-0.030088982152777898
8.600000000000673,0.042018936628251166,-0.031021613399031162
8.800000000000562,0.04331562992347594,-0.03195722701554391
9.000000000000451,0.044625922033911594,-0.032895449233079674
9.20000000000034,0.04594970643862266,-0.033835900830070785
9.40000000000023,0.047286783124446584,-0.03477826147272075
9.600000000000119,0.04863695735927465,-0.03572223900928826
9.800000000000008,0.05000012432301238,-0.036667635006483845
10.000999999999896,0.05140024653044012,-0.03763592294649096
10.200999999999786,0.05278919272001687,-0.03858369404711617
10.400999999999675,0.05419099430359595,-0.03953247933230832
10.600999999999564,0.0556057049675705,-0.04048202225565996
10.800999999999453,0.057033072860585066,-0.041432000513062374
11.000999999999342,0.05847282917574542,-0.04238212746423561
11.200999999999231,0.05992470066057082,-0.04333221975851656
11.40099999999912,0.061388401666875356,-0.04428197228613548
11.60099999999901,0.06286386991396205,-0.0452311799965223
11.800999999998899,0.06435139948292805,-0.04617937268127599
12.000999999998788,0.06585090736940509,-0.04712627385935948
12.200999999998677,0.06736234529498979,-0.04807158574110743
12.400999999998566,0.06891918750269595,-0.04908117095232478
12.600999999998455,0.07049857141957638,-0.05013697937386761
12.800999999998345,0.07210539541072024,-0.05116495725090061
13.000999999998234,0.07372184070056226,-0.05216643829239861
13.200999999998123,0.07533568391284151,-0.05316838972677482
13.400999999998012,0.07700842508304803,-0.05425953937729706
13.600999999997901,0.07870355752297732,-0.05534202839226989
13.80099999999779,0.0804031207224183,-0.05645448075795782
14.00099999999768,0.08216041141317729,-0.05755885108782026
14.200999999997569,0.08392770235685372,-0.05868459003344744
14.400999999997458,0.08570752586257332,-0.05979795617571543
14.600999999997347,0.08752260918331935,-0.06091052616207139
14.800999999997236,0.08941131345900917,-0.06203228718599852
15.000999999997125,0.0912825001191863,-0.06312734772940064
15.200999999997014,0.09316060154839544,-0.0642096155968902
15.400999999996904,0.09503027364557433,-0.06527364697680865
15.600999999996793,0.09691806191558688,-0.06633139009315567
15.800999999996682,0.09881499386025892,-0.0673645694363309
16.000999999996573,0.10071918470261974,-0.06838140219957214
16.200999999996817,0.10262517485640504,-0.06937585654084201
16.40099999999706,0.10456538879356735,-0.07035658115729226
16.600999999997306,0.10654581720151696,-0.0713442678758062
16.80099999999755,0.10849529185331153,-0.07228984102872371
17.000999999997795,0.11034969793147177,-0.07318270055710077
17.20099999999804,0.11237701570704982,-0.07410455091175229
17.400999999998284,0.11422111363008046,-0.07495489810857248
17.60099999999853,0.1162608609635341,-0.07582366313077456
17.800999999998773,0.1182179307343975,-0.07663719242624896
18.000999999999017,0.12016645554271489,-0.07743203123595559
18.20099999999926,0.12211617137156959,-0.07820284660027667
18.400999999999506,0.12409983129662808,-0.07897804680048147
18.60099999999975,0.12605314664460046,-0.07969648304354586
18.799999999999994,0.1280004355726415,-0.08038914111625917
19.000000000000238,0.13006863638042268,-0.08107260003129876
19.200000000000482,0.13203579385721967,-0.08171658494153466
19.400000000000727,0.13406085769557322,-0.0823425725586773
19.60000000000097,0.13602660866656582,-0.08290434305983699
19.800000000001216,0.13811733535071496,-0.08344209068800118
20.00000000000146,0.14021150146635994,-0.08393241636589174
