Time (s),X (m),Y (m)
0.001,7.024362446948994e-05,-0.0009692696795465074
0.20000000000000015,0.0008940428630347614,0.0002647397848643396
0.4000000000000003,0.001160618778028907,-0.0002376782864885227
0.6000000000000004,0.0017162527356930218,-1.5711844910547843e-05
0.8000000000000006,0.0023784378919250856,0.00021905097150903968
1.0000000000000007,0.0030804068371871464,0.0006025434854785054
1.2009999999999785,0.0036649757464962346,0.0006920171020949233
1.4009999999999565,0.004256302568048041,0.0009707587382401752
1.6009999999999345,0.004841673406753801,0.0013047898937582872
1.8009999999999124,0.005420392348642847,0.0015879394638261496
2.0009999999998906,0.006007554891464116,0.0018663049933107466
2.2009999999998686,0.0065999293173414205,0.0021596834378731456
2.4009999999998466,0.007191277793784588,0.0024635294092376484
2.6009999999998246,0.007777370104773809,0.0027817165502399864
2.8009999999998025,0.008357191602448664,0.003114773489854513
3.0009999999997805,0.008933929584248533,0.003458477924159908
3.2009999999997585,0.009508959836708623,0.003810505345456309
3.4009999999997365,0.01008108116918129,0.0041703577481882114
3.6009999999997144,0.010650554517542956,0.004538582395638853
3.8009999999996924,0.011216589893730176,0.004914763482355126
4.000999999999671,0.011778688379488427,0.005298470534986041
4.200999999999738,0.01233694623335495,0.005688820134489387
4.400999999999804,0.012891599540526861,0.006086040016727477
4.600999999999871,0.013442644645607094,0.006489796411920608
4.800999999999938,0.013989882983129165,0.0068993208452164945
5.000000000000004,0.014531254579348356,0.007315302786713467
5.200000000000071,0.015072121638507543,0.007733952778561034
5.400000000000138,0.015622123994081381,0.008157661958561017
5.600000000000205,0.01618202684377045,0.008586231487802395
5.800000000000272,0.016751615880113722,0.009019212094113447
6.000000000000338,0.017329973830875853,0.009456154975515222
6.200000000000405,0.017916201378621807,0.009896583397746524
6.400000000000472,0.01850991129326192,0.010340153716000328
6.600000000000539,0.01911021685265854,0.010786521261487459
6.800000000000606,0.01971611978938758,0.01123524813616663
7.000000000000672,0.020325612573649027,0.011685899952769814
7.200000000000739,0.020930075924370267,0.012136873605262603
7.400000000000806,0.02152874192658309,0.012588231975205907
7.600000000000873,0.02212162190592537,0.013040065764832045
7.8000000000009395,0.02270857385593227,0.013492297684322299
8.000000000001005,0.023289778750612583,0.01394476723968797
8.200000000000895,0.023865115848186572,0.014397364039936349
8.400000000000784,0.024434401651517355,0.014850022605200661
8.600000000000673,0.024997494060385456,0.015302616242207965
8.800000000000562,0.02555420052010519,0.015754942500844707
9.000000000000451,0.02610434079185688,0.01620691890405859
9.20000000000034,0.026647946690518516,0.01665857075202167
9.40000000000023,0.02718495025366979,0.017109892849393897
9.600000000000119,0.027715184930107044,0.0175608363980187
9.800000000000008,0.028238695869016263,0.018011225862697083
10.000999999999896,0.02875722518273889,0.018461698761035303
10.200999999999786,0.02926734948494844,0.018910766309721543
10.400999999999675,0.029769341346530285,0.019359194470416657
10.600999999999564,0.030255045778393823,0.019807821481053443
10.800999999999453,0.030722661272997616,0.020256946962894144
11.000999999999342,0.031172553472810248,0.02070659935716203
11.200999999999231,0.031604835259839655,0.021156753429612096
11.40099999999912,0.03201967001509769,0.021607355639527502
11.60099999999901,0.0324172012349104,0.022058409230379324
11.800999999998899,0.03279756977479953,0.022509918384326207
12.000999999998788,0.03316131660606836,0.02296187211159682
12.200999999998677,0.03350890461179111,0.023414205399831457
12.400999999998566,0.03383950140116405,0.023866951213463022
12.600999999998455,0.03414399818982006,0.024321076364118246
12.800999999998345,0.03441828316348513,0.024776599820843702
13.000999999998234,0.03466183170621266,0.025233123588012708
13.200999999998123,0.034873352551966524,0.02569055887892178
13.400999999998012,0.03505442550248262,0.026148827256046992
13.600999999997901,0.03520480667936859,0.026607809118853708
13.80099999999779,0.035328134820732965,0.02706752199115206
14.00099999999768,0.03542325799659515,0.027527851498261258
14.200999999997569,0.03549282448844454,0.027988680823996533
14.400999999997458,0.03553871215436637,0.028450053082829066
14.600999999997347,0.03555993526768054,0.028911945136514877
14.800999999997236,0.0355603513390524,0.029374374536683828
15.000999999997125,0.03554406924040948,0.029837366151911297
15.200999999997014,0.035513993491043616,0.03030105647074722
15.400999999996904,0.035472582270028086,0.030765456315286276
15.600999999996793,0.035421284054700256,0.031230554661686994
15.800999999996682,0.03536076685167238,0.031696416694031365
16.000999999996573,0.035293012322251606,0.03216312876905629
16.200999999996817,0.0352196414063538,0.032630849834407775
16.40099999999706,0.03514085225208468,0.03309952745297199
16.600999999997306,0.03505731300832039,0.03356915513023245
16.80099999999755,0.034969521984917026,0.03403973315777858
17.000999999997795,0.03487752666974208,0.034511263534062614
17.20099999999804,0.03478137732257445,0.03498373826826694
17.400999999998284,0.0346811659569573,0.035457182930607956
17.60099999999853,0.034576919643271885,0.03593165668356334
17.800999999998773,0.03446866804716659,0.0364071559390188
18.000999999999017,0.034356441520231325,0.036883672935536634
18.20099999999926,0.03424026483385897,0.037361157465366925
18.400999999999506,0.03412017271810771,0.03783958497134948
18.60099999999975,0.03399619254908619,0.03831894186351921
18.799999999999994,0.033869580275403065,0.038798582852220084
19.000000000000238,0.033737436068478704,0.03928004247436196
19.200000000000482,0.033601216975759386,0.0397625012459358
19.400000000000727,0.033460943758538454,0.040245994051264916
19.60000000000097,0.03331664045264962,0.04073052285642871
19.800000000001216,0.033168327226802,0.04121615729599541
20.00000000000146,0.03301602229789877,0.041703021131470126
