Time (s),X (m),Y (m)
0.001,0.0006899943756669482,-0.0009963285817120471
0.20000000000000015,0.0008798595753832323,0.0006915005821661332
0.4000000000000003,0.0032911020685614874,-0.0008232357283228783
0.6000000000000004,0.008734205936699527,0.009016858136419914
0.8000000000000006,0.018756751503581026,0.004899271996538306
1.0000000000000007,0.03264779840053199,0.011943068436095345
1.2009999999999785,0.04720464303867425,0.011700584869605443
1.4009999999999565,0.06070231105538373,0.01832464140002646
1.6009999999999345,0.07485963440980177,0.018492479132749217
1.8009999999999124,0.09034775958878677,0.024330032872215843
2.0009999999998906,0.10698101080215601,0.029916994026412225
2.2009999999998686,0.11886531837870302,0.009294478494828503
2.4009999999998466,0.13530146999908524,0.010392400544086529
2.6009999999998246,0.14979216170908516,0.0059009921234625074
2.8009999999998025,0.16270296240749524,0.006756374957241299
3.0009999999997805,0.18068757127226343,0.0038103009912858043
3.2009999999997585,0.20056364408667268,0.00874766360002763
3.4009999999997365,0.22527213448954678,0.014230773447686196
3.6009999999997144,0.24984948933064594,0.01754274302509376
3.8009999999996924,0.26687621181149357,0.01894966688160323
4.000999999999671,0.2838260075912103,0.01325268167567295
4.200999999999738,0.2965913333147471,0.008095914392561805
4.400999999999804,0.31025028469250837,-0.011645012956842744
4.600999999999871,0.3256507541578377,-0.02548165704670338
4.800999999999938,0.33834380200523395,-0.045833455021423525
5.000000000000004,0.35311980423233347,-0.058415129066704735
5.200000000000071,0.3742115154248222,-0.04894123262769104
5.400000000000138,0.3930971421851379,-0.04312712161538107
5.600000000000205,0.40781083739254215,-0.0332639049911808
5.800000000000272,0.42720967580138336,-0.033112959826904605
6.000000000000338,0.44539530635265323,-0.03584583990510196
6.200000000000405,0.4636830307870933,-0.030048011896665776
6.400000000000472,0.4822087367692256,-0.04869223826638583
6.600000000000539,0.5000914471941813,-0.05803406399761623
6.800000000000606,0.5178861121732836,-0.05321652080576898
7.000000000000672,0.539073254530625,-0.0737256960169379
7.200000000000739,0.5666600714185422,-0.07133054496434137
7.400000000000806,0.5881289348373337,-0.0569356403670304
7.600000000000873,0.609621884535725,-0.05047785634441727
7.8000000000009395,0.6292146805365165,-0.03711350282534373
8.000000000001005,0.650430230395287,-0.03479335175643563
8.200000000000895,0.6729704225455662,-0.033033194765406365
8.400000000000784,0.697053562698494,-0.03489572485680749
8.600000000000673,0.7252649985332105,-0.026971749727323472
8.800000000000562,0.7556009300935665,-0.028548352797710196
9.000000000000451,0.7810671058596727,-0.030144674181039628
9.20000000000034,0.80393230019649,-0.028535965393292433
9.40000000000023,0.8263998487181916,-0.037054752474844965
9.600000000000119,0.848923051886836,-0.03629159332019045
9.800000000000008,0.872078061529471,-0.0442881072566795
10.000999999999896,0.900552230053121,-0.04959199720619784
10.200999999999786,0.9353118553198655,-0.0524080776720569
10.400999999999675,0.9715190646287066,-0.05434473879571528
10.600999999999564,0.9950548540836976,-0.05789486787788149
10.800999999999453,1.0106356203394518,-0.06299604731829582
11.000999999999342,1.0261387781590836,-0.0733758173902006
11.200999999999231,1.0465103457419034,-0.09019294180711455
11.40099999999912,1.059960125881414,-0.11834468417927571
11.60099999999901,1.0809722300370193,-0.13105060870588078
11.800999999998899,1.1036265921014425,-0.13440266529768746
12.000999999998788,1.1287124787516796,-0.14030641000508948
12.200999999998677,1.145986066290377,-0.14269127611668478
12.400999999998566,1.1665423647202782,-0.14621622072003757
12.600999999998455,1.1933145530140314,-0.1438309804525673
12.800999999998345,1.2175325638259382,-0.15084822164819756
13.000999999998234,1.2403610663506393,-0.15388079318800965
13.200999999998123,1.264784890186817,-0.15248243321382327
13.400999999998012,1.2923588542847604,-0.15889692513269174
13.600999999997901,1.3205015320500062,-0.18051818929901234
13.80099999999779,1.350366200622974,-0.1877638128431153
14.00099999999768,1.3751571135490863,-0.19476672412145668
14.200999999997569,1.3954579931419115,-0.19832491825170515
14.400999999997458,1.4174404124338822,-0.19917571226837455
14.600999999997347,1.4364769601791942,-0.2093876898777865
14.800999999997236,1.456534560852524,-0.22907736140745177
15.000999999997125,1.47104454222152,-0.26171612435508584
15.200999999997014,1.4869971343086719,-0.28820448824738604
15.400999999996904,1.4989187401818913,-0.32403447435114147
15.600999999996793,1.5131024171524914,-0.3528201165196495
15.800999999996682,1.5288069988203004,-0.36921996529408013
16.000999999996573,1.544508392237191,-0.3997020012025314
16.200999999996817,1.5599498608577866,-0.4217203656976704
16.40099999999706,1.5757690993974731,-0.4480603552157908
16.600999999997306,1.587547626460155,-0.47402718262585863
16.80099999999755,1.5996927930191431,-0.4879677995835977
17.000999999997795,1.6064977042457451,-0.5087545708518678
17.20099999999804,1.6105739040093427,-0.5163947212351313
17.400999999998284,1.617765565429115,-0.5298094078827331
17.60099999999853,1.628877308320896,-0.5380542537806678
17.800999999998773,1.6426793854319908,-0.5430376651807528
18.000999999999017,1.6622146991217976,-0.5459636315984303
18.20099999999926,1.6833609157467582,-0.5552686467685112
18.400999999999506,1.709808144276473,-0.5615218895296898
18.60099999999975,1.734762796078714,-0.5721714075650225
18.799999999999994,1.763925064246936,-0.5779623552139039
19.000000000000238,1.789513304649831,-0.5945854619749834
19.200000000000482,1.8076705508812025,-0.6156878654530306
19.400000000000727,1.8258867141063668,-0.631505497023167
19.60000000000097,1.854768847847972,-0.6379640172056861
19.800000000001216,1.8787577709741519,-0.6363269342419914
20.00000000000146,1.8931791038462473,-0.6517528384718226
