Time (s),X (m),Y (m)
0.001,0.0005129279282107199,0.0010275501737767782
0.20000000000000015,0.0008671291807826807,-9.030851068913024e-05
0.4000000000000003,0.001690160431457841,0.0003762067685294717
0.6000000000000004,0.003960836269828597,0.00033333937308659275
0.8000000000000006,0.006761624310838987,0.0019847832796438918
1.0000000000000007,0.009472202637781202,0.003698657678446925
1.2009999999999785,0.013688381582241402,0.007096164305752035
1.4009999999999565,0.01750870405100451,0.011299082374635975
1.6009999999999345,0.02067098431088819,0.016276451595175354
1.8009999999999124,0.025541247567094597,0.01939632707378885
2.0009999999998906,0.029985287740724786,0.022835781322776076
2.2009999999998686,0.03403231569079218,0.02335545698265489
2.4009999999998466,0.039993402381357,0.025407748786866944
2.6009999999998246,0.0450099073661507,0.029673187221158588
2.8009999999998025,0.05132458147311701,0.030748214053865013
3.0009999999997805,0.05691007720461918,0.03602794718842507
3.2009999999997585,0.06108412536769289,0.03841166551196296
3.4009999999997365,0.06667329227158017,0.043263282482206705
3.6009999999997144,0.07039239160104098,0.04784142832415337
3.8009999999996924,0.07370568496277798,0.05009416792335569
4.000999999999671,0.07779678174921933,0.05419606018465801
4.200999999999738,0.08179693954952102,0.057652460237895026
4.400999999999804,0.08622152800971307,0.05981905994152699
4.600999999999871,0.09027601061691554,0.06168065698937546
4.800999999999938,0.09419264722153836,0.06377993607510482
5.000000000000004,0.09977915240563387,0.07024998861476824
5.200000000000071,0.10597946371241238,0.07428611008753387
5.400000000000138,0.1114137383620578,0.07810133184771621
5.600000000000205,0.11819232761172241,0.08520409666148919
5.800000000000272,0.1245161569456662,0.08882277440368674
6.000000000000338,0.13032738359224835,0.09314922999880203
6.200000000000405,0.1372342875566683,0.099406883675178
6.400000000000472,0.1438536296162858,0.10477885544114988
6.600000000000539,0.14925944616319672,0.1059436987945119
6.800000000000606,0.15614860731305621,0.11211151091914734
7.000000000000672,0.16268652230522376,0.11831683258705225
7.200000000000739,0.17049562652845582,0.12208335050537326
7.400000000000806,0.17681955977619754,0.12220324862312049
7.600000000000873,0.18318551760719984,0.1263264660066217
7.8000000000009395,0.18930176283486158,0.1295380446876642
8.000000000001005,0.19408527680349472,0.13312517708519814
8.200000000000895,0.19849618739965022,0.13419185779691215
8.400000000000784,0.2074976036909167,0.13426807630542464
8.600000000000673,0.2137062675523886,0.13639390467108548
8.800000000000562,0.22094897421283063,0.13958115630450416
9.000000000000451,0.22699737188544425,0.14251629715589959
9.20000000000034,0.2330180491925336,0.1466396376271103
9.40000000000023,0.23868635456485615,0.153218252549322
9.600000000000119,0.24151180583527562,0.1592754790379862
9.800000000000008,0.24485402939967163,0.16318022829340176
10.000999999999896,0.25126894625725993,0.1663712656140871
10.200999999999786,0.25808019231612017,0.17021860974809658
10.400999999999675,0.26155809953894665,0.1740891813001313
10.600999999999564,0.26357990352600685,0.17945356620384703
10.800999999999453,0.26241981824746824,0.1872653693732558
11.000999999999342,0.2647047083065024,0.19354748456844334
11.200999999999231,0.2664182189266444,0.19847273272009144
11.40099999999912,0.26742002110672974,0.20649888029608887
11.60099999999901,0.26674024701403615,0.2126394519769558
11.800999999998899,0.26432538626237434,0.22160287384164548
12.000999999998788,0.2637920044737064,0.22961877682595425
12.200999999998677,0.2591910271045668,0.23603927218939366
12.400999999998566,0.2590775209303755,0.24429234095900224
12.600999999998455,0.2563008619202224,0.2514942115853787
12.800999999998345,0.25421392407596033,0.2600989756256309
13.000999999998234,0.2570737682549619,0.2685369678173426
13.200999999998123,0.2553320405124,0.27708782689813105
13.400999999998012,0.25377627689173643,0.2859309312816392
13.600999999997901,0.25225443702102457,0.2952718886142073
13.80099999999779,0.24742034793075363,0.3035207448746733
14.00099999999768,0.24655906298126923,0.3111317708989068
14.200999999997569,0.2418257919671354,0.31832723892483816
14.400999999997458,0.23964582414196206,0.325028249417873
14.600999999997347,0.2392320078897594,0.3319452593198634
14.800999999997236,0.23654854314203475,0.33925088940771725
15.000999999997125,0.2341861430717276,0.34691507008771993
15.200999999997014,0.22713627942464304,0.3542406017859172
15.400999999996904,0.2266156428087193,0.36213687066742273
15.600999999996793,0.2247507290851643,0.3709801482765357
15.800999999996682,0.22372748548310692,0.37881334067266553
16.000999999996573,0.21825561786225528,0.3843967746067573
16.200999999996817,0.2138898163638119,0.3893380506885943
16.40099999999706,0.2094721090471576,0.3959381216400651
16.600999999997306,0.2028288780803318,0.4004273319599235
16.80099999999755,0.19844365163603267,0.40498254983067955
17.000999999997795,0.19413676716148767,0.4119301662049896
17.20099999999804,0.1852795983050146,0.41255578320637687
17.400999999998284,0.18116302134260173,0.4190151384938782
17.60099999999853,0.17517178580351128,0.42386514168270056
17.800999999998773,0.16914211246476665,0.42998397907835795
18.000999999999017,0.16299863788202254,0.43345114777595234
18.20099999999926,0.15470212686773696,0.43404186802065176
18.400999999999506,0.14800925122666042,0.4320792269643466
18.60099999999975,0.14030628401051662,0.4328018875457009
18.799999999999994,0.13432902380700867,0.43403715227285805
19.000000000000238,0.1261915403908202,0.43104454138697074
19.200000000000482,0.11661781100444904,0.4299777219085085
19.400000000000727,0.10830699438353986,0.427262234540339
19.60000000000097,0.09888367183512053,0.42457886453367477
19.800000000001216,0.08965761758507314,0.4275534221322741
20.00000000000146,0.0806493141817252,0.42642842364786443
