Time (s),X (m),Y (m)
0.001,0.0006021427340131596,0.0010158048217711127
0.20000000000000015,0.0008842978226286741,-1.2165023213507625e-05
0.4000000000000003,0.0018438933974346471,0.0007392090686106369
0.6000000000000004,0.003522086806091911,9.341468208720152e-05
0.8000000000000006,0.006134108622153754,0.005922998212198341
1.0000000000000007,0.010022411969114959,0.01088921587988536
1.2009999999999785,0.0162836491636744,0.008870297600355188
1.4009999999999565,0.020361383224047975,0.012072987531583187
1.6009999999999345,0.028077888174805655,0.011628902554843725
1.8009999999999124,0.032705937936366856,0.015482247506271075
2.0009999999998906,0.03862058749166773,0.023565977233020365
2.2009999999998686,0.04153572899931922,0.01839641926711337
2.4009999999998466,0.04821689130021972,0.018761958860276404
2.6009999999998246,0.05373957064761439,0.01815858497469587
2.8009999999998025,0.05938323001629075,0.02210037413560523
3.0009999999997805,0.06261174833226216,0.020984406600539185
3.2009999999997585,0.06261750307198197,0.015724468066305355
3.4009999999997365,0.07343009893214257,0.021185393077932754
3.6009999999997144,0.082643866750725,0.023884294165790743
3.8009999999996924,0.08901055423364997,0.024082995444924843
4.000999999999671,0.09785418376200615,0.02184544265349476
4.200999999999738,0.10583504797760893,0.024829177365478995
4.400999999999804,0.11387044044526347,0.02471530993622585
4.600999999999871,0.12427262720834767,0.02690824647312889
4.800999999999938,0.13692604432233138,0.029889036944046304
5.000000000000004,0.1458985960172747,0.032882677621212025
5.200000000000071,0.15160708105249557,0.03918023875792669
5.400000000000138,0.15749130322780125,0.03612179110796498
5.600000000000205,0.16695454646769056,0.03255097799561367
5.800000000000272,0.17950747479447496,0.03061254535857807
6.000000000000338,0.18793492014950408,0.028821003576109325
6.200000000000405,0.20142514325287159,0.03717875687433987
6.400000000000472,0.21812585113290117,0.04084931282760507
6.600000000000539,0.2295760802448011,0.03747432245499608
6.800000000000606,0.23928822310289422,0.0376737177606031
7.000000000000672,0.25411658512741975,0.04138101167437416
7.200000000000739,0.2651794826807478,0.04552448139264456
7.400000000000806,0.26832162459895265,0.04074169057130787
7.600000000000873,0.27372139445544574,0.04148682590935358
7.8000000000009395,0.28388111159689794,0.04034822570190092
8.000000000001005,0.29725307649676397,0.0437520891798959
8.200000000000895,0.30945019446799243,0.046069669053412615
8.400000000000784,0.32092074868717735,0.045920399814381535
8.600000000000673,0.33057203198657864,0.05120503086450345
8.800000000000562,0.3416742490254342,0.057016875078523904
9.000000000000451,0.35328189387626696,0.06470482141169592
9.20000000000034,0.36150982056129455,0.06468733654388825
9.40000000000023,0.37102278245105647,0.06474121035928018
9.600000000000119,0.3833336717870663,0.06864946675236688
9.800000000000008,0.39184271332099274,0.07207856975047576
10.000999999999896,0.40771664526892,0.08318258698017633
10.200999999999786,0.42185132043619633,0.08628215466675788
10.400999999999675,0.43309634149990595,0.08804363394706854
10.600999999999564,0.4415347443397485,0.09052062464036134
10.800999999999453,0.448818728651693,0.0900210479406808
11.000999999999342,0.4548119815528358,0.09122369811451837
11.200999999999231,0.46426635770787794,0.092068366868125
11.40099999999912,0.47466735711664515,0.09178921414561152
11.60099999999901,0.4866589439062724,0.09781910607035478
11.800999999998899,0.5011860417619428,0.10045046163312744
12.000999999998788,0.5098652859686843,0.09687194133194653
12.200999999998677,0.5164018631000865,0.09711475546147993
12.400999999998566,0.529648184070298,0.09819489267181651
12.600999999998455,0.5413246110581024,0.09841066605188027
12.800999999998345,0.5489251611341202,0.09756257517525002
13.000999999998234,0.5575249209467155,0.09820755317993976
13.200999999998123,0.5740108101619957,0.1032603441215168
13.400999999998012,0.5883430973175965,0.104237370439585
13.600999999997901,0.597256952469911,0.10389468481230497
13.80099999999779,0.6064146778388464,0.10941115409489062
14.00099999999768,0.6223360404730546,0.11311303805430513
14.200999999997569,0.6334572313892147,0.11331044627515653
14.400999999997458,0.6432838872543585,0.1149645559873332
14.600999999997347,0.6547431183847279,0.11989345528150784
14.800999999997236,0.6656790555780417,0.12573049395798677
15.000999999997125,0.6809788674049393,0.1282219210247705
15.200999999997014,0.6913890756017425,0.13328628173730306
15.400999999996904,0.7063645876109351,0.13657376113543923
15.600999999996793,0.7181836171443897,0.1342954416361461
15.800999999996682,0.7289506271917029,0.13767361734326064
16.000999999996573,0.7441814949410783,0.13889518598444903
16.200999999996817,0.7568360348310806,0.14124101967915362
16.40099999999706,0.7677104155938248,0.14396420251862904
16.600999999997306,0.7825524414356146,0.15277062596532737
16.80099999999755,0.7935695622423502,0.15267788584224307
17.000999999997795,0.8091841873188177,0.16176876993991246
17.20099999999804,0.823976427147892,0.17051379109224538
17.400999999998284,0.8409678866733373,0.18019335956246885
17.60099999999853,0.8490421598504974,0.18126435058696794
17.800999999998773,0.8596388917839946,0.18091641790595056
18.000999999999017,0.869911904363004,0.18062857561741127
18.20099999999926,0.8765879930336,0.18305186403867188
18.400999999999506,0.8831731016879951,0.18210542982201677
18.60099999999975,0.8969149729340975,0.18985401828834092
18.799999999999994,0.9118413477948816,0.19154278761612134
19.000000000000238,0.9300254351720266,0.19773330298793226
19.200000000000482,0.9425733164240835,0.20448370532249452
19.400000000000727,0.9515367494382565,0.2034063896317994
19.60000000000097,0.9617761762072988,0.2037917592998374
19.800000000001216,0.9702404266484054,0.20712052949622797
20.00000000000146,0.9836636902113274,0.20647982830526462
