Time (s),X (m),Y (m)
0.001,0.001267963995250183,0.0005916298972236683
0.20000000000000015,0.0008770531348333227,-5.112762797064606e-06
0.4000000000000003,0.0020531812010039824,0.0007264735835818979
0.6000000000000004,0.002096728716565324,-0.00013660884849236115
0.8000000000000006,0.003161312708082311,0.00041998128471681907
1.0000000000000007,0.005339458427657031,0.0018589456609028677
1.2009999999999785,0.00899865784183098,0.005076469259218907
1.4009999999999565,0.01282648769718914,0.00597920973413469
1.6009999999999345,0.016737287038082943,0.006596655201048457
1.8009999999999124,0.019805429282910007,0.008692953830212737
2.0009999999998906,0.02408162610783112,0.011429737797081951
2.2009999999998686,0.029572631180006435,0.015587005945036873
2.4009999999998466,0.03634753325657888,0.020707502361395066
2.6009999999998246,0.04196564081097622,0.023716456513175298
2.8009999999998025,0.046817114415630454,0.028754674516957523
3.0009999999997805,0.051221048352554525,0.030651489858544437
3.2009999999997585,0.05650349162303951,0.03213324797460108
3.4009999999997365,0.06187575119636177,0.03519169875731113
3.6009999999997144,0.06709590459223572,0.04187498555413103
3.8009999999996924,0.07280921168754302,0.04752145691990359
4.000999999999671,0.07570999690989397,0.046069494895501134
4.200999999999738,0.07915967403418103,0.046026621440976
4.400999999999804,0.08453031545780623,0.04749722123364859
4.600999999999871,0.08810591980246477,0.052182585544409715
4.800999999999938,0.09060625352847375,0.056640410284470234
5.000000000000004,0.09214194888493402,0.06190830374494024
5.200000000000071,0.09417687425622086,0.0665554694391871
5.400000000000138,0.09690885972975528,0.07081637010715772
5.600000000000205,0.09995799654354265,0.0752064666399996
5.800000000000272,0.10229010964359311,0.079517856127636
6.000000000000338,0.10537204133790994,0.07844670698787709
6.200000000000405,0.10888672261252187,0.08195342082358936
6.400000000000472,0.10907262685304975,0.08663705731081864
6.600000000000539,0.11169402707297427,0.0902049954513018
6.800000000000606,0.1149129418448251,0.09054334375384168
7.000000000000672,0.1168174317411435,0.08865426711626284
7.200000000000739,0.11960818709947069,0.09210869297742601
7.400000000000806,0.12087919468075024,0.09986375545490185
7.600000000000873,0.11950286093278932,0.10649279859734916
7.8000000000009395,0.11814289632955094,0.11326053306806225
8.000000000001005,0.11799468192508446,0.11681310585511974
8.200000000000895,0.11824503510445897,0.12271455295254301
8.400000000000784,0.11546449161726623,0.12874681560028334
8.600000000000673,0.11232547519854033,0.13802612930656558
8.800000000000562,0.10741952483505257,0.1460253361356418
9.000000000000451,0.1059619110242673,0.15312539372062878
9.20000000000034,0.10600623087061255,0.1575662789263403
9.40000000000023,0.10308675671983729,0.16629723070062596
9.600000000000119,0.0995548063258051,0.17484630114517896
9.800000000000008,0.09693334483239842,0.18100215120640673
10.000999999999896,0.0907827061478726,0.18771679576198236
10.200999999999786,0.08321708580295416,0.19598368180062878
10.400999999999675,0.0761977501370065,0.20278873762002317
10.600999999999564,0.06948170602118281,0.21045290008758422
10.800999999999453,0.06501845019944576,0.21868500443615707
11.000999999999342,0.058014835037201604,0.22623018575145143
11.200999999999231,0.04892932436265901,0.23229905456328087
11.40099999999912,0.04714784478317378,0.23801500796529862
11.60099999999901,0.03847492756829189,0.24277996844419433
11.800999999998899,0.03155943701132427,0.24706247910107537
12.000999999998788,0.027758561089700477,0.2537072311080645
12.200999999998677,0.025450471256063527,0.2592798291257135
12.400999999998566,0.01846282213393778,0.2647949651033281
12.600999999998455,0.012929948886804274,0.26773355104265295
12.800999999998345,0.006200342972287191,0.2712803170976703
13.000999999998234,-0.00023198954986317395,0.2747141613173072
13.200999999998123,-0.0005970737901222747,0.2789138420810165
13.400999999998012,-0.004190579546804564,0.2831101191393822
13.600999999997901,-0.01252007748722617,0.28413572349689364
13.80099999999779,-0.016668520971903304,0.2876414716495584
14.00099999999768,-0.023784845441364832,0.2889768979112153
14.200999999997569,-0.028149601074370884,0.2922939663731592
14.400999999997458,-0.03193984536439649,0.2952595483787514
14.600999999997347,-0.0371693009601091,0.2979626285147276
14.800999999997236,-0.043906306028626566,0.29926002450411926
15.000999999997125,-0.049172838933643874,0.29923950225854024
15.200999999997014,-0.05614080838178537,0.29820996678430245
15.400999999996904,-0.06443490843990157,0.29697287459424915
15.600999999996793,-0.07424289651574474,0.2920061928526494
15.800999999996682,-0.08232943570655514,0.288725798808533
16.000999999996573,-0.09043510200106122,0.2847671885498314
16.200999999996817,-0.09602034940403481,0.2824201727331023
16.40099999999706,-0.10511541652627347,0.2801843074623166
16.600999999997306,-0.11235711987628882,0.2779142342798308
16.80099999999755,-0.12266994379071988,0.2721604041506685
17.000999999997795,-0.13065725060625516,0.27146873173995045
17.20099999999804,-0.13897000864793413,0.2682260251820675
17.400999999998284,-0.14783161680960677,0.264122320821548
17.60099999999853,-0.15809623546466323,0.25645678062737476
17.800999999998773,-0.16647874324786724,0.2498786796990744
18.000999999999017,-0.17615661623943785,0.24187284897192676
18.20099999999926,-0.18648382947346112,0.23785059591826377
18.400999999999506,-0.1968421291987563,0.2338827031784522
18.60099999999975,-0.20569664924767594,0.22634704940272177
18.799999999999994,-0.2131726676321731,0.21823167392194548
19.000000000000238,-0.2187369006671336,0.21110944056450107
19.200000000000482,-0.22428398271104813,0.20843086166000932
19.400000000000727,-0.23166635263468338,0.2040741291586294
19.60000000000097,-0.23710302464048114,0.20108916473793503
19.800000000001216,-0.24322255015279035,0.1973912282980384
20.00000000000146,-0.24826468153309447,0.19348086629952427
