Time (s),X (m),Y (m)
0.001,0.0006021427340131596,-0.0010158048217711122
0.20000000000000015,0.0008180400317620841,0.00027429128878131214
0.4000000000000003,0.0012593079765800324,-0.0003596100411956852
0.6000000000000004,0.0017451297102670275,-0.00035032512421042907
0.8000000000000006,0.0023342462651558273,-0.0004940226576510279
1.0000000000000007,0.0028992439855868835,-0.0004006460167136295
1.2009999999999785,0.003474261975459622,-0.0006698591584389699
1.4009999999999565,0.003968805305271233,-0.000797735830421268
1.6009999999999345,0.004434685210098566,-0.0009132950540592888
1.8009999999999124,0.004916188830714417,-0.0011120179356156137
2.0009999999998906,0.005412188640799355,-0.001331274214620353
2.2009999999998686,0.005913037997830913,-0.0015576756325783932
2.4009999999998466,0.0064129440921020095,-0.0017989232747105718
2.6009999999998246,0.006906470441330387,-0.0020508925826559173
2.8009999999998025,0.00739312345438359,-0.002313666145128769
3.0009999999997805,0.007877210049593394,-0.0025876075853053476
3.2009999999997585,0.008360870626024442,-0.002872158498080771
3.4009999999997365,0.008844414969151393,-0.0031667186140829856
3.6009999999997144,0.00932711542584602,-0.0034709408302947046
3.8009999999996924,0.009808704248985247,-0.003784233778426123
4.000999999999671,0.01028890083829341,-0.00410620938684963
4.200999999999738,0.010767808366694713,-0.004436602570950453
4.400999999999804,0.011245961775617567,-0.004775505606656549
4.600999999999871,0.011723607634342168,-0.005122313354340472
4.800999999999938,0.01220087409764252,-0.005476569891807929
5.000000000000004,0.01267742733440395,-0.005840559543779159
5.200000000000071,0.01315394459113363,-0.006209419590767971
5.400000000000138,0.013630087409140037,-0.006585340901476953
5.600000000000205,0.014105820077390044,-0.00696809183190941
5.800000000000272,0.014580548838796904,-0.00735713145180824
6.000000000000338,0.015053601680742969,-0.00775199459973922
6.200000000000405,0.015525227739672213,-0.008152578522686338
6.400000000000472,0.015995690559002844,-0.008558734543380674
6.600000000000539,0.01646559579277132,-0.00897015583569883
6.800000000000606,0.016934595145121193,-0.009386657829222404
7.000000000000672,0.01740235364975581,-0.009808059448430358
7.200000000000739,0.017868856989887313,-0.010234192419620572
7.400000000000806,0.018334090691732696,-0.010664796479618259
7.600000000000873,0.018798043780825925,-0.011099717600506728
7.8000000000009395,0.019261131095216967,-0.011538850536425295
8.000000000001005,0.019723753064412004,-0.011982104942826753
8.200000000000895,0.020185498751696774,-0.012429290067672561
8.400000000000784,0.02064755472173163,-0.012880557172899473
8.600000000000673,0.021113517119311646,-0.013336974883387297
8.800000000000562,0.021584499292358957,-0.013798777114478737
9.000000000000451,0.022060688458961173,-0.01426597989743756
9.20000000000034,0.022542575120414673,-0.014738703652707753
9.40000000000023,0.02303063457321522,-0.01521687140677146
9.600000000000119,0.023525175141513394,-0.015700445829775544
9.800000000000008,0.02402634391789023,-0.016189392398352504
10.000999999999896,0.024534175072240264,-0.01668224724236265
10.200999999999786,0.025048991334886885,-0.01718173624955793
10.400999999999675,0.02557099086315977,-0.01768649220944533
10.600999999999564,0.026100628050797815,-0.01819659460175917
10.800999999999453,0.02663801042205485,-0.018712043682194222
11.000999999999342,0.02718313494369219,-0.019232898886058808
11.200999999999231,0.027736129328142563,-0.019758959820863477
11.40099999999912,0.028296835863230403,-0.02029009848179397
11.60099999999901,0.02886515730258431,-0.020826232359705436
11.800999999998899,0.02944119109474301,-0.02136721932025608
12.000999999998788,0.030025090955056132,-0.021912815679421067
12.200999999998677,0.030616968059926832,-0.022462626055557836
12.400999999998566,0.031216838804299776,-0.023016797340368895
12.600999999998455,0.03182464496446873,-0.023575358222250504
12.800999999998345,0.032440309971182045,-0.02413831268148499
13.000999999998234,0.033063742415807715,-0.024705252727310174
13.200999999998123,0.033694821994215744,-0.025275969935751607
13.400999999998012,0.03433332698807758,-0.025850234345429237
13.600999999997901,0.03497928174703801,-0.026427733331552482
13.80099999999779,0.035632619908314365,-0.02700816986870134
14.00099999999768,0.03629326730061563,-0.02759141897263066
14.200999999997569,0.03696143004160225,-0.028177342608379854
14.400999999997458,0.03763701906835131,-0.028765725101069107
14.600999999997347,0.0383198655687544,-0.0293557878154626
14.800999999997236,0.03900973974812707,-0.02994638074334805
15.000999999997125,0.039706381744365415,-0.030536840159125816
15.200999999997014,0.040409814508618934,-0.031127145188517474
15.400999999996904,0.04111994855595064,-0.03171730564672171
15.600999999996793,0.04183662076864758,-0.03230719044829487
15.800999999996682,0.04255959580367583,-0.03289682978570076
16.000999999996573,0.043288698833728836,-0.033485735856145185
16.200999999996817,0.04402373935119951,-0.03407340899582876
16.40099999999706,0.04476450145224361,-0.03465935484759734
16.600999999997306,0.04551036470613704,-0.03524215070287232
16.80099999999755,0.046260236861160084,-0.03582091011074122
17.000999999997795,0.0470138921194171,-0.03639562979589888
17.20099999999804,0.047771044950402956,-0.0369663467775567
17.400999999998284,0.04853158877095882,-0.037533116126602435
17.60099999999853,0.04929536218659928,-0.038095925230188885
17.800999999998773,0.050062077742772625,-0.03865486036834749
18.000999999999017,0.05083123659410131,-0.039209703968894845
18.20099999999926,0.051602571548361745,-0.03976034995264979
18.400999999999506,0.052375861333413154,-0.040306909485886125
18.60099999999975,0.053150846710526035,-0.040849373577514184
18.799999999999994,0.05392445052611704,-0.04138520498163702
19.000000000000238,0.054701809816739166,-0.0419197452367835
19.200000000000482,0.055480060723590977,-0.04245041542772533
19.400000000000727,0.05625947475081664,-0.042977049803029514
19.60000000000097,0.05704011375940056,-0.04349946965689987
19.800000000001216,0.05782218106129685,-0.044017552757191124
20.00000000000146,0.058605378136873,-0.04453126174785388
