Time (s),X (m),Y (m)
0.001,0.00024391513958915793,0.0010158048217711127
0.20000000000000015,0.001035845874636904,-0.0010832901545826908
0.4000000000000003,0.003604032969103271,0.0008564257611260901
0.6000000000000004,0.005099498279358218,0.0013616530195264837
0.8000000000000006,0.008172780059553837,0.0024507207118501114
1.0000000000000007,0.017910679290639168,0.0020035169348061564
1.2009999999999785,0.030058702421242936,0.0015044667781872623
1.4009999999999565,0.04464594645040902,-0.004384755426187402
1.6009999999999345,0.06414569221504778,-0.017939568339942716
1.8009999999999124,0.08266230561502855,-0.028064168761823476
2.0009999999998906,0.10285864850778567,-0.04105348735675846
2.2009999999998686,0.11844010612837177,-0.051092156817046014
2.4009999999998466,0.13441438691346902,-0.05512350504213658
2.6009999999998246,0.15214756350250175,-0.058195129528173406
2.8009999999998025,0.17329178166597167,-0.04042950048682868
3.0009999999997805,0.19737247215918402,-0.03942947857990115
3.2009999999997585,0.21381594884588082,-0.043781663298291175
3.4009999999997365,0.22702530420449155,-0.06229717117820148
3.6009999999997144,0.24032376528563093,-0.07404266712074653
3.8009999999996924,0.25486953631335174,-0.07316086638234759
4.000999999999671,0.2719550049465925,-0.0715948064993379
4.200999999999738,0.2892285997948534,-0.06801684384251544
4.400999999999804,0.30515527338767545,-0.06937511936664906
4.600999999999871,0.3251342418287881,-0.06084581882887391
4.800999999999938,0.34648636679844147,-0.06949315369350789
5.000000000000004,0.3677596927863786,-0.06698845445021627
5.200000000000071,0.3908556800315527,-0.05350532277436286
5.400000000000138,0.416401044135283,-0.04878236987285793
5.600000000000205,0.43805207207622365,-0.056682834823401966
5.800000000000272,0.45630895141562977,-0.06784851341275454
6.000000000000338,0.47278059101172554,-0.0811573365551024
6.200000000000405,0.4869208228063493,-0.10547648984098136
6.400000000000472,0.5013548207973124,-0.13154363215548132
6.600000000000539,0.5119516749830427,-0.15847258479113863
6.800000000000606,0.49837978857118903,-0.1826565794767801
7.000000000000672,0.4855815495963396,-0.20832270903585554
7.200000000000739,0.4703948898603029,-0.233218697191084
7.400000000000806,0.4508202687544509,-0.253943410893506
7.600000000000873,0.4302748983893306,-0.2597568218632629
7.8000000000009395,0.4076801639600684,-0.27293199201208956
8.000000000001005,0.38750788342783526,-0.27055518632833997
8.200000000000895,0.36372276295501693,-0.2777283617903884
8.400000000000784,0.3359601390256635,-0.2908177424400214
8.600000000000673,0.3031542639195438,-0.3014744370915801
8.800000000000562,0.2689557728531042,-0.3082261493990494
9.000000000000451,0.23497901901208437,-0.32436809124467386
9.20000000000034,0.20534528067302774,-0.32809833952092454
9.40000000000023,0.18116769734991436,-0.3234523175852284
9.600000000000119,0.1580367935223067,-0.30058381993525113
9.800000000000008,0.1302344260783391,-0.2863308399237694
10.000999999999896,0.10093459324575471,-0.2907032459019184
10.200999999999786,0.07602269674702304,-0.30956182537779176
10.400999999999675,0.047483261946550955,-0.3157203476924729
10.600999999999564,0.011245291260587988,-0.31275491710872944
10.800999999999453,-0.026226684721920777,-0.30474299511912795
11.000999999999342,-0.06734319043504579,-0.3011121829496641
11.200999999999231,-0.09199771407787173,-0.2908566782392106
11.40099999999912,-0.0971350434437922,-0.2737526370896568
11.60099999999901,-0.10596201210288,-0.2500735190784181
11.800999999998899,-0.11464024908741308,-0.2244648076600876
12.000999999998788,-0.13162281156674535,-0.19872569600492557
12.200999999998677,-0.13919889051608808,-0.1702700470320375
12.400999999998566,-0.13128454465150147,-0.14381787388266257
12.600999999998455,-0.13652385628172575,-0.11685797721309896
12.800999999998345,-0.16198028582686097,-0.08294293681934982
13.000999999998234,-0.18070966921929374,-0.04680777292752864
13.200999999998123,-0.1824301512578535,-0.010313308989096952
13.400999999998012,-0.17459437727818178,0.019860676738781828
13.600999999997901,-0.16207990997246563,0.04811758468067237
13.80099999999779,-0.14419903554981708,0.07577982747984645
14.00099999999768,-0.12827918466334257,0.10356980446738587
14.200999999997569,-0.1189735271447679,0.1352526258352986
14.400999999997458,-0.10183788405649233,0.164971707612559
14.600999999997347,-0.07102148906923673,0.1840330205386676
14.800999999997236,-0.0342722455837106,0.1999609460226295
15.000999999997125,-0.0089125900097646,0.22124768361163305
15.200999999997014,0.022143210093108462,0.2263649073226091
15.400999999996904,0.051903530361119686,0.24053269944494837
15.600999999996793,0.07660713818918831,0.2630593545744872
15.800999999996682,0.09818755044180066,0.2850020425208141
16.000999999996573,0.12112930294489829,0.30293444647610623
16.200999999996817,0.14713178218560424,0.32300966593018365
16.40099999999706,0.17439170975138438,0.3404712242966064
16.600999999997306,0.2027794557696537,0.34820161808714156
16.80099999999755,0.23309309056517885,0.3305089774052491
17.000999999997795,0.2640040414666697,0.3163315162131451
17.20099999999804,0.2951553159730691,0.30736954686246976
17.400999999998284,0.32932368575595833,0.29843479092115205
17.60099999999853,0.35194361761246035,0.2784243597790423
17.800999999998773,0.3621464781192777,0.24989945453403892
18.000999999999017,0.3835592416160752,0.24996261832910013
18.20099999999926,0.40759982162165226,0.2418643418978323
18.400999999999506,0.4327335811968427,0.2246779806835371
18.60099999999975,0.4601521610334236,0.2119489709935824
18.799999999999994,0.4892010628699343,0.20854284292376946
19.000000000000238,0.521890187543109,0.20844161342077114
19.200000000000482,0.5527586624215525,0.1988028975786899
19.400000000000727,0.580880448825264,0.18738502890187073
19.60000000000097,0.5949176608734789,0.1625825078066731
19.800000000001216,0.5988706829416328,0.13019627096777345
20.00000000000146,0.5892591419126249,0.10372158994904795
