Time (s),X (m),Y (m)
0.001,0.0006899943756669482,-0.0009963285817120471
0.20000000000000015,0.0009484351291255972,-0.00020729013670560636
0.4000000000000003,0.0017981914461772937,4.0152389442696446e-05
0.6000000000000004,0.003145563069322161,-0.0021413648618006566
0.8000000000000006,0.0046942539030657635,0.00016590660507188225
1.0000000000000007,0.008270423122040719,0.00487894909930162
1.2009999999999785,0.013617784614013423,0.010872825335827159
1.4009999999999565,0.020124781598093854,0.009414314413660611
1.6009999999999345,0.0267428605308846,0.010245330212747688
1.8009999999999124,0.030551287820199422,0.013185432706880551
2.0009999999998906,0.03772203549235635,0.013651665608145534
2.2009999999998686,0.044492811886691394,0.015691840723868283
2.4009999999998466,0.04979221080464682,0.018540272726034097
2.6009999999998246,0.05641360478410558,0.018795203134993173
2.8009999999998025,0.06127167565938957,0.02123927595483799
3.0009999999997805,0.06784893923052616,0.02350750236182562
3.2009999999997585,0.07548755661628555,0.021354064114479373
3.4009999999997365,0.08207482765596973,0.019196941422191457
3.6009999999997144,0.09126801769660285,0.02069718994311856
3.8009999999996924,0.10069575541277073,0.024448757677636743
4.000999999999671,0.1067271716029993,0.024811397773699662
4.200999999999738,0.11474423508164595,0.01684301847082304
4.400999999999804,0.1259429753059688,0.017309309336032017
4.600999999999871,0.13561774458781556,0.014655488573299255
4.800999999999938,0.1432178573072898,0.00728988015199094
5.000000000000004,0.15135241611241265,-0.003439023760314698
5.200000000000071,0.16047039958551887,-0.005543120422734694
5.400000000000138,0.17008464234911203,-0.009310733887688447
5.600000000000205,0.17889369827525747,-0.010187065530236582
5.800000000000272,0.18590585100964832,-0.00229246530651234
6.000000000000338,0.1927210458402581,-0.004091840861177665
6.200000000000405,0.1990306481614659,-0.00740667649834295
6.400000000000472,0.20532528253155646,-0.018076460970585014
6.600000000000539,0.21500710711127946,-0.027613826543087916
6.800000000000606,0.22808688449917414,-0.026622864305340447
7.000000000000672,0.23444836862617033,-0.029151982805998244
7.200000000000739,0.23781695213206402,-0.033289838986374935
7.400000000000806,0.24192610929368974,-0.03834373402348425
7.600000000000873,0.25005271635417814,-0.039358495113427656
7.8000000000009395,0.25966649140562464,-0.04395098994491016
8.000000000001005,0.26829639757454254,-0.04562517414548786
8.200000000000895,0.27761922803929356,-0.057610828634790764
8.400000000000784,0.2890469171622975,-0.06516660481254806
8.600000000000673,0.3002614535357859,-0.06461216373982209
8.800000000000562,0.3112163857496503,-0.06700323914419833
9.000000000000451,0.32114501073399293,-0.0720201071414595
9.20000000000034,0.33130837725768303,-0.07774065069603821
9.40000000000023,0.34153144714647526,-0.0768994774251705
9.600000000000119,0.34895802737968434,-0.08037532853651747
9.800000000000008,0.358588812972957,-0.08441724626412371
10.000999999999896,0.367615912109121,-0.08608220024976662
10.200999999999786,0.3756558331278668,-0.09606876895245184
10.400999999999675,0.3792223750168214,-0.10492061485290016
10.600999999999564,0.3866188720105268,-0.10969069705956662
10.800999999999453,0.3894854136851343,-0.12315503809900874
11.000999999999342,0.3929647683276136,-0.13261576332691072
11.200999999999231,0.4031784507490111,-0.13654785632683786
11.40099999999912,0.41284006274526697,-0.14164970316545109
11.60099999999901,0.4188976269217941,-0.15103985030370357
11.800999999998899,0.4250418130357844,-0.15040829752981297
12.000999999998788,0.4335238570742454,-0.14902254115516672
12.200999999998677,0.44498386827382236,-0.1460795061611383
12.400999999998566,0.4546609928605702,-0.15088603451001978
12.600999999998455,0.46260022812930546,-0.15742659458784758
12.800999999998345,0.46900125603734105,-0.16278596208743612
13.000999999998234,0.4723240227021146,-0.16524748123659644
13.200999999998123,0.4751444387500467,-0.16790541462537326
13.400999999998012,0.48127111029123215,-0.16709153244045288
13.600999999997901,0.48702152068148347,-0.17049261066563234
13.80099999999779,0.4944618853986058,-0.17204840162626198
14.00099999999768,0.5044372759320244,-0.175652503023501
14.200999999997569,0.5136808317444871,-0.18059774862730651
14.400999999997458,0.51880145163492,-0.19427708754720696
14.600999999997347,0.5251818252839392,-0.2009158599625524
14.800999999997236,0.532399359840245,-0.20818896496681716
15.000999999997125,0.5453035346407878,-0.21135483709518182
15.200999999997014,0.556400039567476,-0.2128036721122809
15.400999999996904,0.5649626546624524,-0.21518855867461348
15.600999999996793,0.5722001389788633,-0.22381797603190612
15.800999999996682,0.5812117508145993,-0.2224804053502605
16.000999999996573,0.5918738393816645,-0.22905598894827306
16.200999999996817,0.5980812219620582,-0.23757473193571282
16.40099999999706,0.6027645938249677,-0.2419010538859691
16.600999999997306,0.6117234598542718,-0.24469109601492336
16.80099999999755,0.619704490722473,-0.24913377127479822
17.000999999997795,0.62995321488759,-0.2548689824892741
17.20099999999804,0.637994587106467,-0.25753438820596447
17.400999999998284,0.6452975941047004,-0.26164854166282864
17.60099999999853,0.6510812590935671,-0.2687309882243816
17.800999999998773,0.6606909645343454,-0.27341603138940357
18.000999999999017,0.6685990665899176,-0.27371634399839984
18.20099999999926,0.6786884273633912,-0.276175053797847
18.400999999999506,0.6858251777849675,-0.2792136130019412
18.60099999999975,0.694301134692622,-0.2838704625842388
18.799999999999994,0.7003046912947924,-0.28354917771090005
19.000000000000238,0.7052107391398825,-0.2868096653479549
19.200000000000482,0.7133972451915548,-0.28685162663461417
19.400000000000727,0.723250499583808,-0.28798445732111194
19.60000000000097,0.7337730850817311,-0.2881632129843993
19.800000000001216,0.7457921371490316,-0.28831420953915526
20.00000000000146,0.7559615381204958,-0.29009096902342935
