Time (s),X (m),Y (m)
0.001,0.0014505791105779379,-8.989899140956135e-05
0.20000000000000015,0.0006776396367769064,-3.7467188257616946e-05
0.4000000000000003,0.002296112627736933,-0.00023773148928452046
0.6000000000000004,0.0030629390189570722,0.0004999838674063253
0.8000000000000006,0.00914710469143858,0.0009993418362405537
1.0000000000000007,0.022443704296165747,0.0007316124661508711
1.2009999999999785,0.036619400230984436,-0.0030080512617328757
1.4009999999999565,0.03958876165411365,-0.004822149967743819
1.6009999999999345,0.04581407730180072,-0.008955206057309907
1.8009999999999124,0.05162120890115493,-0.009261883329142176
2.0009999999998906,0.055845634542004606,-0.005917038530847996
2.2009999999998686,0.0627741479917697,-0.004084005123157185
2.4009999999998466,0.0766401437385021,-0.003745403785139608
2.6009999999998246,0.08464686109167595,-0.005178494434666854
2.8009999999998025,0.08719320940460726,-0.009923094732545873
3.0009999999997805,0.09645412831934044,-0.01515390088248309
3.2009999999997585,0.1028389398968909,-0.016277660952749854
3.4009999999997365,0.11516441247239208,-0.02042309892329338
3.6009999999997144,0.12633692781612993,-0.022392033779425693
3.8009999999996924,0.12711047090955035,-0.02425203056767995
4.000999999999671,0.1371840904808185,-0.024432810984482908
4.200999999999738,0.15311129860021408,-0.030774323104315573
4.400999999999804,0.16047420235945647,-0.03365268744280493
4.600999999999871,0.17071396167422803,-0.040750628448387866
4.800999999999938,0.18265049666402644,-0.04788301470901623
5.000000000000004,0.2005577662343145,-0.05507903800450619
5.200000000000071,0.21576929051597157,-0.060337898732524604
5.400000000000138,0.2286135893505778,-0.06401229431888288
5.600000000000205,0.2464301259374976,-0.07333057855817326
5.800000000000272,0.26638433980479825,-0.08146784960135876
6.000000000000338,0.28303501765897326,-0.09248018203140448
6.200000000000405,0.2980173967572248,-0.10397408071923588
6.400000000000472,0.31608513018356804,-0.1143793085255931
6.600000000000539,0.3343111958288865,-0.12297912705367312
6.800000000000606,0.3516168941799558,-0.1320907466535463
7.000000000000672,0.36730429121325936,-0.14149949344348708
7.200000000000739,0.3818243984873739,-0.1502900429385455
7.400000000000806,0.40442206100589406,-0.1638387290439633
7.600000000000873,0.42215973129373413,-0.1768446344055742
7.8000000000009395,0.43688527301320457,-0.1819373297365022
8.000000000001005,0.4558606244045582,-0.19203454898556682
8.200000000000895,0.4744949218540729,-0.20317999276960083
8.400000000000784,0.49009700230572545,-0.21538236323462562
8.600000000000673,0.5093290483259462,-0.22637540510312018
8.800000000000562,0.5295586031697936,-0.24097237899349652
9.000000000000451,0.5494263011510548,-0.25406269709317364
9.20000000000034,0.5685338943215593,-0.2663661094565615
9.40000000000023,0.5884169175719505,-0.2796967711313628
9.600000000000119,0.6074915814944468,-0.2918892721501999
9.800000000000008,0.6265818643439108,-0.30266725909267433
10.000999999999896,0.6451616337259479,-0.31403599155382633
10.200999999999786,0.6591501066735803,-0.3250310588008156
10.400999999999675,0.6760781825730333,-0.33419533425096065
10.600999999999564,0.6925137626562718,-0.34474914759692715
10.800999999999453,0.7046731349846025,-0.3477118337778327
11.000999999999342,0.7222542199979165,-0.35129459381743944
11.200999999999231,0.7455530004809386,-0.3661657951442033
11.40099999999912,0.7676025527198354,-0.38300706105771537
11.60099999999901,0.7854650455437616,-0.39866797277795946
11.800999999998899,0.8042782077471746,-0.4108166159012589
12.000999999998788,0.8222567462922256,-0.41784589275950684
12.200999999998677,0.8432961926667173,-0.4292297090298053
12.400999999998566,0.8584257355896401,-0.4421262762260183
12.600999999998455,0.8755723351692267,-0.45671315168741344
12.800999999998345,0.8902349238254124,-0.47201711395922424
13.000999999998234,0.90293447698885,-0.48142541355678053
13.200999999998123,0.9168257292628544,-0.4870752291260497
13.400999999998012,0.9336250375927342,-0.506320514602546
13.600999999997901,0.948821936949357,-0.5293575855028733
13.80099999999779,0.9621086596066709,-0.5487547163022948
14.00099999999768,0.9703899613261915,-0.5657335599342475
14.200999999997569,0.9720107314096045,-0.5798932950669032
14.400999999997458,0.974259750491164,-0.5961474130702316
14.600999999997347,0.9763620311015543,-0.6119206305282808
14.800999999997236,0.9785114033452207,-0.6338257467948001
15.000999999997125,0.976386566291237,-0.6559933618822675
15.200999999997014,0.9741798896559848,-0.6837844519878952
15.400999999996904,0.9690623131437706,-0.70246619114002
15.600999999996793,0.9617180507403468,-0.7202643763668295
15.800999999996682,0.9543674388203988,-0.7433184851500084
16.000999999996573,0.9444965978354323,-0.7676572339683799
16.200999999996817,0.9326126139003588,-0.7893558397178417
16.40099999999706,0.9231263659194829,-0.8095928031303153
16.600999999997306,0.9138035541052025,-0.829088737914019
16.80099999999755,0.9059280162259373,-0.8509309956819032
17.000999999997795,0.8937997828260645,-0.8743557163694403
17.20099999999804,0.8845423752274443,-0.8919595589508192
17.400999999998284,0.8755146761080354,-0.9078160899702149
17.60099999999853,0.861347510550996,-0.9320233561536202
17.800999999998773,0.845752872111261,-0.9570134241162296
18.000999999999017,0.8285674299662039,-0.9769187488621052
18.20099999999926,0.8166221419143244,-0.9976941969130884
18.400999999999506,0.807039261206033,-1.0143782907521148
18.60099999999975,0.7935548979891736,-1.0366344404953867
18.799999999999994,0.7812217530130773,-1.0606366019679214
19.000000000000238,0.7736593503905167,-1.0766397994317765
19.200000000000482,0.7640168485365312,-1.0982454769644532
19.400000000000727,0.7561015436232978,-1.1163629501923258
19.60000000000097,0.7475109514871845,-1.1361954061759327
19.800000000001216,0.7385152529993709,-1.1554098278065221
20.00000000000146,0.7336684126499882,-1.1783983438985177
