Time (s),X (m),Y (m)
0.001,0.0014193575185132074,0.0002669654388657892
0.20000000000000015,0.0008927734647710233,-8.098250412262687e-05
0.4000000000000003,0.0013268695414084602,-1.45652819301119e-05
0.6000000000000004,0.002005450365949546,0.00012999832580611785
0.8000000000000006,0.0028869816979036223,0.0004160545643229682
1.0000000000000007,0.0037796218318211024,0.0007009846672449662
1.2009999999999785,0.0048692030448696235,0.0010356798898879728
1.4009999999999565,0.005799769298561053,0.0013141940530290131
1.6009999999999345,0.006689257380801682,0.0015852045937142837
1.8009999999999124,0.007649207773185029,0.0018920197501414607
2.0009999999998906,0.008701979065917994,0.0022395634802296386
2.2009999999998686,0.009814129072704876,0.002615357349104216
2.4009999999998466,0.010957612221780167,0.0030085009138054297
2.6009999999998246,0.012114572706120747,0.0034136414460212783
2.8009999999998025,0.013286323451349778,0.0038335086614801352
3.0009999999997805,0.014483247011148207,0.004272816812782863
3.2009999999997585,0.01571265952618281,0.004736469365815987
3.4009999999997365,0.01697662976021643,0.005225263850532714
3.6009999999997144,0.018271503952752743,0.0057373825369840415
3.8009999999996924,0.019594158952876552,0.006271376866119772
4.000999999999671,0.02094254873793345,0.0068264151026192574
4.200999999999738,0.022316349618755716,0.007402489499974173
4.400999999999804,0.023715771781884748,0.008000049932265411
4.600999999999871,0.025141054576662106,0.008619302855401379
4.800999999999938,0.02659181093254669,0.009260243558530324
5.000000000000004,0.028042423741553482,0.009913376398523589
5.200000000000071,0.029541828749235256,0.010597430132700002
5.400000000000138,0.031064326813349974,0.011302755605903837
5.600000000000205,0.032609831649588965,0.012029542738801061
5.800000000000272,0.034178150795903806,0.012777934095045568
6.000000000000338,0.03576899207473678,0.013548027797613871
6.200000000000405,0.037382008370507126,0.014339927958165495
6.400000000000472,0.03901681312613471,0.015153873112437226
6.600000000000539,0.04067295919620745,0.015989824185874985
6.800000000000606,0.04235017218955477,0.01684783359390575
7.000000000000672,0.04404796999274905,0.017728118811760115
7.200000000000739,0.045765738110583834,0.018630878182851626
7.400000000000806,0.0475029792426654,0.019556514012312846
7.600000000000873,0.04929782999499043,0.020513123623357225
7.8000000000009395,0.05115199027887343,0.021488341566867648
8.000000000001005,0.05305578431695359,0.02252359950741018
8.200000000000895,0.05499750325869166,0.023594444284593643
8.400000000000784,0.057058277367213556,0.024685503030913908
8.600000000000673,0.05913120810237922,0.02580890754774767
8.800000000000562,0.0611496731139179,0.02696067875758735
9.000000000000451,0.0632974099095065,0.028158749018297985
9.20000000000034,0.0654552225088482,0.029389493401742878
9.40000000000023,0.06766666525418927,0.03066584297223995
9.600000000000119,0.06978240916554677,0.03194269362707156
9.800000000000008,0.07204879789637508,0.03329643616630168
10.000999999999896,0.07433075984981609,0.03469307873340808
10.200999999999786,0.07661295526627743,0.03610564179785149
10.400999999999675,0.07885774549010788,0.03753204183926873
10.600999999999564,0.08112711865476106,0.038992366579731465
10.800999999999453,0.08334244258215953,0.04048810525916648
11.000999999999342,0.0857084969804007,0.042056615126906366
11.200999999999231,0.08794422059671451,0.043602159032578525
11.40099999999912,0.09022511429474775,0.04517894445031127
11.60099999999901,0.09250667935067224,0.04681663579601121
11.800999999998899,0.09475407989381404,0.0484371104182537
12.000999999998788,0.09705970891645459,0.0501335321711141
12.200999999998677,0.09928924997935207,0.051817607832785086
12.400999999998566,0.10161977415983975,0.053577459579288576
12.600999999998455,0.10389203995365832,0.05534066629316415
12.800999999998345,0.106127407211693,0.05711233993077185
13.000999999998234,0.10844791173783483,0.05896667051856209
13.200999999998123,0.11064635331444589,0.060778601643085295
13.400999999998012,0.11299327545378013,0.06270246281372803
13.600999999997901,0.11521455991954374,0.06458838076442755
13.80099999999779,0.11753820371124071,0.06653589974770445
14.00099999999768,0.11979469610212572,0.06852505097373505
14.200999999997569,0.12201577980380147,0.0704788904840346
14.400999999997458,0.1242964562568087,0.07253453533824186
14.600999999997347,0.12648817552535283,0.0745451340744913
14.800999999997236,0.12879675288876508,0.07668138717958398
15.000999999997125,0.13101506787812883,0.07876834777957621
15.200999999997014,0.1332851973894795,0.0809328110465464
15.400999999996904,0.13555603569528604,0.08312714304273815
15.600999999996793,0.13773615951249438,0.08529450571727344
15.800999999996682,0.13996878684193137,0.08750509267710053
16.000999999996573,0.14215275949566764,0.08977304374978005
16.200999999996817,0.14441822312127572,0.09207282660598579
16.40099999999706,0.14662848138288953,0.09442858350555322
16.600999999997306,0.14885129329319793,0.09677071197652495
16.80099999999755,0.1510913219234668,0.0992032867585465
17.000999999997795,0.15323681521281718,0.10156261939468321
17.20099999999804,0.15541651899679682,0.10401561936210886
17.400999999998284,0.15759819508464182,0.10648054551898398
17.60099999999853,0.15974439026682624,0.10897797422550715
17.800999999998773,0.16194286276715603,0.11153684927212505
18.000999999999017,0.16411927013503777,0.11413320241639197
18.20099999999926,0.16630083301081233,0.11671627860348226
18.400999999999506,0.16843624648549832,0.11938499368232175
18.60099999999975,0.17056229841120002,0.12199929632633107
18.799999999999994,0.17270166571378923,0.12473717341802715
19.000000000000238,0.17479089751475738,0.12738591942819136
19.200000000000482,0.17696132921813945,0.13024505108056622
19.400000000000727,0.17937917948199822,0.13334247282748382
19.60000000000097,0.1815693059325393,0.13635165988476527
19.800000000001216,0.18384201804975217,0.13940145335454124
20.00000000000146,0.18614391702791974,0.14272950534954654
