Time (s),X (m),Y (m)
0.001,0.00042302893680115855,-0.0010314752485082442
0.20000000000000015,0.0008330276932338472,0.00029676595280877133
0.4000000000000003,0.0011968652646046451,-0.0003167158498073397
0.6000000000000004,0.001588457311696699,-0.00021453967498441005
0.8000000000000006,0.0020025859376865385,-0.00028415662447254516
1.0000000000000007,0.002439515758991549,-5.803740228590596e-05
1.2009999999999785,0.0028538452717674885,-0.0001779140458208665
1.4009999999999565,0.0032539938636858266,-0.00017088688825351914
1.6009999999999345,0.0036508895482876206,-0.00014560221905400925
1.8009999999999124,0.0040534963982228524,-0.00019749565527755052
2.0009999999998906,0.004466706188613304,-0.00025244768779069245
2.2009999999998686,0.004890267035553504,-0.0002976579680519219
2.4009999999998466,0.005320454303633833,-0.00034892441478031846
2.6009999999998246,0.0057541733225158756,-0.00040748499581768233
2.8009999999998025,0.006191595237013059,-0.0004717524631511082
3.0009999999997805,0.0066332145702327,-0.0005418690272589054
3.2009999999997585,0.007079819804563015,-0.0006156149941212144
3.4009999999997365,0.007531286192805478,-0.0006927670899296658
3.6009999999997144,0.007987402616887521,-0.0007731591611111438
3.8009999999996924,0.008446453719108083,-0.000857699868077868
4.000999999999671,0.008903011920222054,-0.0009471984673932763
4.200999999999738,0.009356287447162517,-0.0010415636858735224
4.400999999999804,0.009806562421991934,-0.0011406475537506858
4.600999999999871,0.010254235018108805,-0.0012442534056904336
4.800999999999938,0.010699871275912463,-0.001352205367074167
5.000000000000004,0.011143610576321142,-0.0014745749091130767
5.200000000000071,0.01158578862656924,-0.0015905724908245105
5.400000000000138,0.012026305333947709,-0.0017105344892638062
5.600000000000205,0.01246527668409304,-0.0018345092711744906
5.800000000000272,0.012902748043356676,-0.0019624318600207037
6.000000000000338,0.013339129431403229,-0.0020943471315858103
6.200000000000405,0.013774531561606539,-0.0022302706189679194
6.400000000000472,0.014208949516143488,-0.002369972718178705
6.600000000000539,0.014642417505204019,-0.002513231418549119
6.800000000000606,0.015074990058745692,-0.0026599956739646316
7.000000000000672,0.015506818677526528,-0.0028102321445580133
7.200000000000739,0.015937765923090434,-0.0029638453159131183
7.400000000000806,0.016366711928382717,-0.003120468074796392
7.600000000000873,0.016792786774695753,-0.003279744536914111
7.8000000000009395,0.017214877242775695,-0.0034413250928763102
8.000000000001005,0.01763186872915534,-0.0036048960223588476
8.200000000000895,0.018044172041333052,-0.0037704255553958578
8.400000000000784,0.018452499422749916,-0.0039378869892007584
8.600000000000673,0.01885680014157961,-0.004107208464633079
8.800000000000562,0.01925708405168529,-0.004278381498355739
9.000000000000451,0.019653443817713293,-0.004451383862370019
9.20000000000034,0.020045959484946602,-0.004626195514249139
9.40000000000023,0.02043499418758163,-0.004802764977189747
9.600000000000119,0.020820408996500835,-0.004980954303583466
9.800000000000008,0.02120225699376858,-0.005160772212726793
10.000999999999896,0.021578419953684334,-0.005331082490686767
10.200999999999786,0.02195316652784572,-0.005514256937104545
10.400999999999675,0.022324571665786625,-0.005699026034489527
10.600999999999564,0.022692816409228975,-0.005885399383514516
10.800999999999453,0.023057987076845813,-0.0060732886291933914
11.000999999999342,0.023420081210011264,-0.006262639596358511
11.200999999999231,0.023779092913571904,-0.006453439041290615
11.40099999999912,0.024135251652447814,-0.006645664452177743
11.60099999999901,0.024489512392950906,-0.006839216241258335
11.800999999998899,0.024841161389319105,-0.007033996813610682
12.000999999998788,0.025189354711298684,-0.007229672539446907
12.200999999998677,0.025532461321793813,-0.0074258632404412914
12.400999999998566,0.025870814877027058,-0.007622626302509676
12.600999999998455,0.02620512843225331,-0.007820036150330952
12.800999999998345,0.026535432598508275,-0.008018013514883005
13.000999999998234,0.0268630505808095,-0.008216535837861184
13.200999999998123,0.027186961779967413,-0.008415482307865362
13.400999999998012,0.027508158901434286,-0.008614902283710623
13.600999999997901,0.02782833171878216,-0.008815031939528251
13.80099999999779,0.028147507248068932,-0.009015915484972811
14.00099999999768,0.028465627417049243,-0.009217498294026334
14.200999999997569,0.028782735693755637,-0.009419845970105041
14.400999999997458,0.02909871825165303,-0.009622955875134408
14.600999999997347,0.029413553395200815,-0.009826645036901924
14.800999999997236,0.029727215826788157,-0.010030964812903713
15.000999999997125,0.030039864723975348,-0.01023610846191804
15.200999999997014,0.030353846983576557,-0.010443081793956829
15.400999999996904,0.03067033752161209,-0.010652483330219936
15.600999999996793,0.030989550554066134,-0.0108642856316747
15.800999999996682,0.03131150382718306,-0.011078388194339484
16.000999999996573,0.03163636271026392,-0.01129483130428488
16.200999999996817,0.031964141123730125,-0.01151359895917464
16.40099999999706,0.03229488816169199,-0.011734741430834254
16.600999999997306,0.03262892284208525,-0.01195823749687284
16.80099999999755,0.03296612356221137,-0.012183795780423154
17.000999999997795,0.033306443470737565,-0.012411399134217772
17.20099999999804,0.0336498849829514,-0.01264108181959394
17.400999999998284,0.03399649187738088,-0.012872683492020405
17.60099999999853,0.03434636541037975,-0.013106156248779918
17.800999999998773,0.034699455105550836,-0.013341001186245588
18.000999999999017,0.03505576636433119,-0.0135770529449962
18.20099999999926,0.03541543415284159,-0.013814516150050861
18.400999999999506,0.03577832276307527,-0.014053102827962634
18.60099999999975,0.03614436378370393,-0.014292478683349367
18.799999999999994,0.03651738403452046,-0.014539441846805631
19.000000000000238,0.03688979576085284,-0.014778857779449508
19.200000000000482,0.03726536279793367,-0.01501707364866062
19.400000000000727,0.0376438846844328,-0.015254063880539641
19.60000000000097,0.038025290140013414,-0.015489739898903846
19.800000000001216,0.03840952390003144,-0.015723887273663955
20.00000000000146,0.03879646452704871,-0.015956039033526402
