Time (s),X (m),Y (m)
0.001,0.0009387665610552813,0.0008932837685830061
0.20000000000000015,0.0008999428618621724,7.488336422276807e-05
0.4000000000000003,0.0014083448959558151,0.00019254336305929456
0.6000000000000004,0.0022207330928985295,0.0004850588648533985
0.8000000000000006,0.0032122652087252313,0.0008145708001211548
1.0000000000000007,0.004412436017308605,0.0009702272370329051
1.2009999999999785,0.005841035835090277,0.0014620550888023573
1.4009999999999565,0.007093939207392686,0.0019470931479939864
1.6009999999999345,0.008220618324996638,0.002501264945027291
1.8009999999999124,0.009528823501729537,0.0029808354507339565
2.0009999999998906,0.010802046915520966,0.0033269918302280756
2.2009999999998686,0.012266403008570438,0.003950263842716368
2.4009999999998466,0.013638235763612448,0.004440816355651238
2.6009999999998246,0.015166443546221606,0.0050092859136698755
2.8009999999998025,0.016790802663486332,0.005663367982490352
3.0009999999997805,0.01844964976380033,0.006407772012400384
3.2009999999997585,0.020202743158885164,0.007219148582504377
3.4009999999997365,0.021885126837420953,0.00816440273919861
3.6009999999997144,0.02367059761009319,0.009115792118116528
3.8009999999996924,0.025449688279029978,0.010183006775602329
4.000999999999671,0.027192098633345645,0.011197517608319397
4.200999999999738,0.028981485540579686,0.012066759863987116
4.400999999999804,0.03071922260453144,0.013066045167440993
4.600999999999871,0.0324214089986809,0.014136788499781583
4.800999999999938,0.034080860682597115,0.015213286645543882
5.000000000000004,0.035695363538136834,0.01626950451563615
5.200000000000071,0.03728729288710104,0.017357270897854524
5.400000000000138,0.038853543786763464,0.01845775750143696
5.600000000000205,0.04037463514849493,0.0195692623512501
5.800000000000272,0.041825259020061095,0.02068369576214671
6.000000000000338,0.04320178474526935,0.021798959890135295
6.200000000000405,0.04445691049006654,0.022917518001279873
6.400000000000472,0.04554036202180056,0.024038041367400904
6.600000000000539,0.046459736750278036,0.025159286204516733
6.800000000000606,0.04721755418774856,0.026280005459503517
7.000000000000672,0.047819427420549274,0.02739884430292632
7.200000000000739,0.04827575205341232,0.028514424639160162
7.400000000000806,0.04859370677792583,0.029626291489412298
7.600000000000873,0.048779473833224285,0.030734709066307403
7.8000000000009395,0.04883884284463973,0.03184000055218333
8.000000000001005,0.048778773359050474,0.032942623496420145
8.200000000000895,0.04861354934657596,0.03404377120097764
8.400000000000784,0.04835513676896403,0.035143906486149165
8.600000000000673,0.048019299739427916,0.03624383405258002
8.800000000000562,0.04762215081755058,0.037345311003889374
9.000000000000451,0.04716460170013804,0.03844957597278709
9.20000000000034,0.046653841895245365,0.039557553375969653
9.40000000000023,0.046110125026093074,0.04067224279589137
9.600000000000119,0.04554152162545876,0.04178850851976059
9.800000000000008,0.04495513399597312,0.04289705796679169
10.000999999999896,0.04434168471155356,0.04401807328342275
10.200999999999786,0.04373955546759319,0.045110895423964494
10.400999999999675,0.043148402118899205,0.04619805528348677
10.600999999999564,0.04256825329176868,0.04728076629438922
10.800999999999453,0.04199899728023777,0.048359947755686694
11.000999999999342,0.041440124941556473,0.049437895734251065
11.200999999999231,0.04089093574568121,0.05051577854626403
11.40099999999912,0.04035081346455245,0.05159647561469212
11.60099999999901,0.039818129604198206,0.05268254477958433
11.800999999998899,0.039293380180195694,0.053775971607223236
12.000999999998788,0.03877518021481116,0.05488368767381364
12.200999999998677,0.038260954014096134,0.05601259053477028
12.400999999998566,0.03774954910850065,0.05716139438102346
12.600999999998455,0.03724015984909379,0.05832966285703007
12.800999999998345,0.03673151780202229,0.05951671257624985
13.000999999998234,0.03622029977723589,0.06072251274634052
13.200999999998123,0.03569633130078812,0.06194574819415184
13.400999999998012,0.03515833546309894,0.06318465832464117
13.600999999997901,0.03460145687270056,0.06444061097801938
13.80099999999779,0.034017755895212054,0.06571532354581953
14.00099999999768,0.033403005792024196,0.06701068054801901
14.200999999997569,0.032754614985559906,0.06832984600014927
14.400999999997458,0.03208496178005995,0.06969572145137064
14.600999999997347,0.03152019916053113,0.07119044264536868
14.800999999997236,0.03088672116705396,0.07263461432686565
15.000999999997125,0.03038529283545288,0.07421924036732029
15.200999999997014,0.0297421769354146,0.07574718142937363
15.400999999996904,0.02917994939247279,0.0772664194149584
15.600999999996793,0.028579366777942723,0.0789801225689779
15.800999999996682,0.027911528105612753,0.08072002749228221
16.000999999996573,0.027276769746276745,0.08250824837360868
16.200999999996817,0.02658992700363721,0.08433032688561931
16.40099999999706,0.025817683267423022,0.08625345160980499
16.600999999997306,0.02498245254177572,0.08828762288177615
16.80099999999755,0.02398295352791526,0.09033067473257454
17.000999999997795,0.023132123361218972,0.09233830084525364
17.20099999999804,0.02235068286410617,0.09437573149065584
17.400999999998284,0.021336461717234374,0.09642180533364285
17.60099999999853,0.02019349859483895,0.0986034786880848
17.800999999998773,0.01917372381472345,0.10071689924042246
18.000999999999017,0.01825546023543851,0.10278328081818147
18.20099999999926,0.017264844275741743,0.10487683581314056
18.400999999999506,0.016396968650847117,0.1069742202083258
18.60099999999975,0.015546644230461653,0.10910299393051648
18.799999999999994,0.01449856227468255,0.11121516096357383
19.000000000000238,0.013493328428454862,0.11338773491238913
19.200000000000482,0.012299001344563363,0.11557601407251755
19.400000000000727,0.011080270693352845,0.11765109708328822
19.60000000000097,0.00979147474125601,0.11977757746771127
19.800000000001216,0.008561766811993611,0.12179644198398082
20.00000000000146,0.007324769647169728,0.12373471168427023
