Time (s),X (m),Y (m)
0.001,0.0011130987088041246,0.0005155841445599734
0.20000000000000015,0.007501298702046579,0.0032606936666981653
0.4000000000000003,0.006248961843332293,0.0027897830356112376
0.6000000000000004,0.012331388975772512,0.007737136810864987
0.8000000000000006,0.015023781332951071,0.008127923488775767
1.0000000000000007,0.020277382959150242,0.00858779657079538
1.2009999999999785,0.024853860438471462,0.010053021997786122
1.4009999999999565,0.03343716804802883,0.012490169518033969
1.6009999999999345,0.03561206846610088,0.009527236832671912
1.8009999999999124,0.040093601247284706,0.010892952269746063
2.0009999999998906,0.04637435413101582,0.013367301915583364
2.2009999999998686,0.055562221085516235,0.018286934326450593
2.4009999999998466,0.0624405788847861,0.02149275444855966
2.6009999999998246,0.07185065061266128,0.022443932648413784
2.8009999999998025,0.07748491922092056,0.02426379496619589
3.0009999999997805,0.08284487850565912,0.026441695447091424
3.2009999999997585,0.08959529252632428,0.030802571925457004
3.4009999999997365,0.09812167683594311,0.037390741581921294
3.6009999999997144,0.10431564409364327,0.041242650163423746
3.8009999999996924,0.11027546557301254,0.04507699620947905
4.000999999999671,0.11921322668651681,0.050905254174234825
4.200999999999738,0.12412445779838682,0.05487122161507795
4.400999999999804,0.12891588161624967,0.058716960663827714
4.600999999999871,0.13499905944732574,0.064476298111078
4.800999999999938,0.13975770226808615,0.06626459842527671
5.000000000000004,0.14443208707011485,0.07151156930597649
5.200000000000071,0.14896794894279425,0.07559783695370537
5.400000000000138,0.1529195744801697,0.07992062940251479
5.600000000000205,0.15768503853160107,0.08607765575196842
5.800000000000272,0.16147542681481272,0.09341533725585822
6.000000000000338,0.1643848102005404,0.10092744934134174
6.200000000000405,0.16741441042707084,0.104564526183322
6.400000000000472,0.1689774989264411,0.10949105702714199
6.600000000000539,0.17106349587322878,0.11508009257559478
6.800000000000606,0.1739035436325953,0.12160704565190286
7.000000000000672,0.17584431639994325,0.12701686511853177
7.200000000000739,0.17712407994595175,0.1315825329513868
7.400000000000806,0.17849143975853665,0.1366281065519115
7.600000000000873,0.17900027539193963,0.140619288235106
7.8000000000009395,0.17925693870159304,0.14552530451509715
8.000000000001005,0.17796832409048996,0.15133933899145294
8.200000000000895,0.17784256063560439,0.15904228642231535
8.400000000000784,0.1781819407957245,0.1639415500662987
8.600000000000673,0.1797215180090178,0.16788760825116517
8.800000000000562,0.17964778731442377,0.17378666095968595
9.000000000000451,0.17967133146282047,0.1786374125286325
9.20000000000034,0.18010698813105275,0.18341892653151204
9.40000000000023,0.18031880082130872,0.18711396679693126
9.600000000000119,0.17984341239291382,0.19239386941138292
9.800000000000008,0.17888332190418632,0.1980380309222201
10.000999999999896,0.17829157142754942,0.20274349059831645
10.200999999999786,0.17784404345030025,0.20719695413117123
10.400999999999675,0.17663760244803356,0.21337427152012278
10.600999999999564,0.17674320622886247,0.21979084399816012
10.800999999999453,0.1748364277455503,0.2271180312105998
11.000999999999342,0.17315439339456068,0.23365498835169457
11.200999999999231,0.17076838698035773,0.2411185785840791
11.40099999999912,0.16818125716472468,0.24933763433805894
11.60099999999901,0.16486003501825688,0.25765239204707074
11.800999999998899,0.16285255950235275,0.26532211853415755
12.000999999998788,0.1612514524603671,0.2714820936428457
12.200999999998677,0.15799500246485743,0.2796847297791204
12.400999999998566,0.15554727163830342,0.28713715207272755
12.600999999998455,0.152397433311301,0.29493843429341976
12.800999999998345,0.14755811166445557,0.30411728673287974
13.000999999998234,0.14370353449772083,0.31266435194696185
13.200999999998123,0.14118513216368966,0.3207247180413993
13.400999999998012,0.13452063786639173,0.3306819641041745
13.600999999997901,0.12956052911611735,0.3388199910134732
13.80099999999779,0.12428197871181619,0.34642685481420227
14.00099999999768,0.11929422849460564,0.35414526029988064
14.200999999997569,0.11461042442341314,0.3635341634938673
14.400999999997458,0.11280054656805594,0.3700732724901309
14.600999999997347,0.10806718320212313,0.3773655181755565
14.800999999997236,0.10170334987262007,0.3848345659838889
15.000999999997125,0.09708914793998964,0.39271473703610454
15.200999999997014,0.09293893518392289,0.3992319734598774
15.400999999996904,0.08670610725119789,0.40551439844474996
15.600999999996793,0.07938541838954553,0.4126023826972308
15.800999999996682,0.071222243530328,0.419780838335802
16.000999999996573,0.061664898935955274,0.4263920337398831
16.200999999996817,0.055481181883845265,0.4328038282623118
16.40099999999706,0.04849253432221875,0.43783599232991
16.600999999997306,0.04462146060705521,0.44253505063550996
16.80099999999755,0.03828061420655984,0.44581146176260167
17.000999999997795,0.03335498842626324,0.4493040476240683
17.20099999999804,0.027991101981819217,0.4520814550461024
17.400999999998284,0.02098792843678887,0.4550067879333765
17.60099999999853,0.014506545982877163,0.4578331392808649
17.800999999998773,0.010065370316049227,0.460308758527427
18.000999999999017,0.006859064881545802,0.4635882581495125
18.20099999999926,0.001620994153595219,0.46446801542771493
18.400999999999506,-0.0032037426759524996,0.4662950963332512
18.60099999999975,-0.008272703830823479,0.46757412313536595
18.799999999999994,-0.011245498988798147,0.4683191607033548
19.000000000000238,-0.016560328285088168,0.4692060709370939
19.200000000000482,-0.020754627987430878,0.470479729503953
19.400000000000727,-0.02483182281781819,0.47065015261622106
19.60000000000097,-0.029975174010392985,0.4708914706161426
19.800000000001216,-0.03754848454442547,0.47007136520776605
20.00000000000146,-0.043385618097198736,0.4702500333589969
