Time (s),X (m),Y (m)
0.001,0.0010100015126501532,0.0006628221997479689
0.20000000000000015,0.0008028019787757519,-0.002107534047490297
0.4000000000000003,0.014444618919155527,-0.0002382089531059974
0.6000000000000004,0.03631319970650865,0.004676621645016594
0.8000000000000006,0.06698555726860977,0.010614089669679245
1.0000000000000007,0.10773820416290222,0.012726783830729302
1.2009999999999785,0.14282091343841102,0.0028248588943139475
1.4009999999999565,0.17269462410029954,-0.01934842234806942
1.6009999999999345,0.20174475568639477,-0.04706360710296402
1.8009999999999124,0.22457591412782088,-0.08036610205005659
2.0009999999998906,0.24053844959813978,-0.11459723971783242
2.2009999999998686,0.26971581708797393,-0.15110037289315176
2.4009999999998466,0.31127049091841646,-0.18357966339998505
2.6009999999998246,0.3494292241308601,-0.21605423981207691
2.8009999999998025,0.3708402988737093,-0.24463693287673235
3.0009999999997805,0.38372189462674267,-0.27628042531969
3.2009999999997585,0.4013705164867089,-0.30695720536024335
3.4009999999997365,0.4339455319221878,-0.33549144781142726
3.6009999999997144,0.4763933113632926,-0.35309594461290433
3.8009999999996924,0.513592319734611,-0.37389717722954385
4.000999999999671,0.5490198420939059,-0.4052451051657606
4.200999999999738,0.5884911034183637,-0.4482982852217591
4.400999999999804,0.6320534075165333,-0.49564092758774186
4.600999999999871,0.6844845955209045,-0.5365876984509991
4.800999999999938,0.7366753488037733,-0.5757884223851054
5.000000000000004,0.7819230553451175,-0.6237716825056477
5.200000000000071,0.8370634763520939,-0.6803085438754048
5.400000000000138,0.8922390821047195,-0.7442359641235394
5.600000000000205,0.9489058337034209,-0.8134485935042112
5.800000000000272,1.008448621639398,-0.8854907358884135
6.000000000000338,1.073596534113231,-0.9623913090882417
6.200000000000405,1.1332237803977387,-1.037428548766415
6.400000000000472,1.1792409622452946,-1.1124056525160742
6.600000000000539,1.1968369760887323,-1.170586913109911
6.800000000000606,1.1889135772858113,-1.205755973380501
7.000000000000672,1.1567482706602052,-1.232833772681666
7.200000000000739,1.1169872999106876,-1.2442704947455485
7.400000000000806,1.075579142093417,-1.2418535197133833
7.600000000000873,1.0205743417742827,-1.2359799095413755
7.8000000000009395,0.9446609554440626,-1.2270722100090377
8.000000000001005,0.8835968452348413,-1.2113850854663084
8.200000000000895,0.8297888031967232,-1.1770354278850736
8.400000000000784,0.7830967714681375,-1.1299122661007133
8.600000000000673,0.7509736145834657,-1.0750390036286037
8.800000000000562,0.752365663587201,-1.0235066897560474
9.000000000000451,0.7781554304158022,-0.9770626693130506
9.20000000000034,0.814668315241782,-0.9366196260794802
9.40000000000023,0.8685257206675135,-0.9069557164224262
9.600000000000119,0.9198931683834307,-0.8889030185889965
9.800000000000008,0.9694363768905147,-0.8830247416343585
10.000999999999896,1.0036444051297542,-0.8952433245363124
10.200999999999786,1.0310354262594623,-0.9159840207962738
10.400999999999675,1.0579749426903506,-0.9566816623363742
10.600999999999564,1.0860464727696189,-1.017727926552008
10.800999999999453,1.0924813467399732,-1.0741575704520137
11.000999999999342,1.074034517373226,-1.1455923905551118
11.200999999999231,1.0454286121067973,-1.203995621824186
11.40099999999912,1.0027736574534603,-1.257375789492249
11.60099999999901,0.9526628543936149,-1.3019152685766928
11.800999999998899,0.9046487509013037,-1.3395629518752554
12.000999999998788,0.8520747994134047,-1.3646400109517265
12.200999999998677,0.7909145443302946,-1.3661073665021122
12.400999999998566,0.7427123009177168,-1.354165415339663
12.600999999998455,0.7106647695925928,-1.3267688722169915
12.800999999998345,0.6695533641732957,-1.2824741338514543
13.000999999998234,0.6261443082207797,-1.228144193275097
13.200999999998123,0.5836378742495052,-1.163679393202128
13.400999999998012,0.5506154761188738,-1.1006010489358178
13.600999999997901,0.5359386267491915,-1.0549835594299413
13.80099999999779,0.5395966148819228,-1.0112861571645104
14.00099999999768,0.563925159087526,-0.9545153457910875
14.200999999997569,0.598919648305311,-0.9070020220186107
14.400999999997458,0.6331762827958454,-0.8707877448979578
14.600999999997347,0.6741611844051386,-0.8576726794307806
14.800999999997236,0.7351945507006793,-0.8562162499874885
15.000999999997125,0.7947719459695883,-0.8604297113448571
15.200999999997014,0.8583464408618076,-0.8704749127090702
15.400999999996904,0.9119597985698562,-0.8905108751695221
15.600999999996793,0.969598035662948,-0.932589720272695
15.800999999996682,1.0299378778497499,-0.9891634103769298
16.000999999996573,1.093985924587321,-1.0496530719409543
16.200999999996817,1.1628486458923242,-1.1138034833921606
16.40099999999706,1.2367755640813884,-1.1670779835981688
16.600999999997306,1.3129885129898586,-1.2011845084024662
16.80099999999755,1.3757164234468409,-1.2232322276022085
17.000999999997795,1.4358942301784188,-1.2430723711933032
17.20099999999804,1.5116081133576107,-1.2492124766212644
17.400999999998284,1.5910339246229386,-1.2432709946133462
17.60099999999853,1.6607265487642802,-1.2373878011262116
17.800999999998773,1.7359262731268839,-1.2444913028855142
18.000999999999017,1.8099880895662428,-1.2716067662266306
18.20099999999926,1.874715026708354,-1.3198743629843261
18.400999999999506,1.9328776453190526,-1.382506063262782
18.60099999999975,1.9705210052600108,-1.4616370128588938
18.799999999999994,1.9751728559424286,-1.5475555047453946
19.000000000000238,1.9533799951645785,-1.6256686436240908
19.200000000000482,1.9197741397208816,-1.6965806841724287
19.400000000000727,1.8771504134739554,-1.7568038412566005
19.60000000000097,1.8208808954897833,-1.8141908367298274
19.800000000001216,1.7561731929481164,-1.8597156457407384
20.00000000000146,1.6941985988107793,-1.8616315112614568
