Time (s),X (m),Y (m)
0.001,-0.0006246028371892732,0.000591453832551625
0.20000000000000015,0.002492125688892761,0.0013831907796975707
0.4000000000000003,0.0050170727182161775,0.0013229585140735072
0.6000000000000004,0.019799417939593337,0.001069285176870623
0.8000000000000006,0.047120434146179196,-0.005598156914829672
1.0000000000000007,0.08263268800258242,-0.014143639994084106
1.2009999999999785,0.12012488297941719,-0.009169473850111702
1.4009999999999565,0.1543843681155624,-0.023573871830407992
1.6009999999999345,0.17798752821622077,-0.06553500173406311
1.8009999999999124,0.19422637783537056,-0.11003755756487123
2.0009999999998906,0.19219454797163038,-0.15804319536423145
2.2009999999998686,0.17772805686707693,-0.2000347644639191
2.4009999999998466,0.15950048351405263,-0.23435695341781787
2.6009999999998246,0.1315383016482266,-0.25152790955464827
2.8009999999998025,0.09581982549292603,-0.25526305023305934
3.0009999999997805,0.05063727846850957,-0.24939835299336213
3.2009999999997585,0.003310974877987284,-0.2425277873652424
3.4009999999997365,-0.04748430353709881,-0.21820035209087577
3.6009999999997144,-0.09414564304288842,-0.1851972733913054
3.8009999999996924,-0.1264427619395671,-0.1503454352205162
4.000999999999671,-0.1326609418328238,-0.10097541627516303
4.200999999999738,-0.13692576128454131,-0.05243518664895691
4.400999999999804,-0.12362235251982365,0.0004904124950814961
4.600999999999871,-0.10689766329721472,0.05565377507828054
4.800999999999938,-0.08088713545006233,0.09792293117914092
5.000000000000004,-0.050367336804962005,0.12913201953784864
5.200000000000071,-0.0043995107516716465,0.14218237364209496
5.400000000000138,0.05137473567957694,0.14112959176054324
5.600000000000205,0.10616665978922575,0.13642545855610205
5.800000000000272,0.16747043828757155,0.1266431537810892
6.000000000000338,0.22947929655523144,0.11202603174725104
6.200000000000405,0.2861451679299022,0.0761698279099848
6.400000000000472,0.3192853884509474,0.025516003775533123
6.600000000000539,0.3312145969410586,-0.028281206304015132
6.800000000000606,0.3277943331198719,-0.08616987447916738
7.000000000000672,0.3097285687693525,-0.1437493574485187
7.200000000000739,0.2838039265512497,-0.19050106398458852
7.400000000000806,0.24139114803506226,-0.21222518492634337
7.600000000000873,0.19109185449354113,-0.21806253429286224
7.8000000000009395,0.13578700297192312,-0.20855139433992667
8.000000000001005,0.08401015605394446,-0.18458651707939075
8.200000000000895,0.04377221294734434,-0.14045580113217676
8.400000000000784,0.023444092089125512,-0.09210340647504511
8.600000000000673,0.01706014106767993,-0.031899583642395986
8.800000000000562,0.03843981091454857,0.014915091005982452
9.000000000000451,0.08212565600968764,0.03816238480359566
9.20000000000034,0.13552059712930387,0.04631805612724912
9.40000000000023,0.20516245563621752,0.03167337582895396
9.600000000000119,0.28688063335017366,0.0028950846838121645
9.800000000000008,0.36287441623842676,-0.03692697995950195
10.000999999999896,0.42974897946033336,-0.09095971937115979
10.200999999999786,0.48003541976478137,-0.14716413585638807
10.400999999999675,0.507343731769074,-0.20603471578765367
10.600999999999564,0.5236410505756407,-0.26439613608245577
10.800999999999453,0.527996221500336,-0.3223731800762779
11.000999999999342,0.5037070191066084,-0.38714220883300426
11.200999999999231,0.45842946894813136,-0.45347910664811647
11.40099999999912,0.40967231279606015,-0.5094972641365405
11.60099999999901,0.3375031390481098,-0.5361463614068057
11.800999999998899,0.26382461638036653,-0.5341274387081879
12.000999999998788,0.18722659097239477,-0.5252474929544979
12.200999999998677,0.1141919166426163,-0.5183592890775606
12.400999999998566,0.04651944095948109,-0.4969496613600401
12.600999999998455,-0.006605720279104248,-0.46435841740631606
12.800999999998345,-0.04038350862568705,-0.4161842754654905
13.000999999998234,-0.0592276141885814,-0.35890745463868556
13.200999999998123,-0.05692273754612373,-0.29793083234911377
13.400999999998012,-0.028767119370460066,-0.23889497368088
13.600999999997901,0.012871539724004812,-0.20032282196254775
13.80099999999779,0.06804461249948254,-0.18479521275820582
14.00099999999768,0.12281377666306292,-0.1996158465765655
14.200999999997569,0.17028082949584156,-0.2354635982739268
14.400999999997458,0.2069851112907384,-0.2805502776601685
14.600999999997347,0.22206745527287428,-0.3357500376175004
14.800999999997236,0.21169288793733942,-0.4007172732846206
15.000999999997125,0.1857312619676683,-0.47078570948441273
15.200999999997014,0.15109122042772796,-0.5437354228507778
15.400999999996904,0.11248085498680746,-0.6034291688155212
15.600999999996793,0.06246010019752313,-0.6292016989935479
15.800999999996682,0.012275829561342693,-0.6339146326041029
16.000999999996573,-0.038086433694603204,-0.6073869013530601
16.200999999996817,-0.07250411195377954,-0.5646912976300748
16.40099999999706,-0.0765110553413906,-0.5125092192522399
16.600999999997306,-0.061139706620983426,-0.4558067637507723
16.80099999999755,-0.009764536422622965,-0.4124976377147135
17.000999999997795,0.04425734450344753,-0.39018899648913946
17.20099999999804,0.10268356813298694,-0.3841765409278941
17.400999999998284,0.15940414602423836,-0.3924297997153564
17.60099999999853,0.19592497851033072,-0.43383993108025354
17.800999999998773,0.22030497441355834,-0.47588899587876665
18.000999999999017,0.22473496009344124,-0.5188888155049631
18.20099999999926,0.21274365405568876,-0.5742442149679045
18.400999999999506,0.19413885090656752,-0.6339863026064928
18.60099999999975,0.17015194088282282,-0.689228440121824
18.799999999999994,0.1327771802580718,-0.7217564174351158
19.000000000000238,0.0909435837849027,-0.7190271772832872
19.200000000000482,0.05889435011701673,-0.6911081944277232
19.400000000000727,0.042678322077405885,-0.6492399669260367
19.60000000000097,0.04308734567195462,-0.6012515448633866
19.800000000001216,0.05407704834528745,-0.5553949252152433
20.00000000000146,0.07732491268393463,-0.5188324311550488
