Time (s),X (m),Y (m)
0.001,0.0003099530129853942,0.0010272443824616275
0.20000000000000015,0.00046213986392058397,-0.0028770037605441996
0.4000000000000003,0.0035089210041306593,-0.012081665890484273
0.6000000000000004,0.015913975974033386,-0.004924787046658816
0.8000000000000006,0.03592516825861588,0.011352605311806025
1.0000000000000007,0.060071714988747485,0.021542197324588303
1.2009999999999785,0.09285285094167062,0.03808461084032658
1.4009999999999565,0.12178836223609149,0.04173182101704105
1.6009999999999345,0.15271340264944558,0.03478246130338271
1.8009999999999124,0.18133359672362576,0.015107560636600112
2.0009999999998906,0.20859387735701465,-0.0011024308085038558
2.2009999999998686,0.22840820045477334,-0.02118152601767347
2.4009999999998466,0.24308376280914887,-0.042834829798608906
2.6009999999998246,0.2449122497789768,-0.057324115874801386
2.8009999999998025,0.23382998047201234,-0.05940466028119205
3.0009999999997805,0.20440517434420793,-0.06134503924989298
3.2009999999997585,0.17019242980882632,-0.062217739871583924
3.4009999999997365,0.14032027068077826,-0.050116181238680856
3.6009999999997144,0.11183156770934281,-0.031451298509709735
3.8009999999996924,0.09398069580394809,-0.006021293092289954
4.000999999999671,0.06858086773268231,0.022922507123330424
4.200999999999738,0.0530078377670129,0.0527296740244876
4.400999999999804,0.01960994501249031,0.0811929917634112
4.600999999999871,-0.005047882386333769,0.10792206584863281
4.800999999999938,-0.025777077661972972,0.13744384985229452
5.000000000000004,-0.03556049610663351,0.16723544416040564
5.200000000000071,-0.0500056270763451,0.2006911506703146
5.400000000000138,-0.05487898640296532,0.23349598003035182
5.600000000000205,-0.0419443473572175,0.26651895267631937
5.800000000000272,-0.04192738045200686,0.30930518271069063
6.000000000000338,-0.05052855009030666,0.34769831164160364
6.200000000000405,-0.05021867330392381,0.3847615456076761
6.400000000000472,-0.04298491556903701,0.4241546483513412
6.600000000000539,-0.034285215372717004,0.46456158591473423
6.800000000000606,-0.03266733395403148,0.5045483360868723
7.000000000000672,-0.019850250895092757,0.5393794185896719
7.200000000000739,-0.01804733079494865,0.5860626533833567
7.400000000000806,-0.004891070194728736,0.6283108663969026
7.600000000000873,-0.0019444423577305062,0.6741371821611587
7.8000000000009395,0.01608036208317849,0.7090897775401147
8.000000000001005,0.03666123507770429,0.7369660692959984
8.200000000000895,0.053807758173091844,0.7631349826658684
8.400000000000784,0.07907526663745133,0.7846014691974503
8.600000000000673,0.10410643018704795,0.8055178000980348
8.800000000000562,0.11451853980397546,0.8405163908590549
9.000000000000451,0.12811902821351667,0.8703996485710155
9.20000000000034,0.13516012942782105,0.9064818046394468
9.40000000000023,0.15079679438463978,0.9385691374721409
9.600000000000119,0.18023255328270493,0.9707409611821101
9.800000000000008,0.21366373055151255,1.0005687866634914
10.000999999999896,0.24653754624478152,1.0211946953879072
10.200999999999786,0.27517791568576433,1.0468543136366213
10.400999999999675,0.3040209625560565,1.071478806338839
10.600999999999564,0.32784564653971976,1.1017908792804947
10.800999999999453,0.36326735187998244,1.1295575638148945
11.000999999999342,0.38672412124141137,1.1661487973390212
11.200999999999231,0.41275407064648373,1.1982918172123054
11.40099999999912,0.4394895031998477,1.22982332368297
11.60099999999901,0.45338280010662274,1.278794138059842
11.800999999998899,0.4807752286309876,1.3136751015477417
12.000999999998788,0.5119105682250437,1.3391743888755203
12.200999999998677,0.5255983227488177,1.3728914392999305
12.400999999998566,0.5429985712378508,1.4086910772896466
12.600999999998455,0.5582154355725458,1.4564661853701584
12.800999999998345,0.5683618242738566,1.499807758047742
13.000999999998234,0.5961607433226472,1.533250224742268
13.200999999998123,0.6325389082355761,1.5639852937045684
13.400999999998012,0.665547073829151,1.5890211471012907
13.600999999997901,0.7083380290767576,1.610559714835807
13.80099999999779,0.7591818402776918,1.6245080946839443
14.00099999999768,0.8074120117450182,1.6249806537558522
14.200999999997569,0.8485891900460653,1.6177576302608712
14.400999999997458,0.8755576103964204,1.59790766628467
14.600999999997347,0.8988886254204903,1.5633998788146433
14.800999999997236,0.9119287068849257,1.5203805381411724
15.000999999997125,0.9245907902285901,1.479777658799851
15.200999999997014,0.9347529631233285,1.4380085094613368
15.400999999996904,0.9348539675356168,1.3985056736308064
15.600999999996793,0.949300813685854,1.3590658544698584
15.800999999996682,0.9494937269775126,1.3182300833103058
16.000999999996573,0.9446416727479079,1.2756491226129398
16.200999999996817,0.9457972954104558,1.2371119770713834
16.40099999999706,0.9443832861167596,1.200923843791969
16.600999999997306,0.9643488598038151,1.1651067018817811
16.80099999999755,0.9638130811217037,1.1306563462596824
17.000999999997795,0.971450711715856,1.088957782687525
17.20099999999804,0.9686553314130908,1.0524201953897365
17.400999999998284,0.9413219617871482,1.023681575645451
17.60099999999853,0.9333757893459733,0.993164645458212
17.800999999998773,0.9347184933163876,0.9592189413052584
18.000999999999017,0.9478983748470304,0.9189466730081074
18.20099999999926,0.9523649339399576,0.8788366880197382
18.400999999999506,0.9451549380772848,0.8423816759550043
18.60099999999975,0.9373533506678152,0.8033858040276264
18.799999999999994,0.9379083990730586,0.7672663238382748
19.000000000000238,0.9477337324686044,0.7300320449270895
19.200000000000482,0.9352584329579547,0.6948399775619547
19.400000000000727,0.9339707007097363,0.6578607009645066
19.60000000000097,0.9452475203583681,0.612543804086782
19.800000000001216,0.9492938261059175,0.5680322633305447
20.00000000000146,0.9478735629073219,0.5276465150544092
