Time (s),X (m),Y (m)
0.001,0.00048696676677933824,-0.0009960320817112695
0.20000000000000015,0.001277084628998908,0.005457250582011478
0.4000000000000003,0.0012448128238196588,0.0015715521648829354
0.6000000000000004,0.008781189918928494,-0.009829723772230122
0.8000000000000006,0.022315763409355337,-0.005651186499550843
1.0000000000000007,0.040406285993502475,0.0007315007883602913
1.2009999999999785,0.0579453755624599,-0.008835757751125635
1.4009999999999565,0.07584733448806862,-0.020055842605696674
1.6009999999999345,0.09199066030729579,-0.044639294159438264
1.8009999999999124,0.1121426508353981,-0.034344190718970345
2.0009999999998906,0.1377520949141531,-0.03414057934586293
2.2009999999998686,0.16659335340759385,-0.05245906202270493
2.4009999999998466,0.19459184698040244,-0.06705247085467976
2.6009999999998246,0.22413256002439072,-0.06335341966061196
2.8009999999998025,0.2539044913310315,-0.06818075190851652
3.0009999999997805,0.28388238643131997,-0.07235127083690171
3.2009999999997585,0.3125700976255534,-0.08334320845451239
3.4009999999997365,0.3405851852503892,-0.10456169855018153
3.6009999999997144,0.36590062544269364,-0.1228854018957128
3.8009999999996924,0.39832325240510297,-0.13416757864348317
4.000999999999671,0.436667702773212,-0.14440141781753885
4.200999999999738,0.4584790113301048,-0.16932876952545425
4.400999999999804,0.4824477806594909,-0.20195321232154068
4.600999999999871,0.5059335068722653,-0.22644095229466582
4.800999999999938,0.5320229601822617,-0.22756728120283068
5.000000000000004,0.5599547524802817,-0.24943744323552014
5.200000000000071,0.5862312744672076,-0.2682312546601286
5.400000000000138,0.6180278583096627,-0.2782166254791036
5.600000000000205,0.6488427222278262,-0.29479960121227067
5.800000000000272,0.6838027637961388,-0.2985500098163605
6.000000000000338,0.7159041589023389,-0.3014676060561032
6.200000000000405,0.7478861634334888,-0.3173267935124414
6.400000000000472,0.7772028570724584,-0.3403785247356379
6.600000000000539,0.8017920137262131,-0.373408812966591
6.800000000000606,0.8266369345571627,-0.4060027432218454
7.000000000000672,0.8532354835438338,-0.4275521378012084
7.200000000000739,0.8707189368117758,-0.44843014354290617
7.400000000000806,0.8731714468800413,-0.4770180670447403
7.600000000000873,0.8568894949692587,-0.5057394068512014
7.8000000000009395,0.8384395672485649,-0.533663161673307
8.000000000001005,0.8216777651106141,-0.5634904473037118
8.200000000000895,0.8036493435486041,-0.5769838050488413
8.400000000000784,0.7800205757790565,-0.5671383804215839
8.600000000000673,0.7481506483722846,-0.5593583632490039
8.800000000000562,0.726375446945085,-0.5438788372069613
9.000000000000451,0.7032723268844486,-0.5193007709567731
9.20000000000034,0.6811472961390296,-0.49434559135605605
9.40000000000023,0.6600446532020411,-0.4631414938906663
9.600000000000119,0.6292652362327931,-0.4398965797187812
9.800000000000008,0.6043666342516324,-0.4151733555571163
10.000999999999896,0.5820741350203906,-0.3823814289451842
10.200999999999786,0.5511420046244153,-0.3558900425093864
10.400999999999675,0.5276883512159305,-0.3209333801690319
10.600999999999564,0.5021132629294501,-0.29483828378128907
10.800999999999453,0.4968520943737009,-0.2631603680064633
11.000999999999342,0.5116095912470126,-0.23138620550605535
11.200999999999231,0.524501136597854,-0.2020841336704125
11.40099999999912,0.5474897288023615,-0.19694577691981538
11.60099999999901,0.5752338736319178,-0.198009060790723
11.800999999998899,0.6073238376219907,-0.21025176610265323
12.000999999998788,0.6275331437437139,-0.24024373326535234
12.200999999998677,0.6378192561315409,-0.27372264991744993
12.400999999998566,0.6356357630946718,-0.31085726151227727
12.600999999998455,0.6262700287727073,-0.35091958794615996
12.800999999998345,0.605673332427133,-0.381352203876563
13.000999999998234,0.586773317348135,-0.4064916771920801
13.200999999998123,0.5690674688910758,-0.4336674557028389
13.400999999998012,0.558138559533052,-0.4703216458301634
13.600999999997901,0.54287711936422,-0.49852725340240467
13.80099999999779,0.5242562660542378,-0.5256636912861449
14.00099999999768,0.5056561672314891,-0.5540667217584463
14.200999999997569,0.4825625061318303,-0.5807140136863131
14.400999999997458,0.45555280512374147,-0.6109800734957679
14.600999999997347,0.41963221113048244,-0.6352159299178469
14.800999999997236,0.38352058031569597,-0.6598004201333665
15.000999999997125,0.35555736165662266,-0.6911524800007681
15.200999999997014,0.3327825385862638,-0.7200875503402254
15.400999999996904,0.31229889998310356,-0.7434114761371786
15.600999999996793,0.2780218555113826,-0.7571548616315257
15.800999999996682,0.24175836083656216,-0.7642744185482588
16.000999999996573,0.20721107066714178,-0.7837439519978392
16.200999999996817,0.17625084041631045,-0.8102065695002022
16.40099999999706,0.13690258410418463,-0.828944393936347
16.600999999997306,0.10533184663434697,-0.8528018635402055
16.80099999999755,0.06839663558124136,-0.8654964056920835
17.000999999997795,0.03047086476403274,-0.8751168451420525
17.20099999999804,-0.00545370368564694,-0.8874175651188034
17.400999999998284,-0.039173713099412866,-0.9188326063360167
17.60099999999853,-0.08529062192041598,-0.9329960792249115
17.800999999998773,-0.12879518777429935,-0.9498989703341033
18.000999999999017,-0.1700469416392983,-0.9497342779933767
18.20099999999926,-0.20492158933120463,-0.9433411751338406
18.400999999999506,-0.2392354963102171,-0.9430394353578855
18.60099999999975,-0.2770026468181567,-0.9349160868430761
18.799999999999994,-0.31602256457431166,-0.9244016693662735
19.000000000000238,-0.36412967971465504,-0.9202571354874075
19.200000000000482,-0.40196165832277675,-0.8920744589940929
19.400000000000727,-0.4307475427057577,-0.8633895330190011
19.60000000000097,-0.4551472835877523,-0.8358712076368695
19.800000000001216,-0.4738686760738863,-0.8076497562312723
20.00000000000146,-0.500318554284687,-0.7801758806922346
