Time (s),X (m),Y (m)
0.001,0.0008115346074009382,-0.0008446836120385868
0.20000000000000015,0.0013880585027565792,0.00382273989579045
0.4000000000000003,0.005735771352013025,-0.0002478255788831783
0.6000000000000004,0.010844054372994797,-0.004695196232045886
0.8000000000000006,0.030102289438615017,-0.009703396662908913
1.0000000000000007,0.05318092610567604,-0.012078600141900323
1.2009999999999785,0.07549463761031558,-0.010891537531999724
1.4009999999999565,0.09867314185004088,-0.02526076773791074
1.6009999999999345,0.12282136073715935,-0.03308390201789119
1.8009999999999124,0.14885938529680237,-0.041800898475478535
2.0009999999998906,0.17889341856487376,-0.054166267362613665
2.2009999999998686,0.20315517427207205,-0.07274147658585602
2.4009999999998466,0.22393613542891175,-0.09188507876688223
2.6009999999998246,0.23787018981280394,-0.11642995663586855
2.8009999999998025,0.25352689483028307,-0.14868185396618347
3.0009999999997805,0.2592336189480155,-0.1965966153880964
3.2009999999997585,0.2687099913273303,-0.24181246810704732
3.4009999999997365,0.27909668893982387,-0.28685296312625663
3.6009999999997144,0.2964681213257025,-0.317900833763378
3.8009999999996924,0.3098726474485929,-0.35320896567515986
4.000999999999671,0.31435255917727917,-0.39150608134027004
4.200999999999738,0.32026981721384945,-0.4345294975867178
4.400999999999804,0.3248205417298979,-0.47257789608035
4.600999999999871,0.30696068694358075,-0.5075193730119729
4.800999999999938,0.29118811312476695,-0.5434961736000007
5.000000000000004,0.2541612201047113,-0.5702594213831392
5.200000000000071,0.22912851224860656,-0.5917881241011839
5.400000000000138,0.2005581201304865,-0.61580149335379
5.600000000000205,0.16715765020225398,-0.6350545722002151
5.800000000000272,0.1327760680222364,-0.6547635159360503
6.000000000000338,0.09189234228794599,-0.6717800383747643
6.200000000000405,0.060423359451033345,-0.6834184056372551
6.400000000000472,0.02075820893260139,-0.6946112072039747
6.600000000000539,-0.023494791068227227,-0.703360996805083
6.800000000000606,-0.07520812329174034,-0.7142064996832549
7.000000000000672,-0.1210373927430288,-0.7307217593082922
7.200000000000739,-0.155796660005937,-0.7517814386921527
7.400000000000806,-0.18679312892552014,-0.7745784017560916
7.600000000000873,-0.21615555163803588,-0.801909473303456
7.8000000000009395,-0.2597366581235648,-0.8212298242861092
8.000000000001005,-0.31835184108642645,-0.837528077696805
8.200000000000895,-0.3730046705839734,-0.8594913531396331
8.400000000000784,-0.406404701421688,-0.8908168596999105
8.600000000000673,-0.44495532938483173,-0.9195172528418258
8.800000000000562,-0.4905113132084529,-0.9405581662477087
9.000000000000451,-0.528443639345578,-0.955698260891918
9.20000000000034,-0.5619881815051595,-0.9707219152158851
9.40000000000023,-0.6143761379609155,-0.9800887036541697
9.600000000000119,-0.6559346788623895,-0.9936767183068723
9.800000000000008,-0.7066431433789386,-0.9955893628218453
10.000999999999896,-0.7596831852908995,-0.9951857445872409
10.200999999999786,-0.8111400765811612,-0.9837247731519801
10.400999999999675,-0.8571847437482941,-0.9739831711075804
10.600999999999564,-0.9008177912573654,-0.9439355517266211
10.800999999999453,-0.9347042914592839,-0.9066613797701654
11.000999999999342,-0.9578901670664831,-0.8659076249562818
11.200999999999231,-0.9745437927374251,-0.8198678381359011
11.40099999999912,-0.9883467808277872,-0.7769636683059151
11.60099999999901,-0.9967645749645552,-0.7255126424526054
11.800999999998899,-0.9957767743170033,-0.6730362906753661
12.000999999998788,-0.9871672334577078,-0.6255431664378449
12.200999999998677,-0.987067887473181,-0.5809243026519079
12.400999999998566,-0.9943826494505308,-0.539779553467984
12.600999999998455,-0.9859742876455837,-0.49953589378686364
12.800999999998345,-0.9663985921728742,-0.45929596250163524
13.000999999998234,-0.9391857695810202,-0.4244146702827692
13.200999999998123,-0.8871436008466436,-0.40803199267852025
13.400999999998012,-0.8440113902895656,-0.38526546369186665
13.600999999997901,-0.8035812358487257,-0.3745993929504113
13.80099999999779,-0.7594775911676553,-0.3809430678208459
14.00099999999768,-0.7232199774639503,-0.40238250882296994
14.200999999997569,-0.6982896723424896,-0.42816937597945903
14.400999999997458,-0.6840035901604294,-0.4749003516913343
14.600999999997347,-0.6699666571332862,-0.520173444491296
14.800999999997236,-0.6539933687267567,-0.5664549406839411
15.000999999997125,-0.6414353836485759,-0.611720893188903
15.200999999997014,-0.6300204473117008,-0.659930148545605
15.400999999996904,-0.6177300891720273,-0.6951553733058977
15.600999999996793,-0.5965795861538022,-0.7296024322852441
15.800999999996682,-0.5655810708171077,-0.7623475570627148
16.000999999996573,-0.5362223446578186,-0.7957083258140566
16.200999999996817,-0.522217753404354,-0.8428600915676608
16.40099999999706,-0.5168844296295152,-0.8865586198816614
16.600999999997306,-0.5285945567655143,-0.9275180585160617
16.80099999999755,-0.5546907550980643,-0.9650990231954434
17.000999999997795,-0.5999217694619706,-0.9966955864533147
17.20099999999804,-0.6492630430694436,-1.0272384428629255
17.400999999998284,-0.6960060177825672,-1.0527769971261012
17.60099999999853,-0.739477085127394,-1.0712518900340562
17.800999999998773,-0.7818456024646743,-1.083817765341736
18.000999999999017,-0.8210163798297999,-1.087820416482875
18.20099999999926,-0.8652375953015963,-1.0919313455641568
18.400999999999506,-0.9112587422541288,-1.088367196449147
18.60099999999975,-0.952172119613508,-1.087738014614086
18.799999999999994,-0.9885664012480794,-1.071637320146528
19.000000000000238,-1.0164232037147587,-1.037243482415393
19.200000000000482,-1.0316585967568521,-1.001309241859205
19.400000000000727,-1.0551643927219052,-0.9685607148963201
19.60000000000097,-1.0750998230267184,-0.9297395192381288
19.800000000001216,-1.091989681888037,-0.8795866826969024
20.00000000000146,-1.109090712857898,-0.8326221931643317
