Time (s),X (m),Y (m)
0.001,-0.00021570977506068912,0.0009345558501746678
0.20000000000000015,0.0027360270780083006,-0.0034980556908888617
0.4000000000000003,0.0067699044815929905,-0.0021824591599238705
0.6000000000000004,0.022840575316394496,-0.007575728886458048
0.8000000000000006,0.04785567889929685,-0.01732993163103893
1.0000000000000007,0.0697302891413471,-0.028881000245087426
1.2009999999999785,0.10020502752955471,-0.037914480845230865
1.4009999999999565,0.12017404830403078,-0.05760026423593048
1.6009999999999345,0.14389804977088616,-0.07844563134019791
1.8009999999999124,0.17398141660435143,-0.09527093210149264
2.0009999999998906,0.21081000012290876,-0.10297261889299916
2.2009999999998686,0.2326444775551447,-0.12859120959101397
2.4009999999998466,0.23887576910022795,-0.17062765781183611
2.6009999999998246,0.25395964949981076,-0.21569024865206848
2.8009999999998025,0.26891715351787165,-0.2631487399695086
3.0009999999997805,0.28974209274507484,-0.3057903417245719
3.2009999999997585,0.3071711823425176,-0.34862122618029284
3.4009999999997365,0.31752957261567116,-0.3932137089186439
3.6009999999997144,0.32645288065419487,-0.43507028366283645
3.8009999999996924,0.32602985514690547,-0.4685504573341051
4.000999999999671,0.3154689382788965,-0.5043040206625278
4.200999999999738,0.30002963718180903,-0.5398147446796145
4.400999999999804,0.2842258646335826,-0.5724957980662178
4.600999999999871,0.24665078783555297,-0.6022752342549992
4.800999999999938,0.19767701057755152,-0.6278752536160006
5.000000000000004,0.1504136729678216,-0.6530688493387781
5.200000000000071,0.11198045070317134,-0.6831239990587926
5.400000000000138,0.06612238831043649,-0.710168917717051
5.600000000000205,0.021599786604254764,-0.733543515547749
5.800000000000272,-0.01318802972581479,-0.7594286737091912
6.000000000000338,-0.040605422290056925,-0.7915355466050107
6.200000000000405,-0.07222107425724875,-0.8243341666746218
6.400000000000472,-0.10679032663321436,-0.850549897137433
6.600000000000539,-0.14644032800278292,-0.868577907330776
6.800000000000606,-0.18291489619643791,-0.8742804070927142
7.000000000000672,-0.21692990303442658,-0.8670450863635909
7.200000000000739,-0.24919004060957012,-0.8444291508095843
7.400000000000806,-0.27624834116017305,-0.8098739053138194
7.600000000000873,-0.3010466156092915,-0.77566817090793
7.8000000000009395,-0.32603208528442423,-0.7381596219918946
8.000000000001005,-0.3482544679159632,-0.707833422184315
8.200000000000895,-0.363709667734917,-0.6717277769136762
8.400000000000784,-0.3751545730016679,-0.6396298674507784
8.600000000000673,-0.3913804115031715,-0.6124068676817357
8.800000000000562,-0.40773105695449924,-0.5844662168897171
9.000000000000451,-0.43293791961411415,-0.5601135222997154
9.20000000000034,-0.451290729462363,-0.5158576099678103
9.40000000000023,-0.48126898318350886,-0.4874354511642921
9.600000000000119,-0.5127700920820336,-0.4665850667438314
9.800000000000008,-0.542512271380657,-0.4497189642883274
10.000999999999896,-0.5695921321622053,-0.42101267862734015
10.200999999999786,-0.5883833439903575,-0.3918130581722197
10.400999999999675,-0.6160042905056472,-0.3658297352692697
10.600999999999564,-0.6293364714192878,-0.33011092658940316
10.800999999999453,-0.640691573011931,-0.29207108972370366
11.000999999999342,-0.6643811671242177,-0.25348971156755756
11.200999999999231,-0.6964800619418943,-0.2204920418215183
11.40099999999912,-0.7138995602520132,-0.18490503170291014
11.60099999999901,-0.7169008284398425,-0.1498472706384083
11.800999999998899,-0.7131530374428001,-0.11085843864065713
12.000999999998788,-0.6952067779068444,-0.06625652616599073
12.200999999998677,-0.6705505980684978,-0.02329193797937136
12.400999999998566,-0.6416518975120807,0.01264879012452388
12.600999999998455,-0.6099739242595641,0.03930363121337613
12.800999999998345,-0.5748883828238938,0.05660407618556434
13.000999999998234,-0.5494533723628915,0.08900652278201947
13.200999999998123,-0.517894416717601,0.11913246602081189
13.400999999998012,-0.47596679241211687,0.1407043499109424
13.600999999997901,-0.4352653729376735,0.16891040584160372
13.80099999999779,-0.39363699223557197,0.1920237646494874
14.00099999999768,-0.35510432800079506,0.20809040311538798
14.200999999997569,-0.31403573098690385,0.21679818530431375
14.400999999997458,-0.26756180159332915,0.2324584334843838
14.600999999997347,-0.22063327391346366,0.22719135132865928
14.800999999997236,-0.17255945609714224,0.21634021285238847
15.000999999997125,-0.13050018474328579,0.1988665312820094
15.200999999997014,-0.09434844549093367,0.17012826346626098
15.400999999996904,-0.06668805252159757,0.12705140259919911
15.600999999996793,-0.04902063883567839,0.09012363746929243
15.800999999996682,-0.027139886665199633,0.049156164610701984
16.000999999996573,-0.006714550143434572,0.008586246194362775
16.200999999996817,0.010463945526549487,-0.034066679338193386
16.40099999999706,0.01021363404936634,-0.07811810851432202
16.600999999997306,-0.005315487679165502,-0.12369200569922831
16.80099999999755,-0.02531609254906413,-0.16683058773092901
17.000999999997795,-0.04254839361134159,-0.20555190845459015
17.20099999999804,-0.06990602389772353,-0.2356435552429262
17.400999999998284,-0.09963019497194539,-0.26424042703167133
17.60099999999853,-0.13051028263083778,-0.2972801293144825
17.800999999998773,-0.16318301996852008,-0.32782778534438256
18.000999999999017,-0.20871435168127883,-0.3480455230586619
18.20099999999926,-0.2502575405770444,-0.3656604643781899
18.400999999999506,-0.2876579085794277,-0.38050032742473405
18.60099999999975,-0.32908208484232515,-0.3818128012355559
18.799999999999994,-0.370206457943944,-0.36184392028903206
19.000000000000238,-0.4089240820608434,-0.3381234373898571
19.200000000000482,-0.4418673641865419,-0.30271926965255597
19.400000000000727,-0.4728371273660421,-0.2687195673837293
19.60000000000097,-0.49834979849858396,-0.22789045818003956
19.800000000001216,-0.5159036088586343,-0.18430050167465686
20.00000000000146,-0.5411410587156837,-0.14774516375823943
