Time (s),X (m),Y (m)
0.001,0.0011890620069237587,-0.00035268032603768894
0.20000000000000015,-0.0011146871325490428,0.002006405153060225
0.4000000000000003,-0.00038649128339825314,0.002093231132995262
0.6000000000000004,0.003414286901959387,0.0008232352302108602
0.8000000000000006,0.012775641518812976,0.0005237921832821161
1.0000000000000007,0.02149777579354127,0.003925896084287796
1.2009999999999785,0.028251452103111332,0.002596658284177957
1.4009999999999565,0.035905319550202056,-0.0008481330900997392
1.6009999999999345,0.044931295624328696,-0.0017871972193178175
1.8009999999999124,0.05889068341447872,-0.0037432848752559137
2.0009999999998906,0.07559432011550361,-0.004088235013461034
2.2009999999998686,0.08488523020803684,0.0002322828831764666
2.4009999999998466,0.09071092782257352,0.0018494409594361709
2.6009999999998246,0.10268724501017679,-0.0013368605031620873
2.8009999999998025,0.11646797512405355,-0.0032606382242365696
3.0009999999997805,0.12622751717715078,-0.0008167765571367483
3.2009999999997585,0.14656384556749094,-0.0035351761652007534
3.4009999999997365,0.16947388752808823,-0.006660445391931679
3.6009999999997144,0.18803417172926448,-0.014391197656358674
3.8009999999996924,0.19692762606198855,-0.016111129412472645
4.000999999999671,0.20004479461553734,-0.01896599290513603
4.200999999999738,0.21157591366678008,-0.022850267185152952
4.400999999999804,0.2261102793209855,-0.028887889962296485
4.600999999999871,0.2503042955616989,-0.0322636750035002
4.800999999999938,0.27200631055315233,-0.03503017562885499
5.000000000000004,0.29321143425546503,-0.03972266513636831
5.200000000000071,0.3126864108881386,-0.04063958791875163
5.400000000000138,0.3386679174017788,-0.044308432395187704
5.600000000000205,0.3636696911270327,-0.0571938911768443
5.800000000000272,0.38566816845939134,-0.06705604394644508
6.000000000000338,0.4084299722601999,-0.07489968485419479
6.200000000000405,0.4303555334607684,-0.08361267761396705
6.400000000000472,0.4526930903689373,-0.09818770801483023
6.600000000000539,0.47561628311932735,-0.10793751833395764
6.800000000000606,0.5021254932286566,-0.11881853600615189
7.000000000000672,0.5229633531565507,-0.13292431798459517
7.200000000000739,0.5506508009914881,-0.1446389483544764
7.400000000000806,0.5768583665185643,-0.15584764544340302
7.600000000000873,0.6067715957338526,-0.16721737027912265
7.8000000000009395,0.6291728531813721,-0.18216927978490846
8.000000000001005,0.6501150674438722,-0.20077961020859697
8.200000000000895,0.6721166216392601,-0.2105023874590902
8.400000000000784,0.6935761495829902,-0.22433673093276818
8.600000000000673,0.7104553122446001,-0.2355510271006465
8.800000000000562,0.725069989644213,-0.25057795616314155
9.000000000000451,0.7456824392651202,-0.27055803340292983
9.20000000000034,0.7597688466011955,-0.29183219713561825
9.40000000000023,0.7674156472092102,-0.31886081871411703
9.600000000000119,0.7797291112902089,-0.3410093551229898
9.800000000000008,0.7931990897104731,-0.36652502083395866
10.000999999999896,0.7995302498623892,-0.39106175073783517
10.200999999999786,0.7982600448575912,-0.4150515363943147
10.400999999999675,0.794041395824728,-0.4405587130221942
10.600999999999564,0.7879990911771273,-0.46445639472942707
10.800999999999453,0.7834257124021577,-0.4799103531468712
11.000999999999342,0.7812401784897482,-0.5052978953444062
11.200999999999231,0.7726224237178902,-0.5368258695014598
11.40099999999912,0.7575290823930209,-0.5701529279232256
11.60099999999901,0.7477639089138683,-0.5965083205235604
11.800999999998899,0.7377386423536659,-0.6226967737827113
12.000999999998788,0.7272992445910205,-0.6524079715981367
12.200999999998677,0.7251381876240769,-0.6701513268435638
12.400999999998566,0.7146116185699436,-0.6950119651939327
12.600999999998455,0.7015615513303514,-0.7230864976220837
12.800999999998345,0.6854595943125064,-0.7505561426492624
13.000999999998234,0.669765336049471,-0.7826915666629797
13.200999999998123,0.6555826453136782,-0.8106709656566569
13.400999999998012,0.6411845532693065,-0.8355606878713147
13.600999999997901,0.6279169145126896,-0.8602220327231189
13.80099999999779,0.619185407211093,-0.8799400988185125
14.00099999999768,0.6061441920138554,-0.9069209900202385
14.200999999997569,0.5898147017393214,-0.9281868172153154
14.400999999997458,0.562775877593819,-0.9486141068635016
14.600999999997347,0.54211943946006,-0.9681089389536749
14.800999999997236,0.5225458403803042,-0.9833528141138747
15.000999999997125,0.5048136040144281,-0.9967102506270943
15.200999999997014,0.4835275243049727,-1.0034237343775774
15.400999999996904,0.4586683373103291,-1.0078743430486443
15.600999999996793,0.4370907391962396,-1.008280491725636
15.800999999996682,0.413644744186013,-1.0039929570849684
16.000999999996573,0.3892113905725648,-1.0032362797520211
16.200999999996817,0.3697743377720785,-1.0033483339186056
16.40099999999706,0.3530305322656665,-1.002884416261333
16.600999999997306,0.32695912863150356,-0.9984394535239179
16.80099999999755,0.3029783838174338,-0.9938955361951967
17.000999999997795,0.28415544665177866,-0.9898704145068027
17.20099999999804,0.2610171869074727,-0.9820136428873384
17.400999999998284,0.23835210839119297,-0.97324004789243
17.60099999999853,0.21187809142774544,-0.9664107186028361
17.800999999998773,0.1859447858433353,-0.9559627955131934
18.000999999999017,0.16426624297277792,-0.9525289916937436
18.20099999999926,0.14016815211536612,-0.9442630918437802
18.400999999999506,0.1099661969948524,-0.9295071712018429
18.60099999999975,0.08209295154846663,-0.9157981394040217
18.799999999999994,0.05972995480335692,-0.902485503296893
19.000000000000238,0.03963287607186468,-0.895451117036776
19.200000000000482,0.020666310671065342,-0.886827744637835
19.400000000000727,-0.002712329575438702,-0.8764329330594107
19.60000000000097,-0.02551496311224587,-0.8682427037639399
19.800000000001216,-0.049957140645344886,-0.8581063600428791
20.00000000000146,-0.07034856591172155,-0.8540963393680338
