Time (s),X (m),Y (m)
0.001,0.00048696676677933824,0.00099603208171127
0.20000000000000015,0.0003011668949903306,-0.0005715964186228691
0.4000000000000003,0.009111341232821061,-0.0030255692546064714
0.6000000000000004,0.021188468502385507,-0.018383723543619012
0.8000000000000006,0.030865763428379572,-0.023500107811431702
1.0000000000000007,0.04966975274606135,-0.008106006178641524
1.2009999999999785,0.07617574828383687,-0.0015633593248926612
1.4009999999999565,0.10574982400138182,-0.002366506685137977
1.6009999999999345,0.1474224902758937,0.005980031457906915
1.8009999999999124,0.19752981225825725,0.01696170287319382
2.0009999999998906,0.24502895563707433,0.01981378150526302
2.2009999999998686,0.2834722621731115,0.014731647075002095
2.4009999999998466,0.31657312731983306,0.0024977903783321505
2.6009999999998246,0.3557824401893882,-0.011773090514830371
2.8009999999998025,0.3742447458511228,-0.030742545876956323
3.0009999999997805,0.36914702542552486,-0.05624987870145995
3.2009999999997585,0.36147529281601026,-0.08806268940789908
3.4009999999997365,0.3546701031777183,-0.12943934474192675
3.6009999999997144,0.3447495368923377,-0.16998059921271705
3.8009999999996924,0.3279024302515812,-0.20398178678900394
4.000999999999671,0.31420064042261275,-0.24121503702789995
4.200999999999738,0.3052517392016324,-0.28596783178966867
4.400999999999804,0.30459460168945157,-0.3419220562706046
4.600999999999871,0.29605489273583935,-0.39096452379753277
4.800999999999938,0.28730704597787604,-0.440511846133517
5.000000000000004,0.2842549988014416,-0.4923403773369325
5.200000000000071,0.2881510732707159,-0.5456068457267066
5.400000000000138,0.2852900786235078,-0.5707745914229835
5.600000000000205,0.26287977607559004,-0.5812254888237183
5.800000000000272,0.2240779487827241,-0.5980035402468852
6.000000000000338,0.1834423692180296,-0.6022867984620386
6.200000000000405,0.1366827677003948,-0.6119001246624248
6.400000000000472,0.08226611197037775,-0.6208671445814201
6.600000000000539,0.032228650701637336,-0.6175752682239325
6.800000000000606,-0.017803062410677983,-0.6245121658650648
7.000000000000672,-0.07201771140347142,-0.6371536539546024
7.200000000000739,-0.1259714585450372,-0.6467698384000016
7.400000000000806,-0.1798722999600465,-0.6508928036619898
7.600000000000873,-0.2328542433905213,-0.662700703512746
7.8000000000009395,-0.29198816902047553,-0.6657215114309467
8.000000000001005,-0.3477203547226902,-0.6571644933460747
8.200000000000895,-0.37163909038316906,-0.6349920090069927
8.400000000000784,-0.40808481986691675,-0.5997111595555308
8.600000000000673,-0.45981781351866996,-0.5564544985436918
8.800000000000562,-0.5038825050674155,-0.5117165279495569
9.000000000000451,-0.5207605375027071,-0.46608668016923765
9.20000000000034,-0.5181471899802885,-0.4210088609429875
9.40000000000023,-0.5250499514122939,-0.36778904680667346
9.600000000000119,-0.5471159649409155,-0.310247595749437
9.800000000000008,-0.5721480267391756,-0.24560360204203285
10.000999999999896,-0.5819818752508444,-0.1932720490194598
10.200999999999786,-0.5815770823429692,-0.14255280252889974
10.400999999999675,-0.5826352825737154,-0.08046426217324673
10.600999999999564,-0.5780452931915171,-0.009109413684328393
10.800999999999453,-0.5696885279941972,0.04447424953221515
11.000999999999342,-0.5553882066361152,0.09139403837046457
11.200999999999231,-0.5435522143071786,0.14982494011799571
11.40099999999912,-0.5275956562035916,0.19969514590955456
11.60099999999901,-0.5166818847312459,0.24876535870740135
11.800999999998899,-0.5072074050194233,0.2995120796728546
12.000999999998788,-0.4954828648176883,0.3584166679612378
12.200999999998677,-0.4826238715660806,0.4157733615542959
12.400999999998566,-0.46159245287223205,0.464032397147883
12.600999999998455,-0.43197283154439636,0.5101000599221358
12.800999999998345,-0.4079457081401283,0.5573366900810687
13.000999999998234,-0.3869452666525653,0.6079916779951218
13.200999999998123,-0.3629514807438715,0.6452611250477274
13.400999999998012,-0.33389625487672064,0.693988495175586
13.600999999997901,-0.30137475199523356,0.7261543224847518
13.80099999999779,-0.2639120945617193,0.7380366742308038
14.00099999999768,-0.21949709434273162,0.7703176964901004
14.200999999997569,-0.17093712265350358,0.7938912458916112
14.400999999997458,-0.11487575117184054,0.8089392597518787
14.600999999997347,-0.06014302359151675,0.8106391726212834
14.800999999997236,-0.009401966072426039,0.8097591394608413
15.000999999997125,0.036579445472238195,0.8082809286620029
15.200999999997014,0.0890187903747652,0.798578404787657
15.400999999996904,0.14615953882897312,0.7918266976658916
15.600999999996793,0.2116630624035178,0.7798849218724963
15.800999999996682,0.2769766166313335,0.7580707641064711
16.000999999996573,0.3391072563215215,0.7294905093655111
16.200999999996817,0.396548319255491,0.702236443167278
16.40099999999706,0.46799684055762075,0.6872689783796573
16.600999999997306,0.5286608015864253,0.6748129189991983
16.80099999999755,0.5645661512512186,0.6426592568482847
17.000999999997795,0.5883209673059778,0.5903942426768072
17.20099999999804,0.5966525359643526,0.5378742758236958
17.400999999998284,0.5891169698629574,0.4881406239971329
17.60099999999853,0.578774904894789,0.44477910627306144
17.800999999998773,0.5575106983533492,0.4125669075976165
18.000999999999017,0.5174637271041544,0.38884997479218814
18.20099999999926,0.4635062546631397,0.36413339707103237
18.400999999999506,0.40886608556596177,0.32798239739383356
18.60099999999975,0.3532305942270199,0.2974311826960489
18.799999999999994,0.2940769227754413,0.2771124492947966
19.000000000000238,0.23427827812257468,0.23986126595772939
19.200000000000482,0.17371090613520154,0.20030100184309516
19.400000000000727,0.1179940698881535,0.17597324283187724
19.60000000000097,0.06652412176946952,0.1498951455760343
19.800000000001216,0.010806379201261549,0.13253944541071136
20.00000000000146,-0.041820071989759434,0.11544957860373088
