Time (s),X (m),Y (m)
0.001,-0.000811087514270633,3.327365771613117e-19
0.20000000000000015,0.004933100715944329,-0.0007953846626181253
0.4000000000000003,0.01167349963045593,-0.004320170615348825
0.6000000000000004,0.02397131327670519,-0.0068074983489571535
0.8000000000000006,0.03831563554465232,-0.007616990589174805
1.0000000000000007,0.05367260150842671,-0.004686813230572965
1.2009999999999785,0.0701958521005515,-0.007988133043253453
1.4009999999999565,0.08220367616340048,-0.01112328349601305
1.6009999999999345,0.09384045298056869,-0.012342475524802679
1.8009999999999124,0.10617775259412846,-0.015212457582710436
2.0009999999998906,0.10839950014740973,-0.013677283735375651
2.2009999999998686,0.11754396476985614,-0.01168797576276089
2.4009999999998466,0.1278567301780486,-0.013871473575342482
2.6009999999998246,0.15418276155439434,-0.023972788909700386
2.8009999999998025,0.16816803124809873,-0.03955574039110896
3.0009999999997805,0.18393601598691195,-0.05807691522671147
3.2009999999997585,0.1945682981577957,-0.07282255462176268
3.4009999999997365,0.20649220996723397,-0.08145227496778555
3.6009999999997144,0.2203084730908319,-0.09272537289333152
3.8009999999996924,0.24084617662629743,-0.10117568685684097
4.000999999999671,0.26415326659111477,-0.11149509777601065
4.200999999999738,0.2907736416161697,-0.12339654420066799
4.400999999999804,0.3099398661316368,-0.1352975581828865
4.600999999999871,0.3319788751919077,-0.14538693410718967
4.800999999999938,0.36430540563048275,-0.16212044054870337
5.000000000000004,0.3987702204169846,-0.1797899315237943
5.200000000000071,0.4211821133821221,-0.1960188151520983
5.400000000000138,0.4407191010266401,-0.20874858532387666
5.600000000000205,0.4663469357551917,-0.22032302480171748
5.800000000000272,0.5004912415059701,-0.23427496658933664
6.000000000000338,0.536058537623696,-0.25330703970005897
6.200000000000405,0.5642059338624793,-0.26583511844210017
6.400000000000472,0.5861568865606946,-0.27544993889464114
6.600000000000539,0.6163813449254638,-0.2971535047222938
6.800000000000606,0.6559391137914714,-0.3206620183158938
7.000000000000672,0.6870470828712388,-0.33317434699556353
7.200000000000739,0.7243487894004449,-0.3569965906764387
7.400000000000806,0.7678069583612666,-0.3871170820330157
7.600000000000873,0.8103999701564102,-0.41228122672303896
7.8000000000009395,0.8527109984707876,-0.4453624693833715
8.000000000001005,0.9019699266585415,-0.4747429735139754
8.200000000000895,0.9440631641234308,-0.4918137980686586
8.400000000000784,0.967419422004596,-0.5022727923294691
8.600000000000673,0.994328957441991,-0.5189939875655325
8.800000000000562,1.0292533802330925,-0.5431866883006929
9.000000000000451,1.068120150761326,-0.5693264995055802
9.20000000000034,1.110696604051549,-0.5917416815351776
9.40000000000023,1.151800209305839,-0.6225051787076507
9.600000000000119,1.1807381146878848,-0.6539126448890055
9.800000000000008,1.1898974151435324,-0.6756858481570522
10.000999999999896,1.1855952221168298,-0.7239186102278016
10.200999999999786,1.1701760608988923,-0.7736430581843592
10.400999999999675,1.148622410233495,-0.8215582452260527
10.600999999999564,1.1262255920445745,-0.8644928465876834
10.800999999999453,1.0962689617667456,-0.915878680779601
11.000999999999342,1.0720166546989667,-0.9644060664359226
11.200999999999231,1.0511110622229252,-1.003841886564133
11.40099999999912,1.028194450359802,-1.039773108920813
11.60099999999901,1.0053066100607198,-1.0770632538863376
11.800999999998899,0.9625278685288519,-1.1176371955463862
12.000999999998788,0.9315821353528937,-1.1537329658305948
12.200999999998677,0.90169725407161,-1.1810165533033348
12.400999999998566,0.8754012576949415,-1.2025443639841682
12.600999999998455,0.844292374944765,-1.2137154004616941
12.800999999998345,0.7900408966069203,-1.2140270382389686
13.000999999998234,0.7405832820403362,-1.2022402196733002
13.200999999998123,0.6874825618100036,-1.1741237584479756
13.400999999998012,0.6337980315778667,-1.1348887961107754
13.600999999997901,0.5993589745240921,-1.0948077795884248
13.80099999999779,0.5927253699067556,-1.0431695596402153
14.00099999999768,0.6078385538477564,-0.9979078459528534
14.200999999997569,0.635348675594141,-0.9520289289323229
14.400999999997458,0.6638858728158646,-0.9083333582557381
14.600999999997347,0.6918707821409699,-0.8688502230949301
14.800999999997236,0.7268213857354366,-0.8259672191378545
15.000999999997125,0.7756668252901181,-0.7818405734232156
15.200999999997014,0.819342562535445,-0.7538363680828006
15.400999999996904,0.8531309485607712,-0.7426869040659796
15.600999999996793,0.8782815665101738,-0.743489325357195
15.800999999996682,0.9007658940537803,-0.7500177524013029
16.000999999996573,0.9175945969013682,-0.7591040638805193
16.200999999996817,0.946357991400417,-0.776047849272991
16.40099999999706,0.9879611280254997,-0.7959216263796263
16.600999999997306,1.0301767465361342,-0.8144605069925129
16.80099999999755,1.0740597613752492,-0.8317597716745194
17.000999999997795,1.1366050014858586,-0.8597643932002841
17.20099999999804,1.1983152798521244,-0.895165919470894
17.400999999998284,1.245494935583001,-0.9267451429183498
17.60099999999853,1.2909102969890127,-0.9538610144177234
17.800999999998773,1.3288861112547126,-0.9819605898896362
18.000999999999017,1.3595057522089216,-1.0101486154100592
18.20099999999926,1.3940037405842869,-1.0295948400276724
18.400999999999506,1.4394721271876176,-1.049930854486803
18.60099999999975,1.4813054513415285,-1.0702820774916801
18.799999999999994,1.5185822763135661,-1.0908376569113447
19.000000000000238,1.54786889502043,-1.1103832307709727
19.200000000000482,1.5745170909031478,-1.125965407709001
19.400000000000727,1.6028677796004747,-1.1403932460015462
19.60000000000097,1.6439853791549701,-1.1599459582522775
19.800000000001216,1.6941038265515456,-1.1867764213512195
20.00000000000146,1.7417206850766889,-1.2183035548021592
