Time (s),X (m),Y (m)
0.001,4.1020280575708355e-05,-0.0010155025257856578
0.20000000000000015,0.005367098538780836,0.0057945735107514445
0.4000000000000003,0.015462668784608053,0.008649458199960103
0.6000000000000004,0.026394923892382866,0.0034469346079919402
0.8000000000000006,0.04565658156178299,0.011385516548873105
1.0000000000000007,0.07119550738464674,0.00633277926318549
1.2009999999999785,0.10471319404722032,0.026791035068872097
1.4009999999999565,0.15124958879110328,0.04614131791595729
1.6009999999999345,0.20196382580595748,0.057988316649275236
1.8009999999999124,0.24738569390669723,0.07108147332207665
2.0009999999998906,0.29017840933908123,0.07511135204070568
2.2009999999998686,0.32174445088512865,0.05783378460109845
2.4009999999998466,0.3554836274039738,0.03753853302582598
2.6009999999998246,0.39046696666936814,0.01381564862379936
2.8009999999998025,0.42332167947884214,-0.014797236901555155
3.0009999999997805,0.46854569070152163,-0.03334274617834231
3.2009999999997585,0.5220577955977532,-0.04136859011614986
3.4009999999997365,0.5611029494805879,-0.06192115284607009
3.6009999999997144,0.6053706281917093,-0.0838504901257592
3.8009999999996924,0.6669411244221166,-0.10568971667424344
4.000999999999671,0.7124313501288978,-0.1315294211765813
4.200999999999738,0.7409663796056823,-0.16798638810645505
4.400999999999804,0.760300994133455,-0.21245099110467466
4.600999999999871,0.7709058821779331,-0.2629243581095377
4.800999999999938,0.7790904794585498,-0.3166391123375003
5.000000000000004,0.7738280293079463,-0.36469753837262275
5.200000000000071,0.7664220907207973,-0.4154661100342844
5.400000000000138,0.7727545780841788,-0.4749568348242361
5.600000000000205,0.7608377290446189,-0.5197587636137974
5.800000000000272,0.7473291793336083,-0.5639950001963671
6.000000000000338,0.7421334040586041,-0.6153138370981661
6.200000000000405,0.7333354640168116,-0.6634406908364577
6.400000000000472,0.7243196078486435,-0.7127370871545499
6.600000000000539,0.718517857329788,-0.7619291323903976
6.800000000000606,0.7153247918791288,-0.8126346092356042
7.000000000000672,0.7002032618983428,-0.8442240876798027
7.200000000000739,0.6771934185244689,-0.8797976388970088
7.400000000000806,0.6406240535823564,-0.9031674168604814
7.600000000000873,0.5921143541687417,-0.9097362857219552
7.8000000000009395,0.5340848603176599,-0.9118312274581705
8.000000000001005,0.4699027790454627,-0.9160086075778893
8.200000000000895,0.4100703666007515,-0.9136814646063429
8.400000000000784,0.34605349285369263,-0.9177522743945005
8.600000000000673,0.2851220308058421,-0.9106973326218639
8.800000000000562,0.2250164175118039,-0.9000856466213356
9.000000000000451,0.17825082534883913,-0.8776754308078637
9.20000000000034,0.13011090856187485,-0.8499446063319887
9.40000000000023,0.0971074846931453,-0.8157820019356811
9.600000000000119,0.07204744421195067,-0.7813860318639441
9.800000000000008,0.07460965129658817,-0.7439630080421791
10.000999999999896,0.0738794116327299,-0.6985368285142333
10.200999999999786,0.08081184397911545,-0.6478927167009989
10.400999999999675,0.0840879487815793,-0.5895942697580853
10.600999999999564,0.08945487634999977,-0.5266849260478048
10.800999999999453,0.09704571635300545,-0.47051526509930364
11.000999999999342,0.1145585538236947,-0.4187769479423927
11.200999999999231,0.1284843009088562,-0.3561062700900071
11.40099999999912,0.14968102359870186,-0.29296499333406895
11.60099999999901,0.1726091283342865,-0.24275814539200322
11.800999999998899,0.20170079246394304,-0.2139390150169233
12.000999999998788,0.24439807526851243,-0.1865287463777354
12.200999999998677,0.2863038919948618,-0.17922333420900946
12.400999999998566,0.30964207730975923,-0.17784639806467176
12.600999999998455,0.31607771030781384,-0.199943444207076
12.800999999998345,0.3109999754736012,-0.23866143659520472
13.000999999998234,0.30871109179931044,-0.29299603121628587
13.200999999998123,0.31751558990022877,-0.3496935965279222
13.400999999998012,0.3203713884316577,-0.4055273174019342
13.600999999997901,0.3128990341202458,-0.4571641977878084
13.80099999999779,0.3088676783667221,-0.5176834293197561
14.00099999999768,0.3033284245353539,-0.5649789835788029
14.200999999997569,0.28842554122692926,-0.6081473283841458
14.400999999997458,0.2667076949688112,-0.651668680810415
14.600999999997347,0.23833202207522391,-0.688330349460144
14.800999999997236,0.21472072197605804,-0.7244241108779956
15.000999999997125,0.18968413692779595,-0.7505830872303711
15.200999999997014,0.16239767242562983,-0.7924932109706903
15.400999999996904,0.1355026340149883,-0.832634207536349
15.600999999996793,0.10035536749076092,-0.8709615612271242
15.800999999996682,0.06008739881891123,-0.8870408672429674
16.000999999996573,0.00618315694401269,-0.8986918311441426
16.200999999996817,-0.0497560898882657,-0.921654899520278
16.40099999999706,-0.1004416394002812,-0.9490322615131955
16.600999999997306,-0.1515332248339182,-0.9643135536571111
16.80099999999755,-0.21063516598563528,-0.9839714825969956
17.000999999997795,-0.26378511283932043,-0.9876499182635854
17.20099999999804,-0.32113655921428014,-0.9917294980016711
17.400999999998284,-0.37594804767220813,-0.9852236267664207
17.60099999999853,-0.4224088795651405,-0.9683908319407463
17.800999999998773,-0.4438754848835743,-0.9386066455563072
18.000999999999017,-0.45009849499978954,-0.8982782523601771
18.20099999999926,-0.4402630978216094,-0.8549919348754561
18.400999999999506,-0.42642506510531586,-0.8114529984763594
18.60099999999975,-0.4197958560654148,-0.7608272727991992
18.799999999999994,-0.41805758537291404,-0.705966486036881
19.000000000000238,-0.424542649385347,-0.6442747176408825
19.200000000000482,-0.4207953309214653,-0.5914277068315443
19.400000000000727,-0.40430518667926374,-0.5417371903515728
19.60000000000097,-0.38343612633891033,-0.4921563836837278
19.800000000001216,-0.3561399394134328,-0.44679145688166494
20.00000000000146,-0.32603218921553817,-0.41341312819228315
