Time (s),X (m),Y (m)
0.001,-0.0007489004572251305,-0.00035268032603768894
0.20000000000000015,0.005051128413460132,0.0012725666286485708
0.4000000000000003,0.013992363879328047,0.00409233651448976
0.6000000000000004,0.02278149915021714,0.004708165282197293
0.8000000000000006,0.02480760276652776,0.007048113112200923
1.0000000000000007,0.02736034430217303,0.008123190050497053
1.2009999999999785,0.02995786172462265,0.01301976224580935
1.4009999999999565,0.04585580987625223,0.01599797060983233
1.6009999999999345,0.05829502165386494,0.019499689063306215
1.8009999999999124,0.07195512238338672,0.023967581293796992
2.0009999999998906,0.0892686723298615,0.033802141796654
2.2009999999998686,0.10321654481529319,0.039059947671235856
2.4009999999998466,0.11578753729377073,0.04394621640262261
2.6009999999998246,0.11309348534453298,0.0381046937540945
2.8009999999998025,0.12197014605135913,0.03429428367867643
3.0009999999997805,0.13910425203593657,0.034370415068909296
3.2009999999997585,0.15348099276197658,0.028992196930891147
3.4009999999997365,0.1691008290736183,0.022570377640002654
3.6009999999997144,0.18894548145713827,0.02413754247789075
3.8009999999996924,0.20623784665939407,0.016329660667807003
4.000999999999671,0.21925245016929815,0.0015181025799066504
4.200999999999738,0.23287004301522898,-0.014787905679637761
4.400999999999804,0.256799176903074,-0.03247486879343119
4.600999999999871,0.2896309955111065,-0.04904919971454908
4.800999999999938,0.3106143690027219,-0.0711047348578378
5.000000000000004,0.32483699882257205,-0.08842295086394102
5.200000000000071,0.34383149644250544,-0.10202629478967741
5.400000000000138,0.356047971756066,-0.11349528302374003
5.600000000000205,0.36749884484916534,-0.12371671347081988
5.800000000000272,0.37309901380286514,-0.12605537090015886
6.000000000000338,0.38874468509415616,-0.13344479301063994
6.200000000000405,0.40730698604043614,-0.1436874466870153
6.400000000000472,0.4325613133073176,-0.15753327211652715
6.600000000000539,0.45568956275660916,-0.17676527801048356
6.800000000000606,0.47840113612828433,-0.19557346207020232
7.000000000000672,0.5039660243810954,-0.20858099147174114
7.200000000000739,0.522100201171927,-0.2210791802919935
7.400000000000806,0.5435929009693851,-0.23615086940233912
7.600000000000873,0.5657406126071979,-0.25117211435223824
7.8000000000009395,0.5926880545236272,-0.2691198242554544
8.000000000001005,0.6185177572378942,-0.2840564637124458
8.200000000000895,0.640777700250689,-0.3019817735993978
8.400000000000784,0.656784444033923,-0.3182849033308888
8.600000000000673,0.6778633738173451,-0.3333582133523183
8.800000000000562,0.6957540368768252,-0.35004762831552366
9.000000000000451,0.7092536658746734,-0.3676070007768382
9.20000000000034,0.7289986934272947,-0.38218499869153333
9.40000000000023,0.7491967135942335,-0.39761065748727786
9.600000000000119,0.7661576780828301,-0.4064171828493214
9.800000000000008,0.7831736239787842,-0.41160078426101926
10.000999999999896,0.7988512299281514,-0.420012301111106
10.200999999999786,0.8204626050196743,-0.4282090760788107
10.400999999999675,0.8397409607883106,-0.4379882832191487
10.600999999999564,0.8666373102227404,-0.4494293108255883
10.800999999999453,0.8872332343148757,-0.46113759937972637
11.000999999999342,0.9181568995562336,-0.47188642683198817
11.200999999999231,0.9394050413726039,-0.48277285999078323
11.40099999999912,0.9600076179433725,-0.4939694276894389
11.60099999999901,0.9824380678349954,-0.5119885466369342
11.800999999998899,0.9979162560355342,-0.5322982324270911
12.000999999998788,1.0158087567313934,-0.5444301852238573
12.200999999998677,1.048020290873856,-0.5526687979496984
12.400999999998566,1.0672128640537075,-0.5658148083787476
12.600999999998455,1.0948727487585284,-0.5821812003889533
12.800999999998345,1.1209574192391523,-0.6002800490137433
13.000999999998234,1.153055299571382,-0.6215284769358534
13.200999999998123,1.1769835758622549,-0.6405887495962538
13.400999999998012,1.2146044854378215,-0.6614872848621033
13.600999999997901,1.2360984731592473,-0.6780677278569068
13.80099999999779,1.2542428647523307,-0.6950217594588606
14.00099999999768,1.279287089259892,-0.7099926238448848
14.200999999997569,1.297122382846119,-0.7259536519148992
14.400999999997458,1.3148998312411007,-0.7382343127988993
14.600999999997347,1.342452502317736,-0.7517738960422453
14.800999999997236,1.3600501766687456,-0.7657350571337609
15.000999999997125,1.3684344022020807,-0.7779050693051383
15.200999999997014,1.3891378952627365,-0.7877092649697472
15.400999999996904,1.4136213844262004,-0.7921039508051444
15.600999999996793,1.4340651600126566,-0.7956749875766649
15.800999999996682,1.4563897366688994,-0.8012365409783705
16.000999999996573,1.4820969720074253,-0.8092564563159957
16.200999999996817,1.5059668700728877,-0.8148535127057064
16.40099999999706,1.5282789644527213,-0.8187738349130138
16.600999999997306,1.552762942526292,-0.8246986443649631
16.80099999999755,1.5763460235926292,-0.836220253316448
17.000999999997795,1.597142559336411,-0.8473184776596098
17.20099999999804,1.6233984258168763,-0.856529078154399
17.400999999998284,1.6562469755103704,-0.8714278389267125
17.60099999999853,1.684907547128594,-0.8853647789986865
17.800999999998773,1.6951927985799642,-0.8994687470178582
18.000999999999017,1.7128642159856955,-0.911074863211746
18.20099999999926,1.7382045097923315,-0.924904924522754
18.400999999999506,1.7640869856660664,-0.9414344151947437
18.60099999999975,1.7877364475382767,-0.9600351493458466
18.799999999999994,1.8108248173806472,-0.981127790107485
19.000000000000238,1.8426767428965665,-1.0081792849498812
19.200000000000482,1.8702435401541118,-1.0365301309596895
19.400000000000727,1.9017113245512394,-1.0608224663799675
19.60000000000097,1.9317089464148263,-1.0852010048708374
19.800000000001216,1.9528746782029156,-1.1052132671535495
20.00000000000146,1.9718180147023994,-1.121415672320724
