Time (s),X (m),Y (m)
0.001,0.0003099530129853942,-0.0010272443824616275
0.20000000000000015,0.000813320864685524,0.0036832276278571546
0.4000000000000003,0.0016479062135134226,0.0030039586682841734
0.6000000000000004,0.004368801066709474,0.005980743032251404
0.8000000000000006,0.006581195877894256,0.00614855007378818
1.0000000000000007,0.011159362162547603,0.004943059073163678
1.2009999999999785,0.014854184407045641,0.007684439183166045
1.4009999999999565,0.018133222018241617,0.007303935682899742
1.6009999999999345,0.021028649804847057,0.0074982998306255015
1.8009999999999124,0.02599493874335904,0.001773143003458808
2.0009999999998906,0.02871329328971772,0.005057580306875755
2.2009999999998686,0.03394363449221632,0.002541347669276237
2.4009999999998466,0.036721013360429024,-0.0037033627691070428
2.6009999999998246,0.04038532120982025,0.0033636745238834645
2.8009999999998025,0.04302992143049388,-0.0005574233809156135
3.0009999999997805,0.045709742490805685,-0.0039841905111303345
3.2009999999997585,0.04932959354431216,0.00046162704317215307
3.4009999999997365,0.05271198038379383,-0.0037202201984594023
3.6009999999997144,0.05600888014809167,-0.0077917840580292155
3.8009999999996924,0.06051593447072626,-0.008358824677219689
4.000999999999671,0.06435541674066876,-0.011305740499402223
4.200999999999738,0.0678270756290617,-0.015102594424308355
4.400999999999804,0.07127706702262555,-0.018266758037267544
4.600999999999871,0.07524518787779948,-0.020479052718328384
4.800999999999938,0.07893689887078746,-0.02102226119261659
5.000000000000004,0.08202445794205294,-0.02311693471308875
5.200000000000071,0.08478531557082428,-0.02698048783769839
5.400000000000138,0.0899769604952212,-0.0208991465861655
5.600000000000205,0.09340103382760194,-0.026716140914446365
5.800000000000272,0.09671161594081178,-0.027439552882554803
6.000000000000338,0.10031932085166688,-0.030098115706065406
6.200000000000405,0.10371065966658358,-0.03273109181189165
6.400000000000472,0.10680632106062853,-0.036294488381458156
6.600000000000539,0.11099139178506523,-0.038180682189248166
6.800000000000606,0.1132270346348158,-0.042230781424244954
7.000000000000672,0.1162673091708669,-0.04690879945812909
7.200000000000739,0.11984262790892225,-0.04704400331055809
7.400000000000806,0.1220539582397418,-0.05298037201723185
7.600000000000873,0.12638512588911638,-0.053001906796177375
7.8000000000009395,0.12913226653532048,-0.056580531419058305
8.000000000001005,0.13120348349085417,-0.06360888897119768
8.200000000000895,0.13452935163015764,-0.06677907922607669
8.400000000000784,0.13813513557829907,-0.06976853599317377
8.600000000000673,0.1425735848636781,-0.07119485645732848
8.800000000000562,0.14544047468745785,-0.07588418375413668
9.000000000000451,0.14914570584072737,-0.0786401326196681
9.20000000000034,0.15359404577861635,-0.08018804517878521
9.40000000000023,0.15794438033325944,-0.08198074163126925
9.600000000000119,0.16229349689286723,-0.08404477971433409
9.800000000000008,0.16650902289048647,-0.08700277458575673
10.000999999999896,0.1708531071287073,-0.08892736310306344
10.200999999999786,0.17508807555695421,-0.09070758202074744
10.400999999999675,0.179858675065044,-0.08900400147329059
10.600999999999564,0.1837506499842271,-0.09149034814419665
10.800999999999453,0.18860578307153922,-0.09201025921134605
11.000999999999342,0.19155374392253077,-0.09379841258011892
11.200999999999231,0.19634753509584693,-0.09826726965831561
11.40099999999912,0.20082118596607268,-0.09940608118769884
11.60099999999901,0.2056669234764953,-0.09696087330478957
11.800999999998899,0.2096393539458955,-0.10041073365284127
12.000999999998788,0.21469791205316474,-0.10082690766917698
12.200999999998677,0.218419811171841,-0.10490939155772794
12.400999999998566,0.22407803696577927,-0.1082499568727216
12.600999999998455,0.22852231642378779,-0.10858273285741525
12.800999999998345,0.23282764871622125,-0.10945481178665817
13.000999999998234,0.2373774200063247,-0.11076910146768809
13.200999999998123,0.24216406899894868,-0.11194122858397446
13.400999999998012,0.2469933660171009,-0.11205100289094104
13.600999999997901,0.2512753858114841,-0.11244727615814365
13.80099999999779,0.2556851363738931,-0.1124042647384291
14.00099999999768,0.2601588616023495,-0.11166412932139504
14.200999999997569,0.26502821663420223,-0.11220012510025293
14.400999999997458,0.2699625719675329,-0.11232934153689039
14.600999999997347,0.2752350426604775,-0.11230944943120338
14.800999999997236,0.28017537007196736,-0.11174258261884737
15.000999999997125,0.28483476164282534,-0.11113846630357918
15.200999999997014,0.2900054259823732,-0.10995206633805872
15.400999999996904,0.2956993464453135,-0.10979803999547147
15.600999999996793,0.3018967325909797,-0.1092725822036286
15.800999999996682,0.3068714887022181,-0.10871608403945382
16.000999999996573,0.3110562226627373,-0.1073954660986134
16.200999999996817,0.31666047857553126,-0.10785052965261646
16.40099999999706,0.32068356552574323,-0.10516590925555153
16.600999999997306,0.3255857201448209,-0.10362520015404264
16.80099999999755,0.33163629800430366,-0.10255806339106127
17.000999999997795,0.3367126403928853,-0.1012523237003607
17.20099999999804,0.34207944228678533,-0.10035061411407978
17.400999999998284,0.348955158983045,-0.09969697087780517
17.60099999999853,0.35454442692349725,-0.09876268289779273
17.800999999998773,0.35864513510028134,-0.0964415345226953
18.000999999999017,0.3624159161259468,-0.09500746876751699
18.20099999999926,0.3682095548580689,-0.0944625178749422
18.400999999999506,0.3732646944879968,-0.09323414876780835
18.60099999999975,0.3768150018066257,-0.09075652795637065
18.799999999999994,0.3817100461520956,-0.08705014837431437
19.000000000000238,0.385293383737596,-0.0854328230861443
19.200000000000482,0.3916539204746025,-0.08376332493322154
19.400000000000727,0.39240260881110534,-0.07904066815138404
19.60000000000097,0.39692537327843513,-0.07649510582662715
19.800000000001216,0.40410582671011647,-0.07614833682880753
20.00000000000146,0.4111087362118711,-0.07388975796647554
