Time (s),X (m),Y (m)
0.001,0.00013020853671323254,0.0010272443824616275
0.20000000000000015,0.002295059005325456,-0.0029182105436879207
0.4000000000000003,0.004137104682736766,-0.002958930367101291
0.6000000000000004,0.005621573971746985,-0.006593120235587225
0.8000000000000006,0.008332662532247789,-0.007734258410052594
1.0000000000000007,0.012912874709210072,-0.01018203525956774
1.2009999999999785,0.01618378203948829,-0.0093592972158275
1.4009999999999565,0.01991031484765695,-0.012086502652543312
1.6009999999999345,0.023233946087786683,-0.011324471985454596
1.8009999999999124,0.027464303986194302,-0.01063423954459751
2.0009999999998906,0.03113699767482234,-0.012091298231983273
2.2009999999998686,0.03490067108146257,-0.014559585993208946
2.4009999999998466,0.03676145636801913,-0.015325506026162238
2.6009999999998246,0.040690661954695305,-0.01644340865134027
2.8009999999998025,0.04340179809174288,-0.016861071676624272
3.0009999999997805,0.04653502985373007,-0.019209348758828584
3.2009999999997585,0.04993330413752613,-0.020236205685748406
3.4009999999997365,0.05327136162004999,-0.02215349223641724
3.6009999999997144,0.05774784526498089,-0.026199248480603708
3.8009999999996924,0.06219102833538892,-0.029356934589047232
4.000999999999671,0.06565357914141771,-0.028355032191798985
4.200999999999738,0.06960284707797063,-0.03003084164226788
4.400999999999804,0.07357780664557444,-0.03387959541661807
4.600999999999871,0.07846073261499047,-0.03416840529694118
4.800999999999938,0.08260033526729997,-0.03480210024360861
5.000000000000004,0.0854602990117065,-0.036798226842121425
5.200000000000071,0.08854143572038098,-0.04156790852178727
5.400000000000138,0.09340484460856222,-0.03875321912858157
5.600000000000205,0.0974091216521455,-0.041328557191020646
5.800000000000272,0.10219553587374207,-0.04513077379017068
6.000000000000338,0.10626084211286765,-0.044713258832893905
6.200000000000405,0.10954655376170058,-0.04700054916408596
6.400000000000472,0.11297422295611154,-0.05380207639114498
6.600000000000539,0.11730994974643374,-0.0534546711990379
6.800000000000606,0.12008653491187254,-0.05777343213028998
7.000000000000672,0.12364710122022711,-0.061053421028561566
7.200000000000739,0.12791295043952194,-0.06347839735950289
7.400000000000806,0.1322767189729302,-0.06535394060671003
7.600000000000873,0.13662018767288778,-0.06655156737963322
7.8000000000009395,0.1415703106214375,-0.06728897863890777
8.000000000001005,0.14592292653832387,-0.06873219943798604
8.200000000000895,0.1505744149335407,-0.07042126197901807
8.400000000000784,0.1550473376040297,-0.07141106222984589
8.600000000000673,0.1595251833835537,-0.07374926933948832
8.800000000000562,0.16426531299124206,-0.07410248432374957
9.000000000000451,0.1688019792355191,-0.07426568703799699
9.20000000000034,0.17315386963139404,-0.07616157723113609
9.40000000000023,0.17767727368658645,-0.07683797538111546
9.600000000000119,0.18292773064875728,-0.07661658731713836
9.800000000000008,0.18757820424073254,-0.07595170169695586
10.000999999999896,0.19174664757067836,-0.07574751123058632
10.200999999999786,0.19641293693639816,-0.07673060851606044
10.400999999999675,0.20152792181097026,-0.07676615570982509
10.600999999999564,0.20629103326870646,-0.07441302650342528
10.800999999999453,0.21013516202383595,-0.07511602579876042
11.000999999999342,0.21548459061732803,-0.0747278990589809
11.200999999999231,0.21950468898766756,-0.07577074199158167
11.40099999999912,0.22543189891486895,-0.07383346520512922
11.60099999999901,0.22944804218694118,-0.0739238560618823
11.800999999998899,0.23306464869675275,-0.07263522674116017
12.000999999998788,0.23808547912320702,-0.07461626391758541
12.200999999998677,0.24354474737796902,-0.07427311209578605
12.400999999998566,0.24870367183453482,-0.07377827603438389
12.600999999998455,0.2543160458878798,-0.07489005778896834
12.800999999998345,0.25621017714564176,-0.0719865298952391
13.000999999998234,0.260700418086655,-0.07155618337371476
13.200999999998123,0.26637558077643425,-0.06942525134829806
13.400999999998012,0.27021966429569805,-0.06886825960660595
13.600999999997901,0.27579845838788597,-0.06935354064175793
13.80099999999779,0.28070319242150255,-0.06803827887074293
14.00099999999768,0.2860851614911716,-0.06835882817595539
14.200999999997569,0.28982381470615076,-0.06827990280947321
14.400999999997458,0.29616140674033015,-0.07087650406350403
14.600999999997347,0.2981828494023798,-0.06706790646654381
14.800999999997236,0.30292892034456415,-0.06912120607387635
15.000999999997125,0.30778825584632,-0.06891510739359073
15.200999999997014,0.31293565390226247,-0.070312584635076
15.400999999996904,0.31772648740691417,-0.07020994787467182
15.600999999996793,0.32336669500854304,-0.07031132990846443
15.800999999996682,0.32824159393722535,-0.07028652888692402
16.000999999996573,0.3338037196300304,-0.07116163849069547
16.200999999996817,0.3390923066956942,-0.07041276364185474
16.40099999999706,0.3433142139845454,-0.07001260940652382
16.600999999997306,0.3487393927678493,-0.07124567882922878
16.80099999999755,0.3531415270991481,-0.07109446368294682
17.000999999997795,0.3590428651680556,-0.06897419931165996
17.20099999999804,0.36308220987255024,-0.06906973838065157
17.400999999998284,0.36698751291014814,-0.068758258803189
17.60099999999853,0.3724776552006229,-0.06924730358107427
17.800999999998773,0.3777789921680712,-0.06874306282558706
18.000999999999017,0.38170944610012947,-0.06699301678508009
18.20099999999926,0.3876114870295228,-0.06651781302207797
18.400999999999506,0.3929100891734881,-0.06520517788285335
18.60099999999975,0.3975119668248969,-0.06679925634218495
18.799999999999994,0.40209830869737484,-0.06512261645001957
19.000000000000238,0.4075693175169826,-0.06617173295855763
19.200000000000482,0.4138192945014292,-0.06857908820957527
19.400000000000727,0.4202326207039444,-0.06812094592935412
19.60000000000097,0.4266910046718184,-0.06917068564527583
19.800000000001216,0.4316791243375928,-0.06860086296319017
20.00000000000146,0.43628636009495686,-0.06907898659018624
