Time (s),X (m),Y (m)
0.001,4.1020280575708355e-05,0.0010155025257856582
0.20000000000000015,0.001456539073523847,0.005060215590265476
0.4000000000000003,0.002523874783749483,0.004382304137483539
0.6000000000000004,0.0038438385368565206,0.004762311628639361
0.8000000000000006,0.011634606171283129,-0.005275414046043096
1.0000000000000007,0.019653591490863716,-0.016243845900338
1.2009999999999785,0.021695374096912926,-0.009749479985214107
1.4009999999999565,0.024390868662895884,-0.008287635737843635
1.6009999999999345,0.029274931391463446,-0.006716672774868204
1.8009999999999124,0.034859150597270815,-0.007423900321226513
2.0009999999998906,0.04134463503589049,-0.007564201687243491
2.2009999999998686,0.044729734232993264,-0.004060993565249453
2.4009999999998466,0.04709284410617944,-0.0029795396133550684
2.6009999999998246,0.05094005900111473,0.0011292215586496293
2.8009999999998025,0.05608214253969187,0.0022150014562048103
3.0009999999997805,0.06146847432431638,0.0006301411238824325
3.2009999999997585,0.0680778687652187,0.0014190283887044223
3.4009999999997365,0.07224263053836587,0.0029337752666533223
3.6009999999997144,0.07896210198771846,0.0018354122877529552
3.8009999999996924,0.0834430531352343,0.004267300105560173
4.000999999999671,0.0913365189502088,0.0008700530472755074
4.200999999999738,0.09722513410764672,0.0036073026338884697
4.400999999999804,0.10343429428492866,0.003944440025504313
4.600999999999871,0.1098830777977881,0.0031296434990403387
4.800999999999938,0.11757773293828896,0.0022812769176027816
5.000000000000004,0.12641389283233812,0.00015897621123264145
5.200000000000071,0.13259102111979598,0.002310583698535695
5.400000000000138,0.13933353518693906,0.004380166349078663
5.600000000000205,0.14572534926503453,0.005918385615890834
5.800000000000272,0.15283253293378282,0.009091569279126804
6.000000000000338,0.15971097348218724,0.010693449766568183
6.200000000000405,0.16589866726409452,0.014853510987125465
6.400000000000472,0.17303211126727777,0.016577872981018846
6.600000000000539,0.1790955104946954,0.020096803804671198
6.800000000000606,0.1871554868327454,0.022618382316924084
7.000000000000672,0.19531451201419012,0.023890276498563887
7.200000000000739,0.19992988658292576,0.029805836837707995
7.400000000000806,0.20657010954308053,0.03342255594808823
7.600000000000873,0.21239200764206964,0.03691576014642542
7.8000000000009395,0.21858081419087405,0.04181275203187248
8.000000000001005,0.22547653920235858,0.04506876731881394
8.200000000000895,0.23068161624022632,0.050914960040092404
8.400000000000784,0.23881986784543663,0.054228733972434086
8.600000000000673,0.2437486459772835,0.05901928011903373
8.800000000000562,0.2502673933438791,0.06453865373683791
9.000000000000451,0.25738688481019983,0.06831202076103395
9.20000000000034,0.2614529031435731,0.07432491906379378
9.40000000000023,0.2679070149268382,0.08026702204081942
9.600000000000119,0.2726424670183338,0.08565316710819314
9.800000000000008,0.2770553624067163,0.09182135638099666
10.000999999999896,0.28187878473572464,0.0977271642070489
10.200999999999786,0.2869205697606685,0.10381295641576845
10.400999999999675,0.2956517014850232,0.1088929268908083
10.600999999999564,0.2984935041251448,0.116690938141038
10.800999999999453,0.2986503373133408,0.12384288718037564
11.000999999999342,0.30677655415291166,0.12952010774189443
11.200999999999231,0.30699537466125254,0.13675981322026048
11.40099999999912,0.31141794356739505,0.14430892846812232
11.60099999999901,0.3118065745547597,0.14996651154990936
11.800999999998899,0.31832594326821745,0.1563179465091102
12.000999999998788,0.31714945309671405,0.1638712058805752
12.200999999998677,0.3187398068571214,0.17025282699017263
12.400999999998566,0.3220310859504908,0.1773618549586087
12.600999999998455,0.32361994091820667,0.18376183331682017
12.800999999998345,0.33013781765017264,0.19078875359690817
13.000999999998234,0.3367087475052819,0.1976948091796537
13.200999999998123,0.33697030513757575,0.2044802872033467
13.400999999998012,0.33972455299424553,0.2111488507846065
13.600999999997901,0.34139762151119823,0.21767464189607946
13.80099999999779,0.34437529503567454,0.22411262100996726
14.00099999999768,0.34413574133871666,0.23095549312463612
14.200999999997569,0.34499214528797917,0.23811521674287853
14.400999999997458,0.34684016738354684,0.2454710893546057
14.600999999997347,0.349529073664492,0.25184530677535494
14.800999999997236,0.3530227468352327,0.2595565130257197
15.000999999997125,0.3539650010317882,0.2653911163265351
15.200999999997014,0.35539275854409924,0.27281210074524154
15.400999999996904,0.3544442437180741,0.28003203450884206
15.600999999996793,0.3560531262214858,0.2878264179108088
15.800999999996682,0.3592408815428673,0.29444540650536294
16.000999999996573,0.3605062052488155,0.3003235039769485
16.200999999996817,0.3584136755422104,0.3073044903018198
16.40099999999706,0.3591776900123941,0.31356302053332796
16.600999999997306,0.36072545224365465,0.32012891800758103
16.80099999999755,0.36044955502059917,0.3263941088304024
17.000999999997795,0.36017521307243366,0.33410887369934095
17.20099999999804,0.35956064522049547,0.3399481198045651
17.400999999998284,0.35878550862443326,0.3474051328004564
17.60099999999853,0.3549344967544981,0.35414842563034066
17.800999999998773,0.3554564875199152,0.36055243765767836
18.000999999999017,0.35687599510473184,0.36788568659175874
18.20099999999926,0.3536152288777027,0.3746661442982179
18.400999999999506,0.3557322157140858,0.382026841802328
18.60099999999975,0.3524381041110944,0.3883431789279048
18.799999999999994,0.3506779419944582,0.39602879369678734
19.000000000000238,0.3499603194113029,0.4035328865293204
19.200000000000482,0.35185908064029203,0.41183617048732196
19.400000000000727,0.35261377761471907,0.42036952764277397
19.60000000000097,0.3521082422891533,0.42869458335424715
19.800000000001216,0.35234793372974776,0.43746692173029056
20.00000000000146,0.35028782245994095,0.44476788102518555
