Time (s),X (m),Y (m)
0.001,0.0012161128565605834,-0.00026688599193002474
0.20000000000000015,0.0055658320196922025,-0.001010132603092668
0.4000000000000003,0.009016323912554504,-0.002377864973635559
0.6000000000000004,0.012908896377005092,-0.003869969620164929
0.8000000000000006,0.025438250183096443,-0.004380533950668902
1.0000000000000007,0.035266472588271536,-0.006339546157454211
1.2009999999999785,0.039859487943429125,-0.006583026938882268
1.4009999999999565,0.04453814665092457,-0.006869619830837622
1.6009999999999345,0.04865849210028379,-0.007716952962951487
1.8009999999999124,0.05578635518907082,-0.008086223728173173
2.0009999999998906,0.05808836604349053,-0.008762845043685439
2.2009999999998686,0.06262853267553847,-0.009630515636362006
2.4009999999998466,0.06769704595715734,-0.009241444711315315
2.6009999999998246,0.07084309660845377,-0.009308395919271456
2.8009999999998025,0.07416301625453603,-0.009992858116063782
3.0009999999997805,0.07777414236650294,-0.008848821289512124
3.2009999999997585,0.08008784148752027,-0.00951582953940717
3.4009999999997365,0.08432561619569848,-0.008587873072373886
3.6009999999997144,0.0874470776693327,-0.010869823599703949
3.8009999999996924,0.09710735623367239,-0.011452231111812143
4.000999999999671,0.10167992390792477,-0.011229512167651645
4.200999999999738,0.10528747514287827,-0.012657323689213382
4.400999999999804,0.10891343070087121,-0.014706960498747432
4.600999999999871,0.1118171117589074,-0.015566909575383764
4.800999999999938,0.11253321825530964,-0.015582591077375522
5.000000000000004,0.11573068193452733,-0.016451151032572435
5.200000000000071,0.11986130604407645,-0.01846022773057451
5.400000000000138,0.12212308465905007,-0.01949360719566069
5.600000000000205,0.12664152156426012,-0.02099685216771074
5.800000000000272,0.1305022827945255,-0.02143888672264342
6.000000000000338,0.13495843922094786,-0.023281416496596378
6.200000000000405,0.14131146924011875,-0.024919063940212288
6.400000000000472,0.14296932398024906,-0.026112814629756013
6.600000000000539,0.14574770602826662,-0.027513258615994865
6.800000000000606,0.14765504766807286,-0.02828613591665278
7.000000000000672,0.15482125978498767,-0.02997405397012418
7.200000000000739,0.16458260022828822,-0.03211551746277519
7.400000000000806,0.1695001492081816,-0.03352174784608481
7.600000000000873,0.1742299955353381,-0.03590665310277161
7.8000000000009395,0.18139314932098305,-0.03915217422759648
8.000000000001005,0.18704537925870812,-0.04082870170002765
8.200000000000895,0.19246266018876498,-0.04304920380995586
8.400000000000784,0.19669018594334697,-0.04619176318751747
8.600000000000673,0.20220172523020583,-0.04752391921671724
8.800000000000562,0.20812593709614746,-0.05042722111441851
9.000000000000451,0.21566614442047843,-0.05302101004818905
9.20000000000034,0.2211533913224384,-0.05306631304213181
9.40000000000023,0.22463888938907653,-0.05444541951391406
9.600000000000119,0.22969730786288503,-0.05564556623658765
9.800000000000008,0.23548502728723725,-0.05547993576046897
10.000999999999896,0.24219665581747926,-0.05846092700926295
10.200999999999786,0.24870902292271888,-0.05869258544608637
10.400999999999675,0.25781161666366215,-0.062195144989819345
10.600999999999564,0.26129707231277777,-0.06205733856904803
10.800999999999453,0.26746840812944145,-0.06307442239529074
11.000999999999342,0.27052462591008714,-0.06408324951435128
11.200999999999231,0.2742287266873969,-0.06680911933867724
11.40099999999912,0.2777774638516306,-0.06957947384500597
11.60099999999901,0.2824268926401824,-0.07031565488385015
11.800999999998899,0.2875925633065418,-0.07180747581981985
12.000999999998788,0.29569442636193916,-0.0739282174972023
12.200999999998677,0.30119949419054587,-0.07554089120479847
12.400999999998566,0.3074623791771252,-0.07596476576469585
12.600999999998455,0.31385699295627173,-0.07881495652614745
12.800999999998345,0.31612811601826574,-0.08046493812334048
13.000999999998234,0.3216328697900755,-0.07998076267079281
13.200999999998123,0.3259937498589365,-0.08113537415685965
13.400999999998012,0.3278447892210521,-0.08178818683598041
13.600999999997901,0.3372666155188443,-0.08477950781595019
13.80099999999779,0.34191638102234484,-0.08607026390608358
14.00099999999768,0.3488862683091682,-0.08953334250991832
14.200999999997569,0.35570265419037245,-0.09034095066785616
14.400999999997458,0.3615749452631614,-0.09314920192674764
14.600999999997347,0.3659272086048,-0.09463918558011547
14.800999999997236,0.3705769442507199,-0.09659804594519232
15.000999999997125,0.3766837701641043,-0.09937147795155875
15.200999999997014,0.379157825520789,-0.10015716453290639
15.400999999996904,0.38373525980546425,-0.10292450419383445
15.600999999996793,0.3882331449181482,-0.10456183372664976
15.800999999996682,0.3933658983145331,-0.10493803713327807
16.000999999996573,0.39508907201434,-0.10642579519096841
16.200999999996817,0.40021351321588833,-0.10826542204878091
16.40099999999706,0.4051026664700275,-0.1100448397155893
16.600999999997306,0.4131075308412853,-0.11293087846025454
16.80099999999755,0.4225708189392732,-0.11631746525107002
17.000999999997795,0.43370841776961666,-0.11890155137681817
17.20099999999804,0.4411251490205986,-0.12016489502998307
17.400999999998284,0.4488073840494665,-0.12321647151497728
17.60099999999853,0.4535352176919601,-0.12368436227597979
17.800999999998773,0.45841447295234145,-0.1267734662158704
18.000999999999017,0.4654163544534278,-0.12995467241117703
18.20099999999926,0.47168792523131103,-0.13278044531696204
18.400999999999506,0.4777861414081347,-0.13501831952695706
18.60099999999975,0.4842696058940124,-0.13848652500280845
18.799999999999994,0.48868083133057666,-0.13908581826088554
19.000000000000238,0.49564930308924854,-0.14263464061083847
19.200000000000482,0.5030091724983878,-0.14492695498161254
19.400000000000727,0.505386725346721,-0.14680591767022735
19.60000000000097,0.5197670816069915,-0.15116267874641764
19.800000000001216,0.5232445831774902,-0.15259928373464285
20.00000000000146,0.5273990770599344,-0.1545377760121299
