Time (s),X (m),Y (m)
0.001,-0.0007144750753253542,-0.00043579054991000363
0.20000000000000015,0.0007568649355042688,-0.000338651365803757
0.4000000000000003,-0.006916745537907551,-0.00432370829884958
0.6000000000000004,-0.002482026687728351,-0.0027117891823676315
0.8000000000000006,0.000574186502436167,-0.001857506598150187
1.0000000000000007,0.003596380760707554,-0.0009786563657418425
1.2009999999999785,0.006200638886846962,-0.00014076380413151064
1.4009999999999565,0.008112957036303523,0.00048315158090217155
1.6009999999999345,0.009908941062396023,0.0011802654896939358
1.8009999999999124,0.01198181491664992,0.0020912943387320607
2.0009999999998906,0.01389588886991014,0.0028730595186561526
2.2009999999998686,0.015508639608014445,0.00397627149534324
2.4009999999998466,0.016432601317585734,0.00418776885771187
2.6009999999998246,0.017710195547926563,0.005137497202192443
2.8009999999998025,0.01956330686178486,0.006654966310103465
3.0009999999997805,0.0211599683452866,0.007726806338059098
3.2009999999997585,0.02263479463308435,0.008380124363114493
3.4009999999997365,0.02392438757690156,0.0089816578804377
3.6009999999997144,0.025202740628487857,0.00962103220901661
3.8009999999996924,0.026522675961863817,0.010347359287159753
4.000999999999671,0.027773235070162584,0.011073946426184922
4.200999999999738,0.02908619702701492,0.011882320080628206
4.400999999999804,0.03034980299254934,0.012705659089489976
4.600999999999871,0.031688420251924865,0.013596150341774176
4.800999999999938,0.032949351960270476,0.014479572306730111
5.000000000000004,0.034377360137476436,0.01547774076709575
5.200000000000071,0.03568534802145591,0.0164243015822697
5.400000000000138,0.03696003996162143,0.01737188134098911
5.600000000000205,0.03829618598035082,0.01836337060362631
5.800000000000272,0.039585094880181776,0.01936372174249043
6.000000000000338,0.0408681961825222,0.020354944384325828
6.200000000000405,0.04215026947005226,0.021388862337602912
6.400000000000472,0.043367518478390446,0.02237536095675783
6.600000000000539,0.04459756844472859,0.023419010178845612
6.800000000000606,0.045877614875212566,0.024525082519786384
7.000000000000672,0.04716226786269806,0.025634936554581066
7.200000000000739,0.04838131637626089,0.026736448494739353
7.400000000000806,0.04961469942099542,0.027840034082083364
7.600000000000873,0.0507071363933179,0.02905341483833628
7.8000000000009395,0.052007734352270046,0.031288075366571376
8.000000000001005,0.05339605996601849,0.03375599393050464
8.200000000000895,0.05456928399775935,0.03641574474996011
8.400000000000784,0.05585250417993284,0.03918730317899644
8.600000000000673,0.05695432498160973,0.04190734776713057
8.800000000000562,0.05807285518248457,0.04461137178162174
9.000000000000451,0.05942578064641448,0.04781813917945807
9.20000000000034,0.060524314404002036,0.05069891450408837
9.40000000000023,0.061618232103357796,0.05382487967742067
9.600000000000119,0.06214448447506602,0.0559639020950228
9.800000000000008,0.06219326660938479,0.056943400553722066
10.000999999999896,0.062399604076791904,0.05853632375976471
10.200999999999786,0.06276965452445961,0.06092303157614933
10.400999999999675,0.06289626401314724,0.06250471272596475
10.600999999999564,0.06304306757550045,0.06469693856740938
10.800999999999453,0.06320809808165286,0.06673521523432688
11.000999999999342,0.06321311096285259,0.06900460159385968
11.200999999999231,0.06321026593046855,0.07117968856804381
11.40099999999912,0.06307397402630055,0.07317361233073899
11.60099999999901,0.06297996136818795,0.07542095987571909
11.800999999998899,0.06259882221671409,0.07584104961900112
12.000999999998788,0.06253359573785267,0.07512683777090326
12.200999999998677,0.06260495212858329,0.07411972514836172
12.400999999998566,0.06260308420713824,0.07263597181277014
12.600999999998455,0.06276005327554461,0.07147059500517444
12.800999999998345,0.06291195101003996,0.07103655474569862
13.000999999998234,0.06258167077650544,0.0703482102175637
13.200999999998123,0.06155406678508707,0.07152217665367606
13.400999999998012,0.05948032915413394,0.07476174642580546
13.600999999997901,0.05722003112428034,0.07785401735109816
13.80099999999779,0.05484222337875038,0.08094634187860877
14.00099999999768,0.05243139087034077,0.08395766374450638
14.200999999997569,0.04982404140663684,0.08698985859129621
14.400999999997458,0.04711609688240884,0.0899599574975812
14.600999999997347,0.04438468927656421,0.09276371824976565
14.800999999997236,0.04122054815512913,0.09577049542765603
15.000999999997125,0.03796677167025397,0.09874954558724791
15.200999999997014,0.03477099409991203,0.10161307624133308
15.400999999996904,0.03173163328498465,0.10427730744198915
15.600999999996793,0.028780782484835062,0.10661893035750968
15.800999999996682,0.02676670830250356,0.1078092722466813
16.000999999996573,0.025467816593875498,0.1086053421630076
16.200999999996817,0.02440013869651179,0.10903576147360076
16.40099999999706,0.02356772086519573,0.1095332883070863
16.600999999997306,0.02339151171638607,0.10951531630419403
16.80099999999755,0.023529346274355524,0.10981788604129927
17.000999999997795,0.023172039898671472,0.1106833170277932
17.20099999999804,0.022673304395305145,0.11093337283093785
17.400999999998284,0.023276177420449944,0.11070155282069037
17.60099999999853,0.022579019117283335,0.11197204017775703
17.800999999998773,0.022763689203742415,0.11214002643559647
18.000999999999017,0.023570536372386184,0.11198123544277143
18.20099999999926,0.02425120206790644,0.11196114986041514
18.400999999999506,0.024666519017858768,0.11211877353189782
18.60099999999975,0.025603166229259542,0.11189151890198712
18.799999999999994,0.026614740895692254,0.11186472267053825
19.000000000000238,0.02691938569076344,0.11191927962321818
19.200000000000482,0.02469076670602411,0.11204442751071386
19.400000000000727,0.021017750463546984,0.11222725316236595
19.60000000000097,0.017424408090116465,0.1124561784652034
19.800000000001216,0.01379828393418591,0.11252477247130255
20.00000000000146,0.01016042311608961,0.11244607877265132
