Time (s),X (m),Y (m)
0.001,-0.0004427414248986554,0.0007899207378008392
0.20000000000000015,0.0011502732107802895,0.0004989209716456491
0.4000000000000003,-0.004461098876856946,0.007334632257760787
0.6000000000000004,-0.002358902145519008,0.007869080883907033
0.8000000000000006,0.0006251841334131363,0.006808480177480222
1.0000000000000007,0.003629193253243527,0.0052183771203413755
1.2009999999999785,0.006377680678782757,0.003893999570420421
1.4009999999999565,0.008530746823956785,0.0028197972248460513
1.6009999999999345,0.010688039327545213,0.00123493685109439
1.8009999999999124,0.01215121467185715,-9.274906690659501e-05
2.0009999999998906,0.013044783667836578,-0.0011911627376186749
2.2009999999998686,0.013816827677417482,-0.002183703003585211
2.4009999999998466,0.014633293807524065,-0.0030107030530666587
2.6009999999998246,0.01562463124054797,-0.004171052468840778
2.8009999999998025,0.01646649093267893,-0.0052768184876413
3.0009999999997805,0.017264810496860697,-0.006257844106016664
3.2009999999997585,0.01816452571708362,-0.00725562580763046
3.4009999999997365,0.01912198374144572,-0.008304833614274103
3.6009999999997144,0.020207823685737418,-0.009518581144612712
3.8009999999996924,0.02150869829063874,-0.010206716087819975
4.000999999999671,0.022925455606890858,-0.011204449716479879
4.200999999999738,0.024107671414836888,-0.011990443644987301
4.400999999999804,0.02544198549557008,-0.013127059568695294
4.600999999999871,0.026679130096967638,-0.014078563393459836
4.800999999999938,0.027881940258096392,-0.014698512823546398
5.000000000000004,0.029044254989489086,-0.015598395551444936
5.200000000000071,0.0309583239494246,-0.01639986261049399
5.400000000000138,0.03225706239933407,-0.017159184975338963
5.600000000000205,0.03375591113361822,-0.017868492902617193
5.800000000000272,0.035010917837987904,-0.01881046957509817
6.000000000000338,0.036470576740569395,-0.019366756423199783
6.200000000000405,0.03854283396320738,-0.02006176332133374
6.400000000000472,0.0399538502020541,-0.02083406614192187
6.600000000000539,0.041258371579109616,-0.021390677252576033
6.800000000000606,0.04286559954775969,-0.02190376653776814
7.000000000000672,0.04463665978692637,-0.022345716206969075
7.200000000000739,0.04657090946157894,-0.022813642155914107
7.400000000000806,0.04821868939545024,-0.023819857035813425
7.600000000000873,0.049506351818341406,-0.024586209155473215
7.8000000000009395,0.05079399507121776,-0.025324197275587556
8.000000000001005,0.053018807151903935,-0.025532899351853818
8.200000000000895,0.054763216708883816,-0.026002921407574833
8.400000000000784,0.0561861869603822,-0.026151430638045946
8.600000000000673,0.05824532773412079,-0.026369862201712585
8.800000000000562,0.05981175526058759,-0.0267007923499195
9.000000000000451,0.061207078676822034,-0.026750725551814052
9.20000000000034,0.0633498229237613,-0.02674497421363823
9.40000000000023,0.06483211895248496,-0.02746524228314672
9.600000000000119,0.06622955187901461,-0.02758743183883961
9.800000000000008,0.06816586321308189,-0.0274917037290545
10.000999999999896,0.06997295972209024,-0.027411860295986062
10.200999999999786,0.07145724167877013,-0.02729451922981983
10.400999999999675,0.07375014657312703,-0.027151574304359164
10.600999999999564,0.07570097200451559,-0.027072172813623948
10.800999999999453,0.0772240338824753,-0.026664296039839268
11.000999999999342,0.07898236566615821,-0.026250695868050032
11.200999999999231,0.08095159948284675,-0.02558276949406906
11.40099999999912,0.08262461761587278,-0.025342042084486455
11.60099999999901,0.08456604252283118,-0.02507326614194844
11.800999999998899,0.08617292035905448,-0.024357660660632177
12.000999999998788,0.08809819478454124,-0.023880803403039188
12.200999999998677,0.08932171111660026,-0.023556698929290642
12.400999999998566,0.09113710379050587,-0.022774449534135172
12.600999999998455,0.09322092012055007,-0.021974372406598178
12.800999999998345,0.09489301872865433,-0.021472826074480533
13.000999999998234,0.09715892780817799,-0.020714906939675436
13.200999999998123,0.09874207456376662,-0.02006947728203909
13.400999999998012,0.10013426623891154,-0.019233894469754622
13.600999999997901,0.10241892721429803,-0.018151561487822463
13.80099999999779,0.1041794676626002,-0.017309890674454834
14.00099999999768,0.1056396626020879,-0.016621716602621944
14.200999999997569,0.10776184307689002,-0.01540195728239118
14.400999999997458,0.10988042124888078,-0.013163836469454267
14.600999999997347,0.11141977276814542,-0.011948877096221795
14.800999999997236,0.11314691324642558,-0.010953613048948712
15.000999999997125,0.11558797458382714,-0.009068953522340403
15.200999999997014,0.11772249138779502,-0.007558385607097259
15.400999999996904,0.11901740155027317,-0.006574452009836532
15.600999999996793,0.1206197216802027,-0.005630745321506965
15.800999999996682,0.1217801196322776,-0.004680305464978188
16.000999999996573,0.12330212506578028,-0.0032699684668444085
16.200999999996817,0.12531997163839234,-0.0013997691008218454
16.40099999999706,0.12668598705104464,-9.241648101764301e-05
16.600999999997306,0.1282353954785563,0.0013588994534934797
16.80099999999755,0.13030532870120895,0.0027900883225905103
17.000999999997795,0.13116330562590353,0.003870768630894052
17.20099999999804,0.13296853476930043,0.005503209781759212
17.400999999998284,0.13492001034387324,0.006982794564063649
17.60099999999853,0.13579690308236236,0.008169579078772504
17.800999999998773,0.1370935819645821,0.009676317439812983
18.000999999999017,0.138821462353497,0.011522104293184284
18.20099999999926,0.14075156819794357,0.01327221818398232
18.400999999999506,0.14193187295942308,0.014852603078166025
18.60099999999975,0.14301941852074704,0.016397614846789862
18.799999999999994,0.14453133342523658,0.018319556160786676
19.000000000000238,0.14609981144066422,0.019965766613379718
19.200000000000482,0.1474234549395519,0.02176867633117443
19.400000000000727,0.14836509881599297,0.023340882332927054
19.60000000000097,0.1498198636895591,0.025487675010350982
19.800000000001216,0.1510906236769478,0.02729574871566657
20.00000000000146,0.15225794214824426,0.029144327439896454
