Time (s),X (m),Y (m)
0.001,-0.0007759513068619564,0.00026688599193002506
0.20000000000000015,0.007286532886865579,-0.003532900241582314
0.4000000000000003,0.01044546928436164,-0.0046624685467846335
0.6000000000000004,0.01935310330429016,-0.005060588756529631
0.8000000000000006,0.036432695156077055,-0.009241653089712983
1.0000000000000007,0.046090187274815966,-0.016918315511725544
1.2009999999999785,0.07165900807739264,-0.01962603260488619
1.4009999999999565,0.10867224869240179,-0.017080750030223545
1.6009999999999345,0.1354681504265459,-0.017836201141545827
1.8009999999999124,0.17919908591090328,-0.018865784300501134
2.0009999999998906,0.21170536768984705,-0.01876015762944405
2.2009999999998686,0.24907474053999848,-0.016426799812257673
2.4009999999998466,0.27896027013759234,-0.025891234477902172
2.6009999999998246,0.30633567390687316,-0.03961473660225031
2.8009999999998025,0.3340585769013175,-0.05286072754577551
3.0009999999997805,0.3617320719283381,-0.059383421085266584
3.2009999999997585,0.3826262378827896,-0.06536271754363683
3.4009999999997365,0.4150672668283326,-0.0769320268534042
3.6009999999997144,0.44604566949561714,-0.08591519376049682
3.8009999999996924,0.47646996721694646,-0.10123717650963308
4.000999999999671,0.5102814121130566,-0.11602595621601546
4.200999999999738,0.5356523126881033,-0.11887474602474431
4.400999999999804,0.5592954704189605,-0.12281075859774128
4.600999999999871,0.5908951228077347,-0.13726522588909426
4.800999999999938,0.6269225716704532,-0.16462087540254192
5.000000000000004,0.6623004138192988,-0.20946685786260652
5.200000000000071,0.6894440542651934,-0.24418189771798426
5.400000000000138,0.7045973146746188,-0.2673507314095984
5.600000000000205,0.7061954876508878,-0.28720245096836006
5.800000000000272,0.7029928387835491,-0.30272868516390977
6.000000000000338,0.701624110105266,-0.32697938433074314
6.200000000000405,0.6996727839330618,-0.35317077146177006
6.400000000000472,0.687154377292917,-0.38901736941090187
6.600000000000539,0.6633979236530817,-0.4359413594131065
6.800000000000606,0.6391648447755047,-0.48191254797698
7.000000000000672,0.6200819428688906,-0.5162316780833656
7.200000000000739,0.5967244943666344,-0.5611974636413127
7.400000000000806,0.577060914077039,-0.60111209500708
7.600000000000873,0.5474678856071468,-0.6445410626991319
7.8000000000009395,0.5183503617564083,-0.6815942314948037
8.000000000001005,0.49678158920433435,-0.698978736599322
8.200000000000895,0.47408513678293357,-0.7039359174872577
8.400000000000784,0.44177220404294043,-0.6933278378438054
8.600000000000673,0.39626328058085253,-0.6752812415920967
8.800000000000562,0.3545107353188666,-0.6610526678220594
9.000000000000451,0.3074262318021271,-0.6322098631583339
9.20000000000034,0.2648072309224766,-0.6082794693222845
9.40000000000023,0.22384993488576724,-0.5783587447754815
9.600000000000119,0.19095496667628561,-0.5483681669569412
9.800000000000008,0.16788859372208959,-0.4990085278025804
10.000999999999896,0.15912316206039234,-0.4475651240991778
10.200999999999786,0.1629914942827366,-0.4007139493742447
10.400999999999675,0.1783221510675685,-0.36780204626644125
10.600999999999564,0.18846202974739737,-0.3335603210591009
10.800999999999453,0.21044487881461804,-0.28112706540859467
11.000999999999342,0.2313956993455957,-0.2304415350440116
11.200999999999231,0.25765464451119185,-0.17579508923203863
11.40099999999912,0.28367756417572737,-0.1225865715016592
11.60099999999901,0.3119420252967603,-0.07085378381436437
11.800999999998899,0.3553358034976309,-0.03172273804704866
12.000999999998788,0.40016755501512946,-0.00898788827687996
12.200999999998677,0.445329315933516,-0.007295359643208793
12.400999999998566,0.4807927963650039,-0.022489663667437546
12.600999999998455,0.5201199071696069,-0.04226671358440838
12.800999999998345,0.5602621330314103,-0.05749356066719356
13.000999999998234,0.5998832749306284,-0.07400148213995239
13.200999999998123,0.6410955487181271,-0.10164900514468049
13.400999999998012,0.6846640296041471,-0.1380293418460436
13.600999999997901,0.7241513675122068,-0.17080518986560372
13.80099999999779,0.7574508670621195,-0.2136394913694513
14.00099999999768,0.7869877109495218,-0.24749431719275267
14.200999999997569,0.8117738294216404,-0.28700274836925677
14.400999999997458,0.8196329126889937,-0.32050408998269025
14.600999999997347,0.8146595706278307,-0.37259434443221245
14.800999999997236,0.7983862791927824,-0.4243673360056946
15.000999999997125,0.7818816297430794,-0.47303221085462344
15.200999999997014,0.7606971567598335,-0.5183056577149642
15.400999999996904,0.741542460560105,-0.5581617558865039
15.600999999996793,0.7239397083440515,-0.6019220617687644
15.800999999996682,0.7065642041855685,-0.6401638668106878
16.000999999996573,0.6854389356753837,-0.6814130664539911
16.200999999996817,0.6609325962701291,-0.7344547178266924
16.40099999999706,0.6211631536432424,-0.7897430837031449
16.600999999997306,0.5845733332892896,-0.8264281971947789
16.80099999999755,0.5653936528288034,-0.8445310934036194
17.000999999997795,0.5374790997107961,-0.8482323675834182
17.20099999999804,0.4976091120592092,-0.8419074873165049
17.400999999998284,0.4600455424612665,-0.8264500089871128
17.60099999999853,0.41137769096705246,-0.8065315977763454
17.800999999998773,0.3582952707458624,-0.7845677988429656
18.000999999999017,0.311318134790314,-0.7664815477216127
18.20099999999926,0.26330876526634545,-0.748891844166742
18.400999999999506,0.21845179948501506,-0.7302898328198618
18.60099999999975,0.18016354630076015,-0.7108367282139347
18.799999999999994,0.14033251925066423,-0.6907561933736714
19.000000000000238,0.10954581356589757,-0.6619257157998489
19.200000000000482,0.10387889722516111,-0.6313036405145218
19.400000000000727,0.11224229732025767,-0.6004789240216184
19.60000000000097,0.13037521380385989,-0.5520256319228873
19.800000000001216,0.1545427585800473,-0.4995494031931156
20.00000000000146,0.17479019242547528,-0.4526034699834652
