Time (s),X (m),Y (m)
0.001,-4.680521708071185e-05,-0.0009960320817112695
0.20000000000000015,0.005890326680716954,0.004591443676299542
0.4000000000000003,0.016055244707352104,0.017325998798850762
0.6000000000000004,0.03270460027148891,0.021124512289188494
0.8000000000000006,0.058884876452368805,0.013280359859657392
1.0000000000000007,0.0835488964644536,0.00017845886016126892
1.2009999999999785,0.11459941388100836,0.004030993887283753
1.4009999999999565,0.15457507446984645,0.014363471273039611
1.6009999999999345,0.19828328129332673,0.022424703017171536
1.8009999999999124,0.23112611754332107,0.020647302878905087
2.0009999999998906,0.25672486568948066,0.01027146169982853
2.2009999999998686,0.28774631618753227,0.0024132168026988208
2.4009999999998466,0.320346693676127,-0.007634459064519348
2.6009999999998246,0.3652516158377866,-0.01091275377971738
2.8009999999998025,0.4006261697799348,-0.026479416188640303
3.0009999999997805,0.4349480467892025,-0.04609753268265808
3.2009999999997585,0.4791834567088495,-0.06219738865742233
3.4009999999997365,0.5254819467154334,-0.08365228297559109
3.6009999999997144,0.5649972697235892,-0.10373415303349084
3.8009999999996924,0.6162056020725262,-0.10954483222717658
4.000999999999671,0.6656293389794068,-0.1185806670588024
4.200999999999738,0.7163051867300685,-0.1366283540096251
4.400999999999804,0.7523575152069364,-0.16102937081236124
4.600999999999871,0.7765553720603272,-0.19405922357942418
4.800999999999938,0.7978351839711659,-0.22989108438469988
5.000000000000004,0.8275072637517391,-0.27339698388921535
5.200000000000071,0.8562107930047486,-0.3210922868784669
5.400000000000138,0.867806977074496,-0.36951434283630685
5.600000000000205,0.8864419084979288,-0.4246912355726275
5.800000000000272,0.9038523395256132,-0.4744657643900442
6.000000000000338,0.9340092501648045,-0.5317312189389929
6.200000000000405,0.9403840620757866,-0.58976411627276
6.400000000000472,0.9363737887508915,-0.645258514951451
6.600000000000539,0.9408103885503313,-0.6965080021224578
6.800000000000606,0.9579907695007431,-0.7514849499233638
7.000000000000672,0.9823715888553378,-0.8059809863834194
7.200000000000739,0.9931341332632684,-0.8570220810398592
7.400000000000806,1.002030503700973,-0.90584380250789
7.600000000000873,1.0020165630821993,-0.9534034539305669
7.8000000000009395,0.9937932276332395,-0.9982981063391966
8.000000000001005,0.9967696886760576,-1.0460640572248594
8.200000000000895,0.9952515476638123,-1.103763622218256
8.400000000000784,0.98305508689522,-1.1562236132142576
8.600000000000673,0.9676060216727117,-1.2081470394183382
8.800000000000562,0.9485121759409887,-1.2591390283647632
9.000000000000451,0.913997903080857,-1.28749530949397
9.20000000000034,0.8742007320232117,-1.2937422399148457
9.40000000000023,0.8186299435221133,-1.313807446088742
9.600000000000119,0.764463501847776,-1.325189648277689
9.800000000000008,0.7070478114777752,-1.3325802624112042
10.000999999999896,0.6407695690462641,-1.3351099782016804
10.200999999999786,0.5718972977613804,-1.3357487122506195
10.400999999999675,0.5198756984966204,-1.315199583420063
10.600999999999564,0.4916961241921609,-1.2723412058792023
10.800999999999453,0.48751652992243005,-1.227981220670809
11.000999999999342,0.49050973055463276,-1.1862362634725596
11.200999999999231,0.5000133576337626,-1.1553409763230607
11.40099999999912,0.5132421238667558,-1.124806051322952
11.60099999999901,0.5330401546500858,-1.0893656469680746
11.800999999998899,0.5428198185615667,-1.037851028736304
12.000999999998788,0.5452181799365086,-0.9972796618109105
12.200999999998677,0.5551323412513949,-0.9613647968902925
12.400999999998566,0.5667775859129136,-0.9189455122728605
12.600999999998455,0.5884239074280626,-0.8882065564825214
12.800999999998345,0.6157260355490287,-0.8398800977907886
13.000999999998234,0.6497278423750145,-0.7939069188283945
13.200999999998123,0.6835451636749575,-0.7536348084489503
13.400999999998012,0.717006932086638,-0.7023461357171679
13.600999999997901,0.7423823365364005,-0.6484362758345446
13.80099999999779,0.7755108751170559,-0.6117124362935704
14.00099999999768,0.8075492825179426,-0.5774407740142765
14.200999999997569,0.8467613346419413,-0.5638853110310033
14.400999999997458,0.8909111969843607,-0.5523933928856508
14.600999999997347,0.9414949831645815,-0.5408906214284696
14.800999999997236,0.9978700532561289,-0.5293127402822785
15.000999999997125,1.0602130368104121,-0.5163571578048156
15.200999999997014,1.1175212775681749,-0.5146025810283849
15.400999999996904,1.168729938420963,-0.5109201135027068
15.600999999996793,1.221959984451289,-0.5038034796202975
15.800999999996682,1.275625132889639,-0.48774175622088173
16.000999999996573,1.3345211679708167,-0.47506335791545096
16.200999999996817,1.397162289892197,-0.45523700859284255
16.40099999999706,1.4566862203955628,-0.4419266362799638
16.600999999997306,1.5187649901438935,-0.42592652348616505
16.80099999999755,1.5714144655976068,-0.42481325491676486
17.000999999997795,1.6189540194808856,-0.42930532929455045
17.20099999999804,1.6707139801677249,-0.42642186260022225
17.400999999998284,1.7139419353414815,-0.4279571774000325
17.60099999999853,1.7384862384889324,-0.4408098565338661
17.800999999998773,1.7529591624418077,-0.47323555003773576
18.000999999999017,1.767066926750458,-0.513118963385252
18.20099999999926,1.775160173525162,-0.5612315614897956
18.400999999999506,1.7760186406218677,-0.6151052630451518
18.60099999999975,1.789602549293868,-0.6828306050401609
18.799999999999994,1.7928190548939307,-0.7362782363148063
19.000000000000238,1.7912265692083909,-0.7830081530759903
19.200000000000482,1.7856511755966291,-0.833086315435736
19.400000000000727,1.7780638181136943,-0.8725673175212039
19.60000000000097,1.754609892303799,-0.910067556242662
19.800000000001216,1.746189563796836,-0.9503166918239213
20.00000000000146,1.7642403736666539,-0.9991042151906449
