Time (s),X (m),Y (m)
0.001,0.0003991412691229187,0.0010155025257856582
0.20000000000000015,3.1489128988137497e-06,-0.001594123510480282
0.4000000000000003,0.009511626956079699,0.0022318703371943163
0.6000000000000004,0.022984518406575005,-0.014527026942582429
0.8000000000000006,0.04404673500941053,-0.01196580431971726
1.0000000000000007,0.08093421097658425,1.6987017899902987e-05
1.2009999999999785,0.10600765103281479,-0.013197845659586791
1.4009999999999565,0.13924561144254133,-0.017717492012207646
1.6009999999999345,0.1761017034700447,-0.020625577896004135
1.8009999999999124,0.21624458028193924,-0.03251212097217983
2.0009999999998906,0.2506664196585818,-0.04917167842194174
2.2009999999998686,0.2896526693611399,-0.0693141980376328
2.4009999999998466,0.31525650197128774,-0.10129193212928357
2.6009999999998246,0.3232494742310722,-0.14001207456094414
2.8009999999998025,0.3338182874565496,-0.18135462043403924
3.0009999999997805,0.35256976277382124,-0.22308301160618116
3.2009999999997585,0.346170063295937,-0.26283745405551345
3.4009999999997365,0.340582594985687,-0.3049647175144841
3.6009999999997144,0.3319178724318825,-0.3497044304920238
3.8009999999996924,0.33290367016672107,-0.3945189346780249
4.000999999999671,0.32984412696977466,-0.4359037358514238
4.200999999999738,0.32027767936524,-0.47635708383496983
4.400999999999804,0.30799019561554347,-0.5154821102461689
4.600999999999871,0.2913085175620276,-0.5630897058365979
4.800999999999938,0.2789365583812552,-0.6079933285193482
5.000000000000004,0.26455946472776,-0.6564329605627925
5.200000000000071,0.2478882693065825,-0.7029434879148954
5.400000000000138,0.22262494867601307,-0.7362807699613846
5.600000000000205,0.19133123695691606,-0.766408497708297
5.800000000000272,0.15122789218230268,-0.7837985154774678
6.000000000000338,0.11061459315310548,-0.7786174675063804
6.200000000000405,0.0617480400558008,-0.7867023198638958
6.400000000000472,0.010180146131865223,-0.7976994023087199
6.600000000000539,-0.03466738421371018,-0.7966885092105152
6.800000000000606,-0.07285457320268632,-0.7989647790905404
7.000000000000672,-0.11658923423923856,-0.7914524633334903
7.200000000000739,-0.15696437092179238,-0.7721954832849482
7.400000000000806,-0.19623365524329694,-0.7664932426922615
7.600000000000873,-0.2359967191428361,-0.7618760730619896
7.8000000000009395,-0.27638040055024377,-0.7462734497786154
8.000000000001005,-0.334647641270896,-0.7449673783251356
8.200000000000895,-0.39931263832002695,-0.7552889130841174
8.400000000000784,-0.4568088973035523,-0.7544183457630962
8.600000000000673,-0.5258217717702226,-0.7609565219366317
8.800000000000562,-0.5813177026910512,-0.7476752297613543
9.000000000000451,-0.6402339034540638,-0.7339406785419887
9.20000000000034,-0.7059309513368478,-0.7289801942722899
9.40000000000023,-0.7530858610358497,-0.7156534635669812
9.600000000000119,-0.7776468760722012,-0.6885647898503249
9.800000000000008,-0.7885720689033873,-0.6476733147939083
10.000999999999896,-0.7967748134684774,-0.5984543607950059
10.200999999999786,-0.8016051144615529,-0.5429711608503834
10.400999999999675,-0.7923653451352032,-0.491383876430752
10.600999999999564,-0.7936471450246212,-0.42808970007562036
10.800999999999453,-0.8045139691626374,-0.36299281494124636
11.000999999999342,-0.8004013155905473,-0.32856765140044036
11.200999999999231,-0.7804828703517201,-0.30669463029836525
11.40099999999912,-0.7473927730750926,-0.29557431439319937
11.60099999999901,-0.6949717681149153,-0.28608189414995705
11.800999999998899,-0.6410926922128096,-0.29120070438061063
12.000999999998788,-0.5824220203018194,-0.2902093173466528
12.200999999998677,-0.5283732118587205,-0.29663742368850254
12.400999999998566,-0.4748995128140006,-0.29979287837892743
12.600999999998455,-0.42553751591966893,-0.2991703155091465
12.800999999998345,-0.37295117306439746,-0.29652766149098325
13.000999999998234,-0.3271367712279962,-0.30795352259017694
13.200999999998123,-0.28170595079125366,-0.3198824915406017
13.400999999998012,-0.22051409391171836,-0.318634544258546
13.600999999997901,-0.16114358337538384,-0.32326944193463314
13.80099999999779,-0.12001002394342906,-0.33922332995059007
14.00099999999768,-0.08707920410702426,-0.36702828572492535
14.200999999997569,-0.057083406680593786,-0.39685105808438065
14.400999999997458,-0.023343202903465803,-0.43497654463349505
14.600999999997347,0.01143485785275509,-0.48006559586634423
14.800999999997236,0.04343149619294776,-0.5305460697624496
15.000999999997125,0.0713228405195071,-0.5819826066798982
15.200999999997014,0.07322397124878745,-0.6355261430852629
15.400999999996904,0.06751722624905257,-0.6856136995406358
15.600999999996793,0.06881743498718558,-0.7320272555954038
15.800999999996682,0.09213015721893149,-0.7760991374333108
16.000999999996573,0.12702433246209965,-0.822261434293927
16.200999999996817,0.1650657044352379,-0.8684904419699895
16.40099999999706,0.1900158354147965,-0.9165125973641232
16.600999999997306,0.19556034329291833,-0.9703567075597108
16.80099999999755,0.20742237712527642,-1.0321860878272975
17.000999999997795,0.18827285889649464,-1.0869063610186347
17.20099999999804,0.17558097779296253,-1.136216249700844
17.400999999998284,0.1714342200743797,-1.1842039397901987
17.60099999999853,0.18044279499800606,-1.2421548959156865
17.800999999998773,0.17254599061478548,-1.2912169632013433
18.000999999999017,0.15243082673115393,-1.3352750747032496
18.20099999999926,0.13687107102031337,-1.3790595424592125
18.400999999999506,0.120188251248776,-1.4131995439575564
18.60099999999975,0.09349316101547288,-1.4311249375742106
18.799999999999994,0.061969737234487475,-1.4585519246642642
19.000000000000238,0.03180611375131607,-1.4693900599480931
19.200000000000482,-0.009939835912269391,-1.4804492064664008
19.400000000000727,-0.061504454461562774,-1.4941898275911485
19.60000000000097,-0.11252428750413275,-1.510681535751691
19.800000000001216,-0.17003979923404802,-1.5248277934120753
20.00000000000146,-0.23287764174020056,-1.5427999402321637
