Time (s),X (m),Y (m)
0.001,0.0007356649194092869,0.0008930179339548111
0.20000000000000015,0.001886847125638873,-0.0027989090953012582
0.4000000000000003,0.0037089495820084024,-0.014061070972361854
0.6000000000000004,0.018468677212542865,-0.01141322886495086
0.8000000000000006,0.045865974239556837,0.0006952294099776918
1.0000000000000007,0.0774977668365691,0.011409080090855882
1.2009999999999785,0.12383988040624948,0.028687765339864855
1.4009999999999565,0.18362294488815992,0.04666207485537308
1.6009999999999345,0.2429710317475302,0.07521642530894518
1.8009999999999124,0.29468984703143747,0.09612401404987737
2.0009999999998906,0.34566686200154756,0.1017535930706863
2.2009999999998686,0.3784944858132936,0.0890209791861961
2.4009999999998466,0.39376289712288065,0.059563483637690644
2.6009999999998246,0.40123223982219475,0.02564312661790955
2.8009999999998025,0.4251220325923696,-0.012764157282395716
3.0009999999997805,0.46182686316782784,-0.059481808005079115
3.2009999999997585,0.5015626264779895,-0.10077658335075906
3.4009999999997365,0.5205625887419418,-0.14500261761969307
3.6009999999997144,0.5422212811423502,-0.1935533438546094
3.8009999999996924,0.5855213302368635,-0.25068539541204293
4.000999999999671,0.6349820114074402,-0.3130136490143813
4.200999999999738,0.6894670317091808,-0.3833737999944507
4.400999999999804,0.7420956550720418,-0.45311221137074187
4.600999999999871,0.7942695418061279,-0.5049511171249316
4.800999999999938,0.8447627690748241,-0.556121600088579
5.000000000000004,0.8869608486017246,-0.6184944057312435
5.200000000000071,0.9211844050280125,-0.6836987434014961
5.400000000000138,0.9360369288877262,-0.7246755913333333
5.600000000000205,0.9223754008193475,-0.751127625078901
5.800000000000272,0.8849508889085963,-0.7652118972834415
6.000000000000338,0.8525869356702209,-0.7567029056053153
6.200000000000405,0.8131561833298547,-0.7321359415682199
6.400000000000472,0.7777267208590644,-0.6983158465149155
6.600000000000539,0.7317632047293391,-0.6518202500363077
6.800000000000606,0.6819628045561635,-0.594820953119384
7.000000000000672,0.635154120529157,-0.5328302115341291
7.200000000000739,0.5775653990948856,-0.4628540826336222
7.400000000000806,0.5301759863202462,-0.38894757460009594
7.600000000000873,0.4947979060043153,-0.3172707680324772
7.8000000000009395,0.4949385840672437,-0.2587558067568019
8.000000000001005,0.5226549305535251,-0.2210671947916677
8.200000000000895,0.5493028532269345,-0.2057290929445207
8.400000000000784,0.5704192990774661,-0.21479119568794025
8.600000000000673,0.6061199027956998,-0.24911707445646503
8.800000000000562,0.6379438197751487,-0.30339648289784943
9.000000000000451,0.6475985669239468,-0.3650761897658776
9.20000000000034,0.6264819760756397,-0.4213307700253523
9.40000000000023,0.5880937302164327,-0.4665599385413905
9.600000000000119,0.5389218982481527,-0.4931124008925915
9.800000000000008,0.49328479332575614,-0.5349275113208277
10.000999999999896,0.4481534595053822,-0.5665014621703991
10.200999999999786,0.39298705518336113,-0.6010326386420365
10.400999999999675,0.32419516515717806,-0.6437125333423562
10.600999999999564,0.25554667884525695,-0.6812373798342496
10.800999999999453,0.18446412631626863,-0.7110804607750142
11.000999999999342,0.11417367283820873,-0.7318562216575746
11.200999999999231,0.04477804652449072,-0.7634423004417017
11.40099999999912,-0.026316568251766093,-0.7984223664727758
11.60099999999901,-0.09080306788207682,-0.8353421699653791
11.800999999998899,-0.1613840728854942,-0.8823931724435198
12.000999999998788,-0.22774507102533006,-0.9469346971493436
12.200999999998677,-0.28723963696590293,-1.0170241499796022
12.400999999998566,-0.3508530024046195,-1.0793979577893622
12.600999999998455,-0.42605390940284676,-1.138047483368146
12.800999999998345,-0.5037487384707422,-1.1863323991616856
13.000999999998234,-0.5860303408769488,-1.2232874753067764
13.200999999998123,-0.6760617874827632,-1.2553468139201371
13.400999999998012,-0.7604458400272488,-1.2692713940487033
13.600999999997901,-0.8425781897254556,-1.266248632703409
13.80099999999779,-0.9127810650507386,-1.2463396814127488
14.00099999999768,-0.969382449745255,-1.2120062167055583
14.200999999997569,-1.0226293484562647,-1.1607267571232045
14.400999999997458,-1.0764440633327477,-1.097418259053576
14.600999999997347,-1.1218118275971944,-1.0215513105178422
14.800999999997236,-1.1581876469974788,-0.9255313813403105
15.000999999997125,-1.1820221639383044,-0.833683092987632
15.200999999997014,-1.1873300027199303,-0.7529838892068613
15.400999999996904,-1.1636648924471855,-0.6899000838373878
15.600999999996793,-1.1234960422140037,-0.6278698332437685
15.800999999996682,-1.0672211009048302,-0.5702746264286336
16.000999999996573,-0.9910357299267437,-0.5203800106381306
16.200999999996817,-0.9090915599247279,-0.48341443545563145
16.40099999999706,-0.8326478058812581,-0.4578211585426005
16.600999999997306,-0.761399289094683,-0.4605745917045919
16.80099999999755,-0.705055567832027,-0.5058481053686772
17.000999999997795,-0.6643876696964385,-0.5670836505026258
17.20099999999804,-0.6361064076864589,-0.6175130052170614
17.400999999998284,-0.6124602951076272,-0.6943997452317892
17.60099999999853,-0.5967728651220962,-0.7670616715502911
17.800999999998773,-0.5934414360649856,-0.8249314365136052
18.000999999999017,-0.606396645148606,-0.8587855744844114
18.20099999999926,-0.6465307029769418,-0.8722111391521377
18.400999999999506,-0.687723017305711,-0.8642212607514936
18.60099999999975,-0.731164156006579,-0.83095898949052
18.799999999999994,-0.7720425663482153,-0.7845434617180741
19.000000000000238,-0.8038095884500867,-0.7279075293538374
19.200000000000482,-0.8182988062412344,-0.6941940291000128
19.400000000000727,-0.8098978994905415,-0.6686222591914595
19.60000000000097,-0.7827581959012577,-0.6289419058880893
19.800000000001216,-0.7393712725742482,-0.5872136879596621
20.00000000000146,-0.6841221977765644,-0.5472785565446904
