Time (s),X (m),Y (m)
0.001,0.0006558713247593165,0.0009345558501746678
0.20000000000000015,-0.001924072768202043,-0.004599005437370591
0.4000000000000003,0.0022688622521565816,-0.0007650266362015409
0.6000000000000004,0.014229683704646662,-0.0010573708527819331
0.8000000000000006,0.03514273868030061,0.0018021924949186239
1.0000000000000007,0.06056176302140915,-0.001245997461215675
1.2009999999999785,0.07875238563983675,-0.004698804537851471
1.4009999999999565,0.09887489668760524,-0.014565124087828582
1.6009999999999345,0.12130669062441878,-0.008040385942099717
1.8009999999999124,0.14717679849582999,-0.006888077526379044
2.0009999999998906,0.17697194435481567,-0.0019978750306326367
2.2009999999998686,0.21519365050868916,0.014145830796999602
2.4009999999998466,0.25268689068738753,0.03772063105189641
2.6009999999998246,0.28883000211313437,0.062180292156622956
2.8009999999998025,0.32051422278185737,0.08531534688905015
3.0009999999997805,0.34671512307518193,0.1057190605498026
3.2009999999997585,0.3784607743723388,0.13642081055153946
3.4009999999997365,0.41529397437051896,0.16290022008996544
3.6009999999997144,0.45460542982646457,0.1795879122129959
3.8009999999996924,0.4880251096009388,0.1937027503204715
4.000999999999671,0.5234326844314553,0.20793734708197312
4.200999999999738,0.5598642923074995,0.23544309295206525
4.400999999999804,0.5973070194530702,0.2568983007029089
4.600999999999871,0.6355236109732865,0.2622227194626815
4.800999999999938,0.6717776572933782,0.2796013522970146
5.000000000000004,0.7114879460418646,0.30386889511691195
5.200000000000071,0.7536962210801843,0.30762594783419306
5.400000000000138,0.7960749524121203,0.3130004913088957
5.600000000000205,0.831703061526726,0.32614905657791043
5.800000000000272,0.8677179549641453,0.33877866171620225
6.000000000000338,0.9092132533997456,0.348892306734015
6.200000000000405,0.9479422013020247,0.37871883994774774
6.400000000000472,0.9941208412926991,0.39265386047896944
6.600000000000539,1.0379582699493173,0.41474439900194987
6.800000000000606,1.0751042078133477,0.42236302299407735
7.000000000000672,1.1166162873326877,0.45318636485986996
7.200000000000739,1.1632883595664394,0.4613378733631082
7.400000000000806,1.2056200766815226,0.47076767313805323
7.600000000000873,1.2491242953018642,0.4871182675697434
7.8000000000009395,1.2929312644564732,0.5068837959756085
8.000000000001005,1.3361925699834005,0.5357428198745274
8.200000000000895,1.38965952591741,0.5549202643522441
8.400000000000784,1.442542367070795,0.5808883241183015
8.600000000000673,1.4900452361826702,0.5908467952701689
8.800000000000562,1.5271915086058647,0.6112274195467128
9.000000000000451,1.5639290011055376,0.6335595214191192
9.20000000000034,1.5959431859104427,0.6526419991222494
9.40000000000023,1.6294510179578385,0.6824486459722284
9.600000000000119,1.6675137152629178,0.6947795705817095
9.800000000000008,1.7058884639621417,0.7188304375073531
10.000999999999896,1.7476592846824182,0.7412750270980397
10.200999999999786,1.7934900121913118,0.7686417694576068
10.400999999999675,1.842888123395019,0.7914348944275681
10.600999999999564,1.8897077034063985,0.823668999118954
10.800999999999453,1.9341475583474517,0.8622728779946798
11.000999999999342,1.9768161248232543,0.8888502109314252
11.200999999999231,2.015732812576948,0.9218347665706331
11.40099999999912,2.049401105856137,0.9601345661383291
11.60099999999901,2.084673889848867,0.9902922325112925
11.800999999998899,2.114476536723516,1.0218099705091936
12.000999999998788,2.1494368398315706,1.0496353947976802
12.200999999998677,2.182399745074806,1.0943998096266567
12.400999999998566,2.214575198299223,1.1443835706824437
12.600999999998455,2.2509275553806924,1.1808371683902934
12.800999999998345,2.287135576599996,1.2129401164513103
13.000999999998234,2.309545088874581,1.2577949020290802
13.200999999998123,2.328514597657842,1.2946313195231585
13.400999999998012,2.3515141072124712,1.333398537131145
13.600999999997901,2.3729320718703986,1.3693810416414054
13.80099999999779,2.3968740953336787,1.3966028905270087
14.00099999999768,2.4381080023823656,1.4216952349443583
14.200999999997569,2.480512050150053,1.4510175991202992
14.400999999997458,2.5218880593470345,1.4871323031339674
14.600999999997347,2.553544388776554,1.5311659078712914
14.800999999997236,2.589636242226458,1.5603383848681494
15.000999999997125,2.6272615936691786,1.5940463184904343
15.200999999997014,2.651149400779398,1.629573404014565
15.400999999996904,2.6720820162867804,1.6506746470484563
15.600999999996793,2.710530800168508,1.6732374725839574
15.800999999996682,2.757858808759349,1.6957018142790066
16.000999999996573,2.8093340878102877,1.7018240228713093
16.200999999996817,2.8517289163483612,1.7182276642379806
16.40099999999706,2.8969776844384247,1.7399801802784154
16.600999999997306,2.947552656773556,1.760577156635622
16.80099999999755,2.9978617899313997,1.8048645260483946
17.000999999997795,3.0534082982412385,1.8476555957994416
17.20099999999804,3.097951403513012,1.8827469255400149
17.400999999998284,3.13682374142553,1.914079786328176
17.60099999999853,3.1770130527487153,1.9502616646369562
17.800999999998773,3.2284126894363117,1.9850603120586796
18.000999999999017,3.2801527477461083,2.006983019169527
18.20099999999926,3.330610910822138,2.0323904747707147
18.400999999999506,3.3896674984605775,2.0568959784303407
18.60099999999975,3.4431182392185766,2.0946250757431515
18.799999999999994,3.493947706391762,2.1200761237759007
19.000000000000238,3.546480923721691,2.1433792847028283
19.200000000000482,3.5970822781772287,2.173699588622018
19.400000000000727,3.6493630877741245,2.21256415138138
19.60000000000097,3.698998570415769,2.246823651366261
19.800000000001216,3.754826109108799,2.2870877150672424
20.00000000000146,3.810551116419329,2.322650096689289
