Time (s),X (m),Y (m)
0.001,-0.0003713730577023104,0.0008446836120385872
0.20000000000000015,0.004180295789679927,-0.003083803883022807
0.4000000000000003,0.005837105502574735,0.003427616277681683
0.6000000000000004,0.014130376405022294,0.008342561845590785
0.8000000000000006,0.02069824310064292,0.015370213932005257
1.0000000000000007,0.03241250685015773,0.023846509159511836
1.2009999999999785,0.04608612216209735,0.030237245926694564
1.4009999999999565,0.0685436043684317,0.035124035177402015
1.6009999999999345,0.09665361641122049,0.02985522428247554
1.8009999999999124,0.11368280590302343,0.02523452794066968
2.0009999999998906,0.12778809933344015,0.0304287656298908
2.2009999999998686,0.14320751156165598,0.020982305612073662
2.4009999999998466,0.15846997251309836,0.007879713005479067
2.6009999999998246,0.17478706535572258,-0.0005146533728629712
2.8009999999998025,0.19068972171448148,-0.002253314030849387
3.0009999999997805,0.20531774640949002,-0.015539200255201134
3.2009999999997585,0.21767240771522053,-0.02174527319836829
3.4009999999997365,0.23977010296873189,-0.04180263399626747
3.6009999999997144,0.2606941065637019,-0.06020524086134572
3.8009999999996924,0.2811612131863013,-0.07630677361563352
4.000999999999671,0.2988981645147586,-0.098573919406728
4.200999999999738,0.3040143397915747,-0.12442285517200782
4.400999999999804,0.3081097332716603,-0.14467323226100595
4.600999999999871,0.31714074350076765,-0.1669099940932739
4.800999999999938,0.3190040178549557,-0.19576182153594054
5.000000000000004,0.32470482500338155,-0.2189176437756534
5.200000000000071,0.33778910488114117,-0.2385374793271384
5.400000000000138,0.3485479165708783,-0.2653330379452434
5.600000000000205,0.3612964391235022,-0.28566311498850766
5.800000000000272,0.358237879654141,-0.3098063051476172
6.000000000000338,0.36074352248797376,-0.32976091180863715
6.200000000000405,0.36657242046446226,-0.34920984877243894
6.400000000000472,0.369675597465543,-0.36996459170699825
6.600000000000539,0.3732499331995979,-0.3809046165308475
6.800000000000606,0.3721456053854697,-0.4012670161430813
7.000000000000672,0.3714983874954364,-0.43097770736925395
7.200000000000739,0.38489539494091735,-0.4517978091987168
7.400000000000806,0.39312801309433465,-0.4735306516310868
7.600000000000873,0.4094677637162365,-0.497102955816463
7.8000000000009395,0.4136345127127561,-0.5283529955087815
8.000000000001005,0.4141258640840986,-0.5575282100468351
8.200000000000895,0.4141233866927356,-0.5932418992239228
8.400000000000784,0.41334504792982996,-0.627822591480646
8.600000000000673,0.4213980813661606,-0.6497582904867234
8.800000000000562,0.43091414569058445,-0.6768423637173191
9.000000000000451,0.4389853647753663,-0.7066589402841319
9.20000000000034,0.4472982794875563,-0.7336215763164493
9.40000000000023,0.46109119438775814,-0.7425556334076784
9.600000000000119,0.46925171102898267,-0.7473671408064144
9.800000000000008,0.4709782895010473,-0.764392147303968
10.000999999999896,0.4800488623019364,-0.7863260203383619
10.200999999999786,0.4942734707876799,-0.8059375103625979
10.400999999999675,0.506688921773329,-0.8249015412608381
10.600999999999564,0.5136591375122346,-0.845678763931661
10.800999999999453,0.5195722374603747,-0.8687290397145961
11.000999999999342,0.5244605044895835,-0.896990754522689
11.200999999999231,0.5262556463235735,-0.9252171546568609
11.40099999999912,0.5225076906786769,-0.9542598727535893
11.60099999999901,0.5193299274508538,-0.9828048832739995
11.800999999998899,0.5240881022010848,-1.007127408645076
12.000999999998788,0.5314863184344681,-1.029335484200572
12.200999999998677,0.5445071845304739,-1.04706676909845
12.400999999998566,0.5431317980704674,-1.0689289592391775
12.600999999998455,0.5474964822771325,-1.0963233608426974
12.800999999998345,0.5419366608858575,-1.1256099165419753
13.000999999998234,0.5407984495801548,-1.1522118447191758
13.200999999998123,0.5481972626078311,-1.1729572437467732
13.400999999998012,0.5444865427537577,-1.1964116650013954
13.600999999997901,0.5286261443239401,-1.2219339713524318
13.80099999999779,0.5080618208646164,-1.247360509620088
14.00099999999768,0.4852599296348387,-1.272154912610433
14.200999999997569,0.4665157397197174,-1.2969235333098663
14.400999999997458,0.45755574235649343,-1.3198126963905707
14.600999999997347,0.44519303887598005,-1.3384604468661858
14.800999999997236,0.426183717209839,-1.3477266339241407
15.000999999997125,0.4091804159638283,-1.3571907719064809
15.200999999997014,0.381968677850946,-1.368015924038006
15.400999999996904,0.3551981273331887,-1.3692290877997242
15.600999999996793,0.3324144898714323,-1.3813475380498175
15.800999999996682,0.30931328592630597,-1.3903904370155293
16.000999999996573,0.2838147609791667,-1.3986289260701925
16.200999999996817,0.25434437389565956,-1.4064906071399563
16.40099999999706,0.22296836698511263,-1.4198506886615956
16.600999999997306,0.19914303536263075,-1.4350825757063626
16.80099999999755,0.18368144723322005,-1.4549493488232332
17.000999999997795,0.16428965712039542,-1.4637641121474378
17.20099999999804,0.14036392033866615,-1.4735080896808894
17.400999999998284,0.11428385883114957,-1.4763717295135785
17.60099999999853,0.09069326410675028,-1.487241256864824
17.800999999998773,0.06888395998540021,-1.5001961658138747
18.000999999999017,0.04664004292861123,-1.5113337816070453
18.20099999999926,0.019079651373567222,-1.5200667297568706
18.400999999999506,-0.007499736304379091,-1.5290443179097408
18.60099999999975,-0.027947125374210263,-1.540134733347946
18.799999999999994,-0.05208400391515471,-1.5353847198851633
19.000000000000238,-0.07920182907930891,-1.527705237933473
19.200000000000482,-0.1025866090004312,-1.5206435022147429
19.400000000000727,-0.12366317986810604,-1.5049662340597822
19.60000000000097,-0.14543167447727584,-1.4829612590423706
19.800000000001216,-0.168087455224814,-1.4650428456130096
20.00000000000146,-0.18630980279542336,-1.4303361104939094
