Time (s),X (m),Y (m)
0.001,-0.00013259955118837574,0.0009689812320744445
0.20000000000000015,0.003776293961940096,0.0009619364300020262
0.4000000000000003,0.0169530503647908,-0.0010439911259279117
0.6000000000000004,0.04210443166051534,-0.013176536392066129
0.8000000000000006,0.08322919647851347,-0.03463660296869294
1.0000000000000007,0.13592584646554712,-0.054488486320942595
1.2009999999999785,0.17626536324661718,-0.0835090929201788
1.4009999999999565,0.18355727552050768,-0.12607707550637046
1.6009999999999345,0.16488569537005296,-0.17407866428141308
1.8009999999999124,0.12753850667262584,-0.22344405987473365
2.0009999999998906,0.07437246671042244,-0.26768733692684127
2.2009999999998686,0.017798712057735592,-0.29354591138311514
2.4009999999998466,-0.04417291059058886,-0.29053767240708184
2.6009999999998246,-0.1098168049821989,-0.2828982051898525
2.8009999999998025,-0.1828491261716407,-0.27814807349988496
3.0009999999997805,-0.2548635939959636,-0.2607522478821351
3.2009999999997585,-0.32432191674051475,-0.23840744482225737
3.4009999999997365,-0.3778435861853038,-0.2020630922826113
3.6009999999997144,-0.42578851509955407,-0.16085922429096824
3.8009999999996924,-0.42591851708303424,-0.110648278967834
4.000999999999671,-0.3595368098059177,-0.0618648285910338
4.200999999999738,-0.3023313439276218,-0.0036684941172029696
4.400999999999804,-0.2359404764189684,0.058599233837179805
4.600999999999871,-0.1504801365178527,0.11054555115050874
4.800999999999938,-0.06635856902754708,0.1475595956910388
5.000000000000004,0.017337746275524715,0.13695606707488642
5.200000000000071,0.1043563514087487,0.10663263132563248
5.400000000000138,0.18604249704965353,0.05930163221524351
5.600000000000205,0.26231777800309386,0.01022685065369379
5.800000000000272,0.3251516792554741,-0.06051256114606004
6.000000000000338,0.38197776349686063,-0.13700810293496857
6.200000000000405,0.41778584570164656,-0.22000651392242265
6.400000000000472,0.4328028134094417,-0.3075036150906758
6.600000000000539,0.4289541663518638,-0.39191943218335934
6.800000000000606,0.4017587209851292,-0.47412981323604575
7.000000000000672,0.3454234401679222,-0.5435399473796931
7.200000000000739,0.27520366560671294,-0.5989101602853412
7.400000000000806,0.18650781009825204,-0.6409144483777943
7.600000000000873,0.09888755604917378,-0.6862332849903803
7.8000000000009395,0.013291050002019552,-0.7128903499122808
8.000000000001005,-0.06161769484422878,-0.7047465843908928
8.200000000000895,-0.1358355513099327,-0.6812964152308011
8.400000000000784,-0.18977392055555536,-0.6469494666688661
8.600000000000673,-0.20158026426303646,-0.5965240863990894
8.800000000000562,-0.17841862484510604,-0.5450212168795538
9.000000000000451,-0.13392166111177586,-0.5012826885319199
9.20000000000034,-0.07767726989920921,-0.4753536873510619
9.40000000000023,-0.012630881816210946,-0.47603877942051753
9.600000000000119,0.058117471530760745,-0.5087746452806268
9.800000000000008,0.11902809043398765,-0.5597945228567577
10.000999999999896,0.1625654606421515,-0.6300947773635243
10.200999999999786,0.19771590062105887,-0.7034914902927981
10.400999999999675,0.22522243556082977,-0.7797519228124481
10.600999999999564,0.2317541337696421,-0.8679308212106835
10.800999999999453,0.21022576676353275,-0.9536031608484223
11.000999999999342,0.18918274719177333,-1.0436226938582402
11.200999999999231,0.15340578831524312,-1.1265680725626992
11.40099999999912,0.10558191727964363,-1.187356378003737
11.60099999999901,0.046742126043510905,-1.227476297680189
11.800999999998899,-0.01779592091823384,-1.2355130326535655
12.000999999998788,-0.08157828806151285,-1.2089439928143724
12.200999999998677,-0.14686296175238567,-1.1684775268230594
12.400999999998566,-0.20878330451992552,-1.114372308811515
12.600999999998455,-0.2606656295568808,-1.0258024705007247
12.800999999998345,-0.312804948224991,-0.9380797701742895
13.000999999998234,-0.3596807936767199,-0.8544523554310687
13.200999999998123,-0.39336520149455007,-0.7616201633422347
13.400999999998012,-0.4037274522786028,-0.6702891218954496
13.600999999997901,-0.39010120643105767,-0.5885582099129426
13.80099999999779,-0.3567624613470023,-0.5095099514813254
14.00099999999768,-0.3224435087533301,-0.43462847434527746
14.200999999997569,-0.2800983917119914,-0.37048611940994614
14.400999999997458,-0.2260671640004558,-0.3449690879751481
14.600999999997347,-0.16493190643149827,-0.3503310773867104
14.800999999997236,-0.09863031401061792,-0.38324415166838366
15.000999999997125,-0.02828149422567727,-0.42889212496826745
15.200999999997014,0.042287346034589786,-0.4869290600014282
15.400999999996904,0.10840875963592156,-0.5647552931636002
15.600999999996793,0.17379534610701577,-0.6465861421704212
15.800999999996682,0.2126294005291708,-0.7381418618398679
16.000999999996573,0.21560043210141167,-0.8345292750087039
16.200999999996817,0.20481507792470394,-0.9265797050221802
16.40099999999706,0.17629985224094882,-1.013951050934839
16.600999999997306,0.13319802279951398,-1.090619397797618
16.80099999999755,0.07712193377514236,-1.161349564795022
17.000999999997795,0.018461356481791306,-1.212070397093297
17.20099999999804,-0.050540673979750934,-1.2238864693999112
17.400999999998284,-0.1240464946326595,-1.1950344397192754
17.60099999999853,-0.20267977089259906,-1.1622770136091818
17.800999999998773,-0.27721226803774773,-1.125031667094582
18.000999999999017,-0.3496781091373045,-1.0705767312840884
18.20099999999926,-0.4196167023744579,-1.0001831970431798
18.400999999999506,-0.47889325957514145,-0.917526495522636
18.60099999999975,-0.5288173017387318,-0.8364804694961856
18.799999999999994,-0.5712286775366754,-0.7510599760607096
19.000000000000238,-0.5961665476381132,-0.6513499907190865
19.200000000000482,-0.6203576419754844,-0.5466863122023186
19.400000000000727,-0.6236888788842447,-0.44359117075296534
19.60000000000097,-0.6105040382528008,-0.34330088117940233
19.800000000001216,-0.591734706906433,-0.24061125194244354
20.00000000000146,-0.5613780767733131,-0.1418155344187949
