Time (s),X (m),Y (m)
0.001,-0.00021570977506068912,-0.0009345558501746678
0.20000000000000015,0.0015734556553741585,0.0006711030957351882
0.4000000000000003,0.0010417272692443157,-0.003233242722668484
0.6000000000000004,0.005059322327361163,-0.0023837524980445035
0.8000000000000006,0.013425834273598865,0.0013447848077876845
1.0000000000000007,0.017415356756451242,-0.0038377827881953294
1.2009999999999785,0.025930688126166713,-0.006150693152271578
1.4009999999999565,0.03676150205260068,-0.00465174270130069
1.6009999999999345,0.04924075204119571,-0.008779719685243688
1.8009999999999124,0.06355585748823125,-0.007556859885969792
2.0009999999998906,0.07753734715154466,0.0011462938854758904
2.2009999999998686,0.09239925389320368,0.009936732016612082
2.4009999999998466,0.10656293274376649,0.01533866623676333
2.6009999999998246,0.11834201891678016,0.02001347584770961
2.8009999999998025,0.13193020630641444,0.026510819053651834
3.0009999999997805,0.14604776487222249,0.031129981164713508
3.2009999999997585,0.1573289269650531,0.041751957148991596
3.4009999999997365,0.17248684954474935,0.05135399875155248
3.6009999999997144,0.18816474317190068,0.05865458083706066
3.8009999999996924,0.2015766644961058,0.06114686002215519
4.000999999999671,0.21808841087213204,0.0649711156575343
4.200999999999738,0.22954933139479414,0.0691077002792546
4.400999999999804,0.24326713398871888,0.07594222504114354
4.600999999999871,0.25919187562842877,0.08853827581409784
4.800999999999938,0.2744638423214362,0.08842995055403535
5.000000000000004,0.28824571722007053,0.08612664402680438
5.200000000000071,0.29979815307669677,0.0949366173296212
5.400000000000138,0.31647367830794465,0.10317075200943099
5.600000000000205,0.33380408701055836,0.10759237450029346
5.800000000000272,0.3465218222501612,0.12028444168399094
6.000000000000338,0.36084544048159756,0.13309816195176008
6.200000000000405,0.3803081407403256,0.13758783459274854
6.400000000000472,0.3957188810269526,0.14252490264317588
6.600000000000539,0.40974676213118494,0.14121490257153438
6.800000000000606,0.42382209505428,0.13958349972001258
7.000000000000672,0.43690556559325294,0.14531171786293492
7.200000000000739,0.4506267480105192,0.15000202208762595
7.400000000000806,0.4710274266478757,0.16216604671978124
7.600000000000873,0.4888437913280052,0.17000142097591114
7.8000000000009395,0.5046616156685876,0.18233783390147926
8.000000000001005,0.5189154564801121,0.1887354851393756
8.200000000000895,0.5313851617886124,0.19988846934414375
8.400000000000784,0.545151882673314,0.21111106374466443
8.600000000000673,0.5559433590967203,0.22243626579519934
8.800000000000562,0.5692202784925641,0.2355177324411125
9.000000000000451,0.5854780201463896,0.25732066606905996
9.20000000000034,0.5992110918225256,0.27680499664590563
9.40000000000023,0.6122402795782556,0.2865477094765068
9.600000000000119,0.6240756104067808,0.2958675491488809
9.800000000000008,0.6400441187805962,0.30326299263947676
10.000999999999896,0.6530233481695636,0.31182644823652506
10.200999999999786,0.6620314910166186,0.32574737438999657
10.400999999999675,0.6695841082211863,0.3389650845573458
10.600999999999564,0.6767553024058133,0.35217714395266936
10.800999999999453,0.6904605002309738,0.3640414849865655
11.000999999999342,0.6996380391872196,0.3792046009565884
11.200999999999231,0.7129357941568917,0.39585129361438154
11.40099999999912,0.7311534549198104,0.4042742440855352
11.60099999999901,0.7450488586420484,0.41230018466520774
11.800999999998899,0.7567100695742481,0.4241241661262208
12.000999999998788,0.7655424146843406,0.43650737590614863
12.200999999998677,0.7723857336714374,0.4535440707147397
12.400999999998566,0.782832007784575,0.463045946202991
12.600999999998455,0.7926444781174564,0.4845089565574749
12.800999999998345,0.7972023376727523,0.5112853364516469
13.000999999998234,0.8022922149149581,0.5320561958402139
13.200999999998123,0.8096461421254851,0.5481682114887761
13.400999999998012,0.8181998847209113,0.5617511007531011
13.600999999997901,0.8198006750479918,0.5782205337334269
13.80099999999779,0.8235825212983923,0.6037394536524635
14.00099999999768,0.8269580372473642,0.6284376078879249
14.200999999997569,0.8251134234582159,0.6546991514997869
14.400999999997458,0.8278505338677514,0.6799802074373218
14.600999999997347,0.8344502084385497,0.7002742591264829
14.800999999997236,0.8379307723886902,0.7150701713512554
15.000999999997125,0.8342048338265402,0.7335735018521155
15.200999999997014,0.8265372685715102,0.7611329771820583
15.400999999996904,0.8149642779147994,0.7855466439984069
15.600999999996793,0.8023555750449068,0.8101034743788
15.800999999996682,0.7966166041467303,0.8328177167310085
16.000999999996573,0.7926399055095178,0.8530719468067061
16.200999999996817,0.7930678338913479,0.8711500850714626
16.40099999999706,0.7779673045164561,0.8909284371038442
16.600999999997306,0.7757267480921352,0.90748337723478
16.80099999999755,0.7665882244716304,0.9258599733886083
17.000999999997795,0.7617660078880811,0.9453029690644206
17.20099999999804,0.7425612570632286,0.962991310749872
17.400999999998284,0.7306641678804737,0.9807451969113326
17.60099999999853,0.7279164012691087,0.9948721736993437
17.800999999998773,0.7223282151179317,1.0093621638165866
18.000999999999017,0.7118124640573031,1.022299841918418
18.20099999999926,0.7074648365782414,1.0356652066624226
18.400999999999506,0.6973782572275906,1.0475496386096779
18.60099999999975,0.693210209632949,1.0621364805682785
18.799999999999994,0.6815421986544534,1.0770861817435993
19.000000000000238,0.6698757984388548,1.0942914005717705
19.200000000000482,0.650664401502874,1.1088242975658495
19.400000000000727,0.6381799126418761,1.119822138013746
19.60000000000097,0.6282442112265008,1.134857976811028
19.800000000001216,0.610678014758863,1.1507015883814513
20.00000000000146,0.5991949269409013,1.169308503066375
