Time (s),X (m),Y (m)
0.001,0.0009492268646305597,0.0007291460897812449
0.20000000000000015,-0.0006321098637876285,-0.0022064780750991873
0.4000000000000003,0.005608164676762031,-0.0031110708180103644
0.6000000000000004,0.010817837010262357,-0.001960089750488545
0.8000000000000006,0.02820298676454248,-0.0028172833410700596
1.0000000000000007,0.049568737498488065,-0.007334819521537083
1.2009999999999785,0.07218297440322037,-0.007225029023645152
1.4009999999999565,0.09161212218106332,-0.007755611659716016
1.6009999999999345,0.11769246109546355,-0.001144938185704063
1.8009999999999124,0.13982377528177214,0.012787291225447958
2.0009999999998906,0.16363373318786611,0.02988725298235177
2.2009999999998686,0.18764662307905539,0.0317955872626975
2.4009999999998466,0.200315033609311,0.031501328338277755
2.6009999999998246,0.21296935233513334,0.0342259620944384
2.8009999999998025,0.22778010771409554,0.0350633999764664
3.0009999999997805,0.24546780439728189,0.04971343729159111
3.2009999999997585,0.259514539081364,0.051791839942797915
3.4009999999997365,0.2769169805009857,0.056876904546276134
3.6009999999997144,0.30451842954165204,0.06469769562395254
3.8009999999996924,0.32940930695762216,0.0724715128447651
4.000999999999671,0.3522998356953408,0.08642946898545972
4.200999999999738,0.37983019502696774,0.10484830760878346
4.400999999999804,0.40988549634966676,0.10831623301787369
4.600999999999871,0.4325289005467433,0.10731738630430199
4.800999999999938,0.45207230242399316,0.11751615183485417
5.000000000000004,0.47607415283204674,0.128761518130504
5.200000000000071,0.49888139413532046,0.14151723292310436
5.400000000000138,0.5174091375822477,0.14619861427459607
5.600000000000205,0.5398407374721248,0.1685489169709775
5.800000000000272,0.5694502333591092,0.2035733129474471
6.000000000000338,0.5963572580434993,0.23564932165916835
6.200000000000405,0.6149489024994536,0.24838012646550559
6.400000000000472,0.6374180392489599,0.2644459125942923
6.600000000000539,0.6584268895556379,0.3008578825018157
6.800000000000606,0.6791205990878478,0.33571995961825024
7.000000000000672,0.6997206757252579,0.3689586014228009
7.200000000000739,0.7214125153107239,0.3998332017209742
7.400000000000806,0.7424417597531437,0.41006570161548944
7.600000000000873,0.7593119453692566,0.42201005328334595
7.8000000000009395,0.7844923600191311,0.43507552355359136
8.000000000001005,0.8131807573311465,0.4536976907123307
8.200000000000895,0.8425176825717807,0.47566375514601994
8.400000000000784,0.8636087592926269,0.5026415700202324
8.600000000000673,0.8939620272220808,0.5238387619220044
8.800000000000562,0.9180509203442677,0.5393012686322176
9.000000000000451,0.9398435792760746,0.5601859067618677
9.20000000000034,0.9640311354235531,0.5941907344203842
9.40000000000023,0.9875660249801671,0.6151692370703289
9.600000000000119,1.0060703854108601,0.6428232454314198
9.800000000000008,1.0268597081569255,0.6694916480013566
10.000999999999896,1.0419215243038222,0.6877375159205255
10.200999999999786,1.053658718081649,0.7118171951218009
10.400999999999675,1.0714989996127282,0.7342808378270582
10.600999999999564,1.0837800591415063,0.7641502449031043
10.800999999999453,1.1022478122205546,0.7860368929982495
11.000999999999342,1.1152362006147682,0.798534833143942
11.200999999999231,1.126460031524767,0.8135939277059757
11.40099999999912,1.1363335767489222,0.8362470670830795
11.60099999999901,1.1500873399114273,0.859124246079057
11.800999999998899,1.168240826894968,0.8870573504669683
12.000999999998788,1.182633512492553,0.916000418457737
12.200999999998677,1.190025525709712,0.943104223399194
12.400999999998566,1.1954181892220719,0.9749872580538598
12.600999999998455,1.2038641623923965,1.0068144357132596
12.800999999998345,1.2091579778329913,1.033223768545668
13.000999999998234,1.215252473768472,1.0771650219386955
13.200999999998123,1.2246341724785694,1.1147294550379991
13.400999999998012,1.2351005421333938,1.1493520061300964
13.600999999997901,1.2424401750629914,1.1827170601338215
13.80099999999779,1.246257284902648,1.2185489926679347
14.00099999999768,1.24888267388256,1.242066963382595
14.200999999997569,1.2527699618439958,1.2708748085838828
14.400999999997458,1.257786067449517,1.302387983189795
14.600999999997347,1.2605110901711143,1.3356092194100253
14.800999999997236,1.2681698868033542,1.3693906303007501
15.000999999997125,1.2779872053164216,1.4014975954854016
15.200999999997014,1.2884272713316216,1.4281334359430133
15.400999999996904,1.2960561171038312,1.4553234646616566
15.600999999996793,1.3063088060073043,1.4874271748765509
15.800999999996682,1.3194306420379303,1.5133426935305438
16.000999999996573,1.3295623892902078,1.546634191023697
16.200999999996817,1.3331244888545462,1.5778762665282455
16.40099999999706,1.3331317040938209,1.6109866057290214
16.600999999997306,1.3320542365941634,1.6538852912716666
16.80099999999755,1.3375476346032027,1.6827246148688197
17.000999999997795,1.333434323057382,1.7186152268691857
17.20099999999804,1.3269210829722542,1.755216327065883
17.400999999998284,1.3197400879383474,1.7908376287017278
17.60099999999853,1.3102836242600333,1.8221100765618439
17.800999999998773,1.2967606905925082,1.8631953586050307
18.000999999999017,1.2889283700033507,1.8952561650109516
18.20099999999926,1.2825589448482086,1.9302220490631607
18.400999999999506,1.2759692243968186,1.9644289414077243
18.60099999999975,1.271291539459963,1.9997239628915566
18.799999999999994,1.2636888178566543,2.036426881105279
19.000000000000238,1.253849097274292,2.077285215430658
19.200000000000482,1.241760213711181,2.1103717988045934
19.400000000000727,1.2292358647880741,2.1454929692370333
19.60000000000097,1.2153578364273188,2.1817878467821217
19.800000000001216,1.196146969122698,2.219883504531063
20.00000000000146,1.1710247368460303,2.2634159996679424
