Time (s),X (m),Y (m)
0.001,0.0012161128565605834,-0.00026688599193002474
0.20000000000000015,-0.0003996322086727902,0.001521741127912031
0.4000000000000003,0.003919415635125111,-0.0009858998109285204
0.6000000000000004,0.011436171877399382,-0.008310266774480853
0.8000000000000006,0.02016474805325519,-0.007655246387141305
1.0000000000000007,0.02307045033427049,-0.00665885890696319
1.2009999999999785,0.03536217197532682,-0.00502231707904721
1.4009999999999565,0.039613289879233154,-0.004810650963573471
1.6009999999999345,0.047324904946678466,-0.010505082839476012
1.8009999999999124,0.05785295466530897,-0.016060025894640676
2.0009999999998906,0.060869422690188316,-0.01748128234413341
2.2009999999998686,0.0793484672638884,-0.017469438103662364
2.4009999999998466,0.09504884315303631,-0.018843091320364158
2.6009999999998246,0.11053093609215438,-0.020829139013758817
2.8009999999998025,0.12407183787126161,-0.024639363682759277
3.0009999999997805,0.13565089214291443,-0.02777890014504785
3.2009999999997585,0.144113923568213,-0.030230322836906954
3.4009999999997365,0.15237420019582842,-0.02911194416760523
3.6009999999997144,0.16613520473335236,-0.03047735550937349
3.8009999999996924,0.17982654524856884,-0.0376834743029482
4.000999999999671,0.19651908982571267,-0.0367298531609829
4.200999999999738,0.21294253846027453,-0.04210574922818089
4.400999999999804,0.2319015878759757,-0.052452215186503316
4.600999999999871,0.25029178390282264,-0.05610977752157347
4.800999999999938,0.26289189517570655,-0.05749229452127069
5.000000000000004,0.2785259280985198,-0.060544480490356704
5.200000000000071,0.2958195781856113,-0.06701990869596527
5.400000000000138,0.31598511922158207,-0.079198588755565
5.600000000000205,0.3321777973786142,-0.09174904899725533
5.800000000000272,0.34842117321153043,-0.10111890462066622
6.000000000000338,0.363517002703574,-0.10362681189968707
6.200000000000405,0.3786475359546822,-0.10893013444458632
6.400000000000472,0.40130022152872347,-0.12385438887612603
6.600000000000539,0.4254928351622807,-0.14007513192182006
6.800000000000606,0.4546676332136246,-0.15902979800066921
7.000000000000672,0.48093613722181433,-0.17062305513971307
7.200000000000739,0.5049394587724776,-0.18040727321493388
7.400000000000806,0.5263642199156541,-0.19997357134886873
7.600000000000873,0.5435042564375033,-0.21529384516437444
7.8000000000009395,0.5591392334921806,-0.22454119088925062
8.000000000001005,0.5761333118724254,-0.2433898673320871
8.200000000000895,0.5941357923478303,-0.2565648818774103
8.400000000000784,0.6118165130423201,-0.27346691007012147
8.600000000000673,0.6236739812746351,-0.29678872254514266
8.800000000000562,0.6347382377306011,-0.32737968893669606
9.000000000000451,0.6415761986723507,-0.3472012764885788
9.20000000000034,0.6474899695071421,-0.36584698790834846
9.40000000000023,0.6465473068400422,-0.39916699284595797
9.600000000000119,0.6411975783247484,-0.42330142762146855
9.800000000000008,0.6381441674557925,-0.44354748637907837
10.000999999999896,0.6341061612598456,-0.47218983447860635
10.200999999999786,0.6255867536043638,-0.4954103968788085
10.400999999999675,0.6159122008910324,-0.5130088699915454
10.600999999999564,0.6055822493443628,-0.5385878374068178
10.800999999999453,0.5959942363841637,-0.5715920929964448
11.000999999999342,0.5853069396951134,-0.597394615471378
11.200999999999231,0.5759731178192868,-0.6231997655638567
11.40099999999912,0.5648184694423224,-0.6490089374388799
11.60099999999901,0.5491313889339743,-0.6771185704637759
11.800999999998899,0.5322423917314799,-0.7080092370965976
12.000999999998788,0.5138176243107664,-0.7352775679308533
12.200999999998677,0.49671028126865774,-0.7595585496189723
12.400999999998566,0.48937666775842864,-0.7761939616515575
12.600999999998455,0.4840597039493915,-0.7946223817636445
12.800999999998345,0.4726151794598172,-0.819283891030466
13.000999999998234,0.45464860279734975,-0.8492826584177194
13.200999999998123,0.4428207876282879,-0.8703012156499338
13.400999999998012,0.42987433832348704,-0.8890264630220556
13.600999999997901,0.4152047645618421,-0.9119897023323578
13.80099999999779,0.3936176080302484,-0.9348394079004906
14.00099999999768,0.37579993547069857,-0.9550425568861486
14.200999999997569,0.3420897218979817,-0.9730657240985754
14.400999999997458,0.3171655279887267,-0.9857903293973226
14.600999999997347,0.2910395494094548,-0.9905865026563031
14.800999999997236,0.2678515524199489,-0.9929133911053177
15.000999999997125,0.2487468147373609,-0.9906272153498044
15.200999999997014,0.21728431025819622,-0.9842123769596662
15.400999999996904,0.19307425204235223,-0.9797203822533116
15.600999999996793,0.16791728898783434,-0.974352676691764
15.800999999996682,0.1327202309981726,-0.9649887797648602
16.000999999996573,0.103263979705673,-0.9543926629918833
16.200999999996817,0.07927777268821629,-0.9496525656028065
16.40099999999706,0.04709930653868919,-0.9344473593789757
16.600999999997306,0.011289170990996869,-0.9208498447726607
16.80099999999755,-0.013431263688375904,-0.9078120091491853
17.000999999997795,-0.0383792073474927,-0.8916645422615909
17.20099999999804,-0.06121370011700743,-0.8834965282041405
17.400999999998284,-0.08604023292464404,-0.8771741519308766
17.60099999999853,-0.11239058549154636,-0.8663754091420302
17.800999999998773,-0.13724153554732327,-0.852091127647661
18.000999999999017,-0.1674071888870079,-0.8384795481918923
18.20099999999926,-0.1947799017476333,-0.8306074614385176
18.400999999999506,-0.22341311891977622,-0.817004654745728
18.60099999999975,-0.253972519998909,-0.7988265574963449
18.799999999999994,-0.2787001225083292,-0.7832538951314433
19.000000000000238,-0.2986670035966952,-0.76765768646896
19.200000000000482,-0.31729838510185837,-0.7440426985020582
19.400000000000727,-0.33676638613174675,-0.72187274379217
19.60000000000097,-0.3558998543299738,-0.703414719140499
19.800000000001216,-0.3676066634112207,-0.6793261715950949
20.00000000000146,-0.3695477692670918,-0.652527524902641
