Time (s),X (m),Y (m)
0.001,-0.0005698399629515257,-0.0006628221997479689
0.20000000000000015,0.005993891249012548,0.004750026346538472
0.4000000000000003,0.018827354910487204,0.006789162061248641
0.6000000000000004,0.04249359401083291,0.008365356769529384
0.8000000000000006,0.06229223089829202,0.005349872560922029
1.0000000000000007,0.07806306793609548,-0.0011116955309325742
1.2009999999999785,0.09029665505335083,-0.015962721209857825
1.4009999999999565,0.09377230193208538,-0.0318132466869926
1.6009999999999345,0.11144947803949011,-0.059660006337003864
1.8009999999999124,0.13446088299951103,-0.0955502222264908
2.0009999999998906,0.16407658410335751,-0.13339520987855186
2.2009999999998686,0.1948589661517564,-0.1720541701416464
2.4009999999998466,0.23608553699856014,-0.21066842154013055
2.6009999999998246,0.2747389873154407,-0.24466373704372119
2.8009999999998025,0.3099515710023638,-0.2855001588270125
3.0009999999997805,0.34018473010685985,-0.33170582625687817
3.2009999999997585,0.36943030209097405,-0.3801380827606168
3.4009999999997365,0.38157436024559976,-0.4278700562398191
3.6009999999997144,0.3812785298914419,-0.473070826000571
3.8009999999996924,0.3706766580994368,-0.5152613981181644
4.000999999999671,0.3486612155603438,-0.5612514433789645
4.200999999999738,0.3092033442548981,-0.6132027180396721
4.400999999999804,0.2546761115910781,-0.6613280567987316
4.600999999999871,0.1956491480084722,-0.7049106903845755
4.800999999999938,0.12350154510272772,-0.7438858924081628
5.000000000000004,0.07317504984375633,-0.7700476751870369
5.200000000000071,0.03828016638319015,-0.7708664259629143
5.400000000000138,0.0026140488446034548,-0.7491271353219402
5.600000000000205,-0.023895806314110417,-0.7154333606497284
5.800000000000272,-0.024603018134145012,-0.6792710287301179
6.000000000000338,-0.010960587154880136,-0.6357311192943043
6.200000000000405,-0.0017356892199756173,-0.5954834776065931
6.400000000000472,0.0019515215354651274,-0.5320583213594186
6.600000000000539,0.011935602618059123,-0.48192011933465534
6.800000000000606,0.03587974595455596,-0.4369341915817662
7.000000000000672,0.07335200801885629,-0.3840777130356113
7.200000000000739,0.1237641848830172,-0.3371747194768209
7.400000000000806,0.17992693303299145,-0.2951676772967046
7.600000000000873,0.24437830366516683,-0.24184847850147165
7.8000000000009395,0.314181612778041,-0.18059928488153965
8.000000000001005,0.3887654198570512,-0.10321059845407149
8.200000000000895,0.45816855808464024,-0.02972860852348747
8.400000000000784,0.5237190385588261,0.0339449196911621
8.600000000000673,0.5980067296660415,0.09407503814146193
8.800000000000562,0.6668319093741985,0.13704762841508963
9.000000000000451,0.7308271074156552,0.1847682206878782
9.20000000000034,0.7919238529373945,0.2512054903915471
9.40000000000023,0.8538641890535159,0.3093775521339893
9.600000000000119,0.914942477326808,0.3758645040541946
9.800000000000008,0.9786673295456579,0.432613474982884
10.000999999999896,1.0517100582340038,0.4944620613284661
10.200999999999786,1.1348365951350647,0.5540859072342195
10.400999999999675,1.2312414632624091,0.6111235035228457
10.600999999999564,1.334006184319643,0.6695279320576529
10.800999999999453,1.4280334814537126,0.7239710730449359
11.000999999999342,1.5225550658565299,0.7700081039045823
11.200999999999231,1.6116412381458813,0.7900525993408947
11.40099999999912,1.6787383125300153,0.7800666892148113
11.60099999999901,1.73887759452417,0.7401836106902954
11.800999999998899,1.8100638866063077,0.6775116486156652
12.000999999998788,1.8744775551634338,0.6084433530882131
12.200999999998677,1.9319465337651205,0.5314337778256876
12.400999999998566,1.984566106463682,0.4554078044070692
12.600999999998455,2.0252586097421523,0.3946163896058959
12.800999999998345,2.0384626540988267,0.32232538931310617
13.000999999998234,2.0358934814295346,0.24239932325747604
13.200999999998123,2.0208096121616457,0.1853119595252145
13.400999999998012,2.0029930783455128,0.11383371324711265
13.600999999997901,1.9968605150826602,0.037852883411214774
13.80099999999779,1.9941303541193014,-0.021793502845520615
14.00099999999768,1.9740331015717976,-0.06484513482190479
14.200999999997569,1.930006378568867,-0.11622725034829533
14.400999999997458,1.871821267012573,-0.165021451331127
14.600999999997347,1.807137597888517,-0.20918722248194074
14.800999999997236,1.7360893230655727,-0.24428391681536737
15.000999999997125,1.675476128722101,-0.24902546555471575
15.200999999997014,1.6061908791410084,-0.22532563548587
15.400999999996904,1.5508366480935232,-0.18787778426328935
15.600999999996793,1.4994646757934413,-0.13833486585919216
15.800999999996682,1.4400589203376992,-0.08977709729108309
16.000999999996573,1.3719722231592317,-0.04269218015584632
16.200999999996817,1.3011722763562728,0.01760465975912825
16.40099999999706,1.228318480243617,0.10016743033481709
16.600999999997306,1.1639532633917584,0.18161441294745487
16.80099999999755,1.1120780290379055,0.25761535628045334
17.000999999997795,1.0690475778131112,0.3495879445530184
17.20099999999804,1.0301476328231363,0.4387840747316303
17.400999999998284,0.9914955512475248,0.5326691987832136
17.60099999999853,0.9587444316824467,0.6253762800284122
17.800999999998773,0.9366490136021581,0.7166543202069985
18.000999999999017,0.9359145118998174,0.8061152713491022
18.20099999999926,0.9588841896189055,0.8661966194169886
18.400999999999506,1.004480327143176,0.9294936791769217
18.60099999999975,1.066423433273531,0.9844339460557701
18.799999999999994,1.1511714565330502,1.0409135581679745
19.000000000000238,1.2375232995996786,1.099092273745191
19.200000000000482,1.3092402477163991,1.1415913019906967
19.400000000000727,1.3769176847466322,1.1442045526797522
19.60000000000097,1.4312156116212118,1.1192170535726629
19.800000000001216,1.482428693055249,1.068749614255028
20.00000000000146,1.5195480784305126,1.0125331344522663
