Time (s),X (m),Y (m)
0.001,4.1020280575708355e-05,0.0010155025257856582
0.20000000000000015,0.0011516593149147884,-0.00013777426572003315
0.4000000000000003,0.006406594596008416,0.0019500855204766707
0.6000000000000004,0.020081527560462636,-0.011611129763595854
0.8000000000000006,0.04359155523357165,-0.028504970904339302
1.0000000000000007,0.0744142926645625,-0.026312415033520362
1.2009999999999785,0.1108269601500294,-0.027631219296369774
1.4009999999999565,0.14243185507159736,-0.04873615715725444
1.6009999999999345,0.19274788453366237,-0.05557786073935137
1.8009999999999124,0.2419609266962717,-0.07020327998869912
2.0009999999998906,0.28918698295964396,-0.08954653170352458
2.2009999999998686,0.328272364054499,-0.11483981753289563
2.4009999999998466,0.3539006267964405,-0.14055319332544758
2.6009999999998246,0.3624706590085599,-0.16829280851854975
2.8009999999998025,0.37510997720963474,-0.1955528084576393
3.0009999999997805,0.35547488905247354,-0.22620174628178474
3.2009999999997585,0.33655976254809744,-0.26692680054235984
3.4009999999997365,0.30643430470491534,-0.30459714846173724
3.6009999999997144,0.270413541318459,-0.34794660405503264
3.8009999999996924,0.25138268725814805,-0.39696806971201226
4.000999999999671,0.2304549575015753,-0.44618230360286093
4.200999999999738,0.19877391979883807,-0.48920358662086816
4.400999999999804,0.1649805031407264,-0.5362942910166462
4.600999999999871,0.12282574117927195,-0.5782833582122612
4.800999999999938,0.083743583017212,-0.6171005806237675
5.000000000000004,0.04350156306640182,-0.6490557592518372
5.200000000000071,0.006445031312522748,-0.6704093526963212
5.400000000000138,-0.04013284079835822,-0.6690900275564398
5.600000000000205,-0.09417909730013563,-0.6728077871701746
5.800000000000272,-0.15221912775877713,-0.6766111773338289
6.000000000000338,-0.21337916211197586,-0.6692908442358037
6.200000000000405,-0.2598460314342832,-0.6562073428264154
6.400000000000472,-0.29540130738162945,-0.6271564696944922
6.600000000000539,-0.32901301003981526,-0.5955121225169941
6.800000000000606,-0.35897395765555934,-0.5623357722478702
7.000000000000672,-0.3768122235721542,-0.5166560204908079
7.200000000000739,-0.40204528521255994,-0.4640491971401588
7.400000000000806,-0.4159013704055101,-0.4102426221923276
7.600000000000873,-0.40224489490602766,-0.35831938454131085
7.8000000000009395,-0.3843636567177585,-0.3048033099002134
8.000000000001005,-0.3643266903133543,-0.2518071835701326
8.200000000000895,-0.33563578975181113,-0.20661430116905433
8.400000000000784,-0.30190692828793203,-0.16711826864728696
8.600000000000673,-0.2698439018246501,-0.12868708772844858
8.800000000000562,-0.2255211612588314,-0.09817229311314782
9.000000000000451,-0.17716620986344708,-0.07457561404414956
9.20000000000034,-0.12993447354301668,-0.061296522041575575
9.40000000000023,-0.07390557397159013,-0.053059421267666655
9.600000000000119,-0.008231709439531283,-0.0573683666238702
9.800000000000008,0.04672868031924011,-0.08415729788787679
10.000999999999896,0.09097690203676832,-0.12432982153575971
10.200999999999786,0.11833554209637145,-0.17185290439972017
10.400999999999675,0.1639210773907865,-0.21377083428609464
10.600999999999564,0.2036985218782292,-0.25433896746574386
10.800999999999453,0.21895318234624275,-0.2981232253832927
11.000999999999342,0.22928884129720592,-0.34584531765647286
11.200999999999231,0.22246720008215204,-0.3939184636274548
11.40099999999912,0.1981893248524876,-0.4418034549446666
11.60099999999901,0.16259677482671303,-0.47521617235064056
11.800999999998899,0.12143592764768177,-0.48724361675644523
12.000999999998788,0.07529297561543191,-0.4812668205045224
12.200999999998677,0.023567701403100046,-0.47226568948883163
12.400999999998566,-0.025732777406195704,-0.4495043159669631
12.600999999998455,-0.05978868531567785,-0.4090565704527081
12.800999999998345,-0.08282548383793802,-0.3598535995629772
13.000999999998234,-0.1044354824046276,-0.3164463183821993
13.200999999998123,-0.11483970560521237,-0.2734442212693135
13.400999999998012,-0.11307275631926587,-0.2283636892628639
13.600999999997901,-0.09994173852556414,-0.19044780780696044
13.80099999999779,-0.0788698828623922,-0.14556974799957348
14.00099999999768,-0.04967914044483172,-0.0998364613612661
14.200999999997569,-0.026050926731967253,-0.048025677079297883
14.400999999997458,-0.0026044957088356075,0.010463991140523621
14.600999999997347,0.01716771803362115,0.06689047762950262
14.800999999997236,0.03541288733185735,0.11408491709725534
15.000999999997125,0.052571809907121826,0.15549330494491534
15.200999999997014,0.09026806496314002,0.19600643709056795
15.400999999996904,0.13159853000742447,0.23699938580545668
15.600999999996793,0.16380747754861139,0.2742152146844889
15.800999999996682,0.18679747556061585,0.3215544549936033
16.000999999996573,0.21507455088748917,0.3646776076043628
16.200999999996817,0.24919855214024605,0.40529715900070046
16.40099999999706,0.28267351253281237,0.4512750944225399
16.600999999997306,0.32119374997812933,0.4967340146289056
16.80099999999755,0.3619760342467148,0.5320659407880906
17.000999999997795,0.4083919772202567,0.5551800753125107
17.20099999999804,0.4618262176288352,0.560871364129153
17.400999999998284,0.5231826304570996,0.5482569330358166
17.60099999999853,0.5910067461945109,0.5351609541237549
17.800999999998773,0.6504594404297325,0.543030772454792
18.000999999999017,0.7068024704202567,0.5375248007531812
18.20099999999926,0.7518646911393618,0.5215440787155853
18.400999999999506,0.8029525664000663,0.4974064131301389
18.60099999999975,0.8711122446293472,0.471835843916873
18.799999999999994,0.9386954027405683,0.4494778356278312
19.000000000000238,1.000839352447432,0.42662069654765894
19.200000000000482,1.041710811302946,0.3910699753083452
19.400000000000727,1.0771136797658118,0.3574803069500719
19.60000000000097,1.1060087997777863,0.3104335547605672
19.800000000001216,1.128411369511863,0.2555376809918203
20.00000000000146,1.1636075178254581,0.2055876699510137
