Time (s),X (m),Y (m)
0.001,-0.0007489004572251305,-0.00035268032603768894
0.20000000000000015,0.005363926349940261,0.0008698745425456021
0.4000000000000003,0.004636815657308804,0.00010879020358523418
0.6000000000000004,0.008463058466614883,0.0010065706509157551
0.8000000000000006,0.006861282524073584,0.0016493915171490422
1.0000000000000007,0.004694930557444782,0.0030605552057616277
1.2009999999999785,0.006472494657706215,0.010862001404874975
1.4009999999999565,0.016532059906062168,0.011409813204698024
1.6009999999999345,0.030796288391274303,0.013721560234083465
1.8009999999999124,0.04707054853681665,0.015317762361138904
2.0009999999998906,0.05764550698989346,0.012368671959528328
2.2009999999998686,0.07665809779261751,0.015506853159944588
2.4009999999998466,0.09520842996561046,0.015825799468570576
2.6009999999998246,0.11403742837464147,0.013880142804750764
2.8009999999998025,0.12771501030427915,0.0085484987800347
3.0009999999997805,0.14532808819788903,0.009719760376732847
3.2009999999997585,0.15897726855198674,0.005682302681360873
3.4009999999997365,0.16652148623965274,-0.004543672082889834
3.6009999999997144,0.18295298663651677,-0.009398607738064713
3.8009999999996924,0.20935902249463045,-0.013457706570473734
4.000999999999671,0.22826676255516154,-0.018151841454029642
4.200999999999738,0.2401159270865424,-0.023087178560325175
4.400999999999804,0.2556189474356321,-0.020381483811491578
4.600999999999871,0.26312451724529373,-0.0274979646562809
4.800999999999938,0.27458551188107466,-0.02315328620135231
5.000000000000004,0.29931439067282944,-0.023950822660000804
5.200000000000071,0.3167374652040875,-0.02816650019791718
5.400000000000138,0.3389470372947586,-0.03381155401205656
5.600000000000205,0.3661954198313516,-0.03908121811944414
5.800000000000272,0.38106745356266736,-0.04726721726947565
6.000000000000338,0.40165550291244845,-0.053622563480577395
6.200000000000405,0.42674394836356444,-0.05998570434498273
6.400000000000472,0.452686347386144,-0.06425207564130127
6.600000000000539,0.47982184998824884,-0.07205496162726326
6.800000000000606,0.502052744745946,-0.07985483321653841
7.000000000000672,0.5237063643892738,-0.08444441691555714
7.200000000000739,0.550731477860664,-0.0873366975026741
7.400000000000806,0.5820037597361156,-0.09190469948790694
7.600000000000873,0.589594103679477,-0.09761288525613043
7.8000000000009395,0.6103481846216467,-0.10360678571508708
8.000000000001005,0.6336487648005138,-0.11293854199171856
8.200000000000895,0.6534044656836999,-0.12318589096163564
8.400000000000784,0.6798552713761883,-0.13170394458651552
8.600000000000673,0.7033999418466312,-0.14174315481763652
8.800000000000562,0.7197606850905088,-0.15275180106516678
9.000000000000451,0.7382017518532586,-0.16089388854360104
9.20000000000034,0.7605676132999105,-0.17145206450238706
9.40000000000023,0.7758824557423657,-0.18760057393182455
9.600000000000119,0.7903963511277396,-0.20502130352383027
9.800000000000008,0.8076079102532208,-0.21792610675865587
10.000999999999896,0.8229932311836026,-0.22735164904610933
10.200999999999786,0.844219733244098,-0.2356741944493372
10.400999999999675,0.861006870028259,-0.24585988441116913
10.600999999999564,0.8841278958804212,-0.26120606707568783
10.800999999999453,0.9086990218052621,-0.27023744021582513
11.000999999999342,0.9290439404231996,-0.2777546502725018
11.200999999999231,0.9410167423633685,-0.28719098877882815
11.40099999999912,0.952946101886475,-0.29265485162769994
11.60099999999901,0.9792515853343469,-0.2936471923139406
11.800999999998899,0.9981468601378225,-0.30227475659765085
12.000999999998788,1.0149164379970002,-0.31086948419201604
12.200999999998677,1.0291069089550071,-0.31711050624290404
12.400999999998566,1.0545916917173535,-0.32285077184276917
12.600999999998455,1.0790472247840404,-0.32927647201837723
12.800999999998345,1.0962060110402774,-0.3392082969258181
13.000999999998234,1.1240249607037245,-0.3506644069695052
13.200999999998123,1.1445805219930751,-0.3651433032358008
13.400999999998012,1.1679400724060534,-0.3811798545269435
13.600999999997901,1.1835234362051352,-0.3987858134047991
13.80099999999779,1.2120892443652647,-0.40851404288896126
14.00099999999768,1.2294910578385327,-0.42364179505336735
14.200999999997569,1.23890568593321,-0.4427590955255325
14.400999999997458,1.251800791414299,-0.4548448031175909
14.600999999997347,1.2710515129037796,-0.4614704887660485
14.800999999997236,1.301011803021195,-0.4663988894317888
15.000999999997125,1.3254176184576671,-0.47617672440328046
15.200999999997014,1.3465424784561877,-0.486648146805418
15.400999999996904,1.3764086864788103,-0.496112425468072
15.600999999996793,1.4001602976894578,-0.49406053842083675
15.800999999996682,1.41933256973545,-0.4957352763833898
16.000999999996573,1.440508723857441,-0.49377769498871293
16.200999999996817,1.4577857674218517,-0.4986937390784037
16.40099999999706,1.4757619426208346,-0.5124879815735658
16.600999999997306,1.4968140465521633,-0.5257064322760915
16.80099999999755,1.5235971347710215,-0.5336488027533839
17.000999999997795,1.5481282640373135,-0.5396916609527573
17.20099999999804,1.574996199318823,-0.5514111687859756
17.400999999998284,1.6007602602135667,-0.5653518544771078
17.60099999999853,1.6168949274299667,-0.5793397443962471
17.800999999998773,1.6360078029223961,-0.600586640682113
18.000999999999017,1.6628035982298428,-0.6147190877948712
18.20099999999926,1.6864018138350516,-0.6256628093922061
18.400999999999506,1.7137272926371951,-0.636208397785609
18.60099999999975,1.7394697230703962,-0.6449630838201608
18.799999999999994,1.7610891760993126,-0.6510297600927729
19.000000000000238,1.7779544889187011,-0.6546074518543336
19.200000000000482,1.8025017174321443,-0.664495423785192
19.400000000000727,1.8237643480946608,-0.6756726929049197
19.60000000000097,1.8469987942695776,-0.6863019075717529
19.800000000001216,1.871888944358098,-0.700365363883394
20.00000000000146,1.909516801820045,-0.715713301227507
