Time (s),X (m),Y (m)
0.001,-0.0007489004572251305,0.00035268032603768894
0.20000000000000015,0.004077964700901202,-0.0013879886185635543
0.4000000000000003,0.0029312838719303155,-0.0013125191286304954
0.6000000000000004,0.00836908553971954,-0.001871519097454945
0.8000000000000006,0.008293359144034129,0.003096182533749539
1.0000000000000007,0.021302284209922737,0.002763029490608875
1.2009999999999785,0.043031312365852545,0.0013189690253316475
1.4009999999999565,0.05912740512527232,-0.002508742803575889
1.6009999999999345,0.06942775103095923,-0.005564385463358831
1.8009999999999124,0.07788277942301937,-0.011249662745506343
2.0009999999998906,0.09656371282845488,-0.011823911841766939
2.2009999999998686,0.1025265592666195,-0.013720130755834841
2.4009999999998466,0.11743892732311968,-0.014659628246041653
2.6009999999998246,0.12537960138516538,-0.023056065461972627
2.8009999999998025,0.14378851409179957,-0.0291329825967866
3.0009999999997805,0.15914154635161204,-0.034576466810154104
3.2009999999997585,0.17869688077314252,-0.03373373379877417
3.4009999999997365,0.20727167241558409,-0.034147462577468785
3.6009999999997144,0.23092897828991257,-0.03803033166486043
3.8009999999996924,0.2563952549240506,-0.044108740239381876
4.000999999999671,0.2819160204572901,-0.052445094326233295
4.200999999999738,0.2969091755546784,-0.054821910008242915
4.400999999999804,0.31345981403127565,-0.059713521654662524
4.600999999999871,0.33710260487317484,-0.06851603888977757
4.800999999999938,0.3605138564252906,-0.07889519115630514
5.000000000000004,0.3784580651992202,-0.08092502971771234
5.200000000000071,0.39815692022370747,-0.0890632666877171
5.400000000000138,0.41978931339659176,-0.09852756063505519
5.600000000000205,0.43890610025321863,-0.10982740992406027
5.800000000000272,0.45970575006113823,-0.12732961878165616
6.000000000000338,0.48130730037755115,-0.14066945780600798
6.200000000000405,0.4974797687264541,-0.1486687012584822
6.400000000000472,0.5170122081888104,-0.1581149714865914
6.600000000000539,0.531812823863976,-0.1637128659680661
6.800000000000606,0.5510043321518667,-0.1668599117357966
7.000000000000672,0.5685076622656023,-0.17757265081931226
7.200000000000739,0.5870873995512389,-0.18481880518830263
7.400000000000806,0.6024542990386282,-0.18312442169550003
7.600000000000873,0.6161361342090735,-0.18925737226119316
7.8000000000009395,0.6382155058883903,-0.21140660276690965
8.000000000001005,0.6630086057995096,-0.22227497485696085
8.200000000000895,0.680940305680103,-0.2308361848332072
8.400000000000784,0.6957090918239692,-0.24669732495459867
8.600000000000673,0.7047500035576832,-0.26743467493181866
8.800000000000562,0.7107853552750948,-0.2832916470100126
9.000000000000451,0.7088643786638633,-0.30810521790695955
9.20000000000034,0.706659249829013,-0.34289112410708905
9.40000000000023,0.7007952410360452,-0.373212689636749
9.600000000000119,0.6966001572123094,-0.3974728554746864
9.800000000000008,0.6835070415728933,-0.4263998445542455
10.000999999999896,0.6708644538584996,-0.45296423064080393
10.200999999999786,0.6671227636946166,-0.4773843110582173
10.400999999999675,0.65231649905526,-0.5088025075340616
10.600999999999564,0.6381226383164098,-0.5396102094449218
10.800999999999453,0.6202096131773214,-0.5699250362659364
11.000999999999342,0.6044457792685972,-0.5993457547739393
11.200999999999231,0.593651448748646,-0.6275215698893749
11.40099999999912,0.5840751045659166,-0.6546511296609665
11.60099999999901,0.5657906457946238,-0.6796092554764248
11.800999999998899,0.5454718729315093,-0.7110469507777973
12.000999999998788,0.5239190112707908,-0.7406817914022932
12.200999999998677,0.5149845992603926,-0.7674237894545901
12.400999999998566,0.5020403277156044,-0.7857187632685606
12.600999999998455,0.48711972753062943,-0.7990687292046823
12.800999999998345,0.4657380315977362,-0.81985792035124
13.000999999998234,0.44714015573459964,-0.8369373909610918
13.200999999998123,0.4299259464614268,-0.8554176887819785
13.400999999998012,0.40838167578559864,-0.8683410643665892
13.600999999997901,0.3834403709911853,-0.8814817235044117
13.80099999999779,0.361602317390484,-0.8878465073738814
14.00099999999768,0.32972920527005584,-0.8917432447194498
14.200999999997569,0.3027199739398619,-0.889300987611161
14.400999999997458,0.2759372080464842,-0.8858300109920164
14.600999999997347,0.24651889921717066,-0.8811547445750609
14.800999999997236,0.21224494278815592,-0.8691236018662991
15.000999999997125,0.1777662060756365,-0.8562122169129721
15.200999999997014,0.14783346456674623,-0.8495189801930698
15.400999999996904,0.12243157406816876,-0.8428372688922479
15.600999999996793,0.10016525238692608,-0.8389244285080852
15.800999999996682,0.07903969080933408,-0.8353744690649788
16.000999999996573,0.06420536809427013,-0.83241624979722
16.200999999996817,0.0512302765568862,-0.8352838413325617
16.40099999999706,0.024611244651992867,-0.8303582325229811
16.600999999997306,0.0007741237082659148,-0.8211431161162436
16.80099999999755,-0.021313896971554495,-0.8088862845808085
17.000999999997795,-0.044843441130735184,-0.7969893421519169
17.20099999999804,-0.07527924026228405,-0.7853407159490102
17.400999999998284,-0.11373312119922367,-0.7664917330112078
17.60099999999853,-0.14641237261815332,-0.7522874954758906
17.800999999998773,-0.1764158169609816,-0.7428525498618981
18.000999999999017,-0.20801718413724116,-0.7254265247542518
18.20099999999926,-0.24042622892667806,-0.7068187797014522
18.400999999999506,-0.2655572372916933,-0.6938451974569076
18.60099999999975,-0.2935956886206694,-0.6799206061671161
18.799999999999994,-0.3216403214478893,-0.666037889255636
19.000000000000238,-0.34883322544133294,-0.6387820039733907
19.200000000000482,-0.3721438485571379,-0.6080897800596257
19.400000000000727,-0.3825838060102019,-0.587075973403019
19.60000000000097,-0.3876916075231407,-0.5632382098008167
19.800000000001216,-0.39137811237861486,-0.5366347038778218
20.00000000000146,-0.38434877586684973,-0.4961597461228077
