Time (s),X (m),Y (m)
0.001,-0.0002955033697106609,-0.00089301793395481
0.20000000000000015,0.0034839205315759943,0.003906405117443601
0.4000000000000003,0.006422798660339616,0.007162908098714421
0.6000000000000004,0.0109278546192007,0.008646207489149097
0.8000000000000006,0.015228322951756603,0.00926644127226985
1.0000000000000007,0.01899772438772714,0.010404568287691993
1.2009999999999785,0.022719055342197862,0.01120277627411293
1.4009999999999565,0.02606657995251062,0.01282865083371201
1.6009999999999345,0.030496173857967143,0.014884193903040766
1.8009999999999124,0.0325011705514891,0.014926384328764628
2.0009999999998906,0.03763215584906134,0.017929145652778873
2.2009999999998686,0.04127660431350075,0.021822395597101845
2.4009999999998466,0.04449650911724542,0.02290948408173331
2.6009999999998246,0.04750860165165151,0.02553238203110916
2.8009999999998025,0.049756969161106106,0.027848251796885944
3.0009999999997805,0.05282348399185979,0.03216214748384079
3.2009999999997585,0.055921906868002205,0.035001692333424435
3.4009999999997365,0.057976177517374806,0.03639973087655085
3.6009999999997144,0.060683078530232235,0.03962135041487052
3.8009999999996924,0.06215773346827957,0.0435769393764013
4.000999999999671,0.06517212066056129,0.04557115602709352
4.200999999999738,0.06539024350326265,0.05242025225185288
4.400999999999804,0.06430554032415864,0.059013505963430385
4.600999999999871,0.06506953199305715,0.06017680431599674
4.800999999999938,0.0665522039285781,0.062397508424697164
5.000000000000004,0.06634870087395084,0.06636583921134626
5.200000000000071,0.0678659167526714,0.06592564840917477
5.400000000000138,0.0696870280402142,0.06612411458879003
5.600000000000205,0.0714237806871809,0.06680628124828866
5.800000000000272,0.07315946996525798,0.06728037579052841
6.000000000000338,0.07513755231188511,0.06766333638958735
6.200000000000405,0.07504593095706136,0.07191032432226943
6.400000000000472,0.07100838488769891,0.07857115713520574
6.600000000000539,0.07156604321004333,0.07940972315940573
6.800000000000606,0.0682770374277929,0.08556951066720418
7.000000000000672,0.06679696405532025,0.08834111747476166
7.200000000000739,0.06396423988938935,0.09358660599304802
7.400000000000806,0.06253658801352635,0.09537741701138525
7.600000000000873,0.05926001384193751,0.10013845392786275
7.8000000000009395,0.0591284893258869,0.10219496180385981
8.000000000001005,0.05601975701516222,0.10571223536284186
8.200000000000895,0.054640477865673644,0.10938326836608242
8.400000000000784,0.05241356525356776,0.11205367825308737
8.600000000000673,0.04837830143779312,0.11559658995840734
8.800000000000562,0.04714606813206194,0.11817727511635795
9.000000000000451,0.0409404808480938,0.12043105889224177
9.20000000000034,0.04200040246640185,0.12323715324693928
9.40000000000023,0.03612393604826627,0.12509317620165797
9.600000000000119,0.03783544108875894,0.1275954283261202
9.800000000000008,0.03161904149516399,0.12949867949025026
10.000999999999896,0.0313357448568017,0.13102899126885195
10.200999999999786,0.03341603199554386,0.1332657992591107
10.400999999999675,0.03480584441320733,0.13556682772451223
10.600999999999564,0.034397492010528684,0.13715300189630947
10.800999999999453,0.02675632063390403,0.13671879582343832
11.000999999999342,0.023086277465398156,0.13567903780684423
11.200999999999231,0.020902645275044724,0.13724194581322066
11.40099999999912,0.012488689415854909,0.13487509992651284
11.60099999999901,0.011370213936544794,0.13521321331550404
11.800999999998899,0.010208071789930679,0.13644608807325323
12.000999999998788,0.00820436608179492,0.13746967492050366
12.200999999998677,0.0019275556699587673,0.13530517280843843
12.400999999998566,0.0010124453561177094,0.13610034134940224
12.600999999998455,-0.004172662910163933,0.1331050606628023
12.800999999998345,-0.006676378396343735,0.1327017451329797
13.000999999998234,-0.011205986702025805,0.12905381577618127
13.200999999998123,-0.013400683584086703,0.1295711520732801
13.400999999998012,-0.016989001867540394,0.12713698521407374
13.600999999997901,-0.020170423450929766,0.1261850624364889
13.80099999999779,-0.02164847401101473,0.12554752147889653
14.00099999999768,-0.025624856323322533,0.1223033660302644
14.200999999997569,-0.02808519741989885,0.12110513748045848
14.400999999997458,-0.03137650797736909,0.11546867869682198
14.600999999997347,-0.033947832898934736,0.11466146615677154
14.800999999997236,-0.03561499842905447,0.10802715735796085
15.000999999997125,-0.037606405053253925,0.1085938079438495
15.200999999997014,-0.040798423212122015,0.1088416099975497
15.400999999996904,-0.042589592566039065,0.10334404978113892
15.600999999996793,-0.0424467397608398,0.09744244420472126
15.800999999996682,-0.04218498039653602,0.09570178908842268
16.000999999996573,-0.043803167648569,0.09713989706186887
16.200999999996817,-0.04483036020285796,0.09268576606283123
16.40099999999706,-0.0437327284127341,0.08583916181365274
16.600999999997306,-0.04253377528984452,0.08050129391507743
16.80099999999755,-0.040359804803380035,0.07735361120830703
17.000999999997795,-0.04133085639813391,0.07660032538098546
17.20099999999804,-0.03878948241015307,0.06956444601589051
17.400999999998284,-0.038808202962484925,0.0669517135620221
17.60099999999853,-0.035498332524251754,0.0616863732732451
17.800999999998773,-0.036714729710638196,0.05963164208838979
18.000999999999017,-0.03464749987219684,0.05492459405936818
18.20099999999926,-0.033726572104268854,0.05017937707831941
18.400999999999506,-0.034371870425573645,0.04855281378837461
18.60099999999975,-0.030979955435929254,0.0434421091337531
18.799999999999994,-0.031540283430450525,0.042044778258999785
19.000000000000238,-0.027636703884323446,0.038242165107126275
19.200000000000482,-0.02457444363087019,0.033977849616719895
19.400000000000727,-0.02313058365533436,0.030934446034748674
19.60000000000097,-0.01862278416175306,0.02757597975887598
19.800000000001216,-0.019035749793501172,0.025108964249567312
20.00000000000146,-0.014682700711654628,0.022733496366624337
