Time (s),X (m),Y (m)
0.001,0.0002200807748493132,-0.0010311682891199468
0.20000000000000015,0.0020611206785391373,0.003971824364062577
0.4000000000000003,0.008517929487403807,0.006162968013629747
0.6000000000000004,0.018585472016897687,0.0023375421381974172
0.8000000000000006,0.03186348819547665,0.0012150117676993338
1.0000000000000007,0.04621819606341112,0.0019957666877580995
1.2009999999999785,0.057094396055340765,-0.013529651527576491
1.4009999999999565,0.07387006190575368,-0.02454579923580261
1.6009999999999345,0.09168795322438035,-0.03162023127371883
1.8009999999999124,0.10741666359323598,-0.05871709674200716
2.0009999999998906,0.1264786942553332,-0.08215115263312837
2.2009999999998686,0.14852115971023844,-0.09365782660558943
2.4009999999998466,0.16619559993532912,-0.09952308265581392
2.6009999999998246,0.18309046948805688,-0.10901279488738862
2.8009999999998025,0.19773910690943508,-0.12480562884950275
3.0009999999997805,0.2234414617458839,-0.14911413566684315
3.2009999999997585,0.2505742175949976,-0.16839653938052043
3.4009999999997365,0.2787977267747811,-0.1779117154519425
3.6009999999997144,0.30680797736619025,-0.17949538247274097
3.8009999999996924,0.3349887534542585,-0.18818020222273096
4.000999999999671,0.36505838086259373,-0.19799651445952823
4.200999999999738,0.3946919341481629,-0.20649201152003568
4.400999999999804,0.42088384425430103,-0.2250699321053239
4.600999999999871,0.4500088578822042,-0.22222824930903626
4.800999999999938,0.4829409850039691,-0.22193599251781693
5.000000000000004,0.5200214525890191,-0.21875897433597385
5.200000000000071,0.5576191026497492,-0.2178906198425224
5.400000000000138,0.5880734162006435,-0.21643403683174525
5.600000000000205,0.6183519751326175,-0.22906457562503507
5.800000000000272,0.6485898406245239,-0.23566509738977318
6.000000000000338,0.6825826147291636,-0.23183822358808653
6.200000000000405,0.7191013733524576,-0.24038502938211306
6.400000000000472,0.7534975326091966,-0.24926385367289686
6.600000000000539,0.7766599826445547,-0.2610352124629235
6.800000000000606,0.8018454060255903,-0.2686215977702451
7.000000000000672,0.8218511703462369,-0.29304730233629317
7.200000000000739,0.8433199202406415,-0.3122292930037076
7.400000000000806,0.8696285309895339,-0.327371273828615
7.600000000000873,0.9039547188465449,-0.3373541871748871
7.8000000000009395,0.9317344504870402,-0.3556024225471362
8.000000000001005,0.9555209887742361,-0.3793720514568855
8.200000000000895,0.9813331186190863,-0.39773535580273206
8.400000000000784,1.0095039060878699,-0.4186203456309904
8.600000000000673,1.0397838055056847,-0.4479735485462145
8.800000000000562,1.063193368146765,-0.46925375009655046
9.000000000000451,1.079577210622644,-0.49190920079192074
9.20000000000034,1.1025357201502515,-0.5056584389799418
9.40000000000023,1.129933850074791,-0.5219005486074857
9.600000000000119,1.161905940724613,-0.5477042067648624
9.800000000000008,1.1916931036691574,-0.5627958072231672
10.000999999999896,1.2229796221328264,-0.5707527126342806
10.200999999999786,1.2485225481870914,-0.5923759791183391
10.400999999999675,1.282450226751185,-0.6010124022395994
10.600999999999564,1.3090680603357936,-0.6206303911898053
10.800999999999453,1.336819257744254,-0.6442759480177497
11.000999999999342,1.3704105214430027,-0.6590428008089346
11.200999999999231,1.3947208651352523,-0.6775841628840152
11.40099999999912,1.418723073563275,-0.7051466106097102
11.60099999999901,1.445516243867322,-0.7293947543195985
11.800999999998899,1.477734093380813,-0.7502910765991758
12.000999999998788,1.5101958772234791,-0.7670893724576298
12.200999999998677,1.5449523387678203,-0.7733782539988744
12.400999999998566,1.5726256813796506,-0.7863116141159043
12.600999999998455,1.600618052901194,-0.804127602266542
12.800999999998345,1.6312585037968492,-0.8239500714019461
13.000999999998234,1.6566680963685552,-0.8539267442633542
13.200999999998123,1.687578474144701,-0.8760910909468271
13.400999999998012,1.7197010135707962,-0.8830281877018429
13.600999999997901,1.7582126383949905,-0.8778816357178747
13.80099999999779,1.7950391444326097,-0.8866400274948041
14.00099999999768,1.8329630895339113,-0.8945315110894474
14.200999999997569,1.8482656934620327,-0.9119934059766278
14.400999999997458,1.8501139426966813,-0.9321212562299702
14.600999999997347,1.8423338584135571,-0.9568593570000141
14.800999999997236,1.8194037594413528,-0.9754310455148189
15.000999999997125,1.8101254288783677,-1.0086811750083564
15.200999999997014,1.8077236059094617,-1.0409535190635437
15.400999999996904,1.797457856679777,-1.0662810836215664
15.600999999996793,1.7856779994973884,-1.1045023323675955
15.800999999996682,1.764510555541902,-1.1388937665789762
16.000999999996573,1.7452867348972783,-1.1575394192963437
16.200999999996817,1.7378366857034204,-1.1820095131490984
16.40099999999706,1.7351657927542532,-1.2175836100117594
16.600999999997306,1.7232533240770327,-1.2464711728600884
16.80099999999755,1.723423337025313,-1.2789268237462494
17.000999999997795,1.7133055960484183,-1.3116827486320226
17.20099999999804,1.6839669192749163,-1.3400313312871277
17.400999999998284,1.671706861530976,-1.3763768433777037
17.60099999999853,1.6663221007572542,-1.4087404720920769
17.800999999998773,1.6701534982899138,-1.4493491069982056
18.000999999999017,1.6639015460992148,-1.4907042034107485
18.20099999999926,1.6515658466906489,-1.518695078084865
18.400999999999506,1.6351884862272292,-1.5433653435319727
18.60099999999975,1.6211981456716558,-1.5681900893861367
18.799999999999994,1.5992529078534725,-1.6010936797230828
19.000000000000238,1.5891007826887562,-1.6333641612637735
19.200000000000482,1.5758164683561289,-1.6598756629621325
19.400000000000727,1.5593489618591228,-1.688106328821644
19.60000000000097,1.5575369815148856,-1.715968626804606
19.800000000001216,1.5586843842292388,-1.744295574382362
20.00000000000146,1.5437215717485588,-1.777369407144267
