Time (s),X (m),Y (m)
0.001,-0.0007144750753253542,-0.00043579054991000363
0.20000000000000015,0.008526493454900369,0.003661749243340213
0.4000000000000003,0.025189179887166353,0.00858774614786837
0.6000000000000004,0.03909050043915893,0.007925793440350555
0.8000000000000006,0.06138572051816899,0.0067503003383249625
1.0000000000000007,0.08326541943354208,-0.000339548460591894
1.2009999999999785,0.1033320152067503,-0.018451256509624595
1.4009999999999565,0.12317244571419379,-0.038811373336987406
1.6009999999999345,0.14853231964505795,-0.06503245278119167
1.8009999999999124,0.1628932955732092,-0.09934634108655561
2.0009999999998906,0.16222172095084184,-0.1358305683019317
2.2009999999998686,0.1522023701045361,-0.17823209076105934
2.4009999999998466,0.13339214431220897,-0.22216051093422118
2.6009999999998246,0.09851571850748511,-0.2659406326899712
2.8009999999998025,0.06815238228623832,-0.30431580859943796
3.0009999999997805,0.03723582450448933,-0.33776973279770267
3.2009999999997585,0.0007012005902261908,-0.36966911269164515
3.4009999999997365,-0.04585996742001484,-0.3962955105553153
3.6009999999997144,-0.09489735023091797,-0.41194849178709275
3.8009999999996924,-0.1415391219201263,-0.4117189440326036
4.000999999999671,-0.19700847877895375,-0.3928863361334329
4.200999999999738,-0.25185833377111355,-0.3584388632996789
4.400999999999804,-0.3011038949412279,-0.32032592306342683
4.600999999999871,-0.34161259613845796,-0.2617529795309334
4.800999999999938,-0.3695237028590537,-0.2044153549293041
5.000000000000004,-0.3617274345590201,-0.1428680561018056
5.200000000000071,-0.3363701358117914,-0.08780975093558363
5.400000000000138,-0.308189856574094,-0.04308604388178437
5.600000000000205,-0.2765698488732288,0.0025024486662543173
5.800000000000272,-0.23540851112935957,0.05026445628567454
6.000000000000338,-0.19704508137913512,0.0925566402799521
6.200000000000405,-0.14340798616046763,0.11363986404508239
6.400000000000472,-0.08698496904544303,0.11539114651061
6.600000000000539,-0.03373788405674326,0.10607782578488142
6.800000000000606,0.02842419630619863,0.08204730382133875
7.000000000000672,0.08797345461151068,0.040088630830657584
7.200000000000739,0.13625779957048678,-0.006287732462606204
7.400000000000806,0.16436642755383718,-0.06393702151484096
7.600000000000873,0.1834449570856032,-0.12026612164042906
7.8000000000009395,0.1843455012109583,-0.17986691786158474
8.000000000001005,0.1619192537939092,-0.24693942766950008
8.200000000000895,0.11853921595254302,-0.31652323458467235
8.400000000000784,0.06944859101036138,-0.3899114839540096
8.600000000000673,0.020203752049028082,-0.4593310895142434
8.800000000000562,-0.031839412430953784,-0.5157240596938635
9.000000000000451,-0.08797959401872385,-0.5563536896977579
9.20000000000034,-0.14196484052413294,-0.5820342521120633
9.40000000000023,-0.1962006073204771,-0.5869839494847796
9.600000000000119,-0.24506866383470963,-0.5801670592786755
9.800000000000008,-0.3017594836797679,-0.574032334008649
10.000999999999896,-0.36442574812509393,-0.5729218810570202
10.200999999999786,-0.42246013287980966,-0.5570362307009485
10.400999999999675,-0.47507581010284666,-0.5266441051467525
10.600999999999564,-0.5260099006333201,-0.4816675876640832
10.800999999999453,-0.5715240159723598,-0.4370546880774619
11.000999999999342,-0.5955759382828063,-0.3864412582304115
11.200999999999231,-0.6077290252976059,-0.31955765822954296
11.40099999999912,-0.60745899135723,-0.24059391792248075
11.60099999999901,-0.5956116941710347,-0.17664041429615504
11.800999999998899,-0.5674583054785136,-0.11767018369019658
12.000999999998788,-0.5286633011550187,-0.061375135632747865
12.200999999998677,-0.4798650278573476,-0.001052326500130761
12.400999999998566,-0.42377727424953804,0.05782319052933031
12.600999999998455,-0.3579820858136902,0.1123977496407464
12.800999999998345,-0.2906908278305981,0.15655836440711157
13.000999999998234,-0.21857133016921096,0.18760025673141492
13.200999999998123,-0.14122958023376783,0.19444825649661449
13.400999999998012,-0.07180662200918558,0.17671256390365547
13.600999999997901,-0.010309311730574271,0.14495910755744398
13.80099999999779,0.050657143026383834,0.10714274006408875
14.00099999999768,0.10325238859846181,0.06292258257714092
14.200999999997569,0.15921094289416696,0.008797344606407723
14.400999999997458,0.2180820895815762,-0.05648724795767007
14.600999999997347,0.280012403113468,-0.12653720603481644
14.800999999997236,0.34675898945545647,-0.20536985241778766
15.000999999997125,0.4072489781573606,-0.28858818598602953
15.200999999997014,0.4393525343641922,-0.36199575567659587
15.400999999996904,0.43704553932232404,-0.42401049552303893
15.600999999996793,0.4128369580393357,-0.4737883108002692
15.800999999996682,0.38046898269532126,-0.4915946466242416
16.000999999996573,0.34934583662220303,-0.48353613785036514
16.200999999996817,0.32061674539177454,-0.46023348147298515
16.40099999999706,0.3072122319335405,-0.4318238530152889
16.600999999997306,0.31665097690658933,-0.40180773674575954
16.80099999999755,0.3493153945136832,-0.369803984136117
17.000999999997795,0.38950134763167404,-0.3600740280451302
17.20099999999804,0.4313898158951935,-0.3705157782454298
17.400999999998284,0.4832928208845569,-0.39724224278970294
17.60099999999853,0.5393374478019736,-0.43423472075273306
17.800999999998773,0.5944995076725872,-0.48117864866938126
18.000999999999017,0.6334459389197491,-0.5413114851949155
18.20099999999926,0.6420890897979163,-0.593137150968507
18.400999999999506,0.637980984925795,-0.6326379477329075
18.60099999999975,0.6169193269753562,-0.6778713702249863
18.799999999999994,0.5816492266683444,-0.7359753223459385
19.000000000000238,0.5408160089848011,-0.7940987941766422
19.200000000000482,0.4914836298826441,-0.8568720613434319
19.400000000000727,0.4391107373083745,-0.9252596199327171
19.60000000000097,0.3820656947972638,-0.9996264499628529
19.800000000001216,0.3195032899320228,-1.0707948527318047
20.00000000000146,0.24983083412894902,-1.1403291767076436
