Time (s),X (m),Y (m)
0.001,-0.00037137305770231177,-0.0008446836120385868
0.20000000000000015,0.004097315694076988,0.0034022509899247775
0.4000000000000003,0.010388232582160553,0.0020445046301940614
0.6000000000000004,0.02187925162217057,0.004228162402326677
0.8000000000000006,0.036691680682542555,0.01200813965639684
1.0000000000000007,0.05317382497459022,0.018061349922423107
1.2009999999999785,0.07750321597033777,0.037567172195097316
1.4009999999999565,0.10122646693886525,0.040385297992854535
1.6009999999999345,0.12149798467631177,0.048679000859754844
1.8009999999999124,0.13577110880089052,0.05948583472738321
2.0009999999998906,0.15322058860826848,0.08124250994247097
2.2009999999998686,0.17188555416800705,0.0910925313443518
2.4009999999998466,0.1932074599704084,0.09801126117907025
2.6009999999998246,0.2132092033447724,0.1084087941162918
2.8009999999998025,0.24055920358064034,0.12072479375530068
3.0009999999997805,0.2603904036240953,0.13497139537813765
3.2009999999997585,0.28118715760742596,0.1320663583209281
3.4009999999997365,0.3029519692077203,0.13305618955805806
3.6009999999997144,0.3327968039684382,0.1551175239990605
3.8009999999996924,0.3585535725217579,0.17666360031048597
4.000999999999671,0.39118025576534116,0.2081454763820044
4.200999999999738,0.42580254543710455,0.23617131986675363
4.400999999999804,0.46357086016675364,0.25873936483339305
4.600999999999871,0.4989621427623006,0.27933713202596877
4.800999999999938,0.5336973561784821,0.29486714471651193
5.000000000000004,0.5584444437148782,0.3152124669618128
5.200000000000071,0.590047793325878,0.34294022962098064
5.400000000000138,0.6251933133736916,0.3650308424481487
5.600000000000205,0.6610979443934432,0.385508897315985
5.800000000000272,0.6957441873771073,0.3970664861899549
6.000000000000338,0.727347160669353,0.42514027947050836
6.200000000000405,0.7602205371251739,0.44894589651704103
6.400000000000472,0.7932118905855706,0.47637578331345704
6.600000000000539,0.823881751332865,0.4961542053691932
6.800000000000606,0.8571042809525907,0.5296944683877253
7.000000000000672,0.8838274303009886,0.5553313500087121
7.200000000000739,0.9128110071216314,0.5780388496064076
7.400000000000806,0.9438863998914163,0.603855989382189
7.600000000000873,0.9773437357304644,0.6278253197655341
7.8000000000009395,1.0054436306142012,0.6469966425389063
8.000000000001005,1.0306821429241175,0.6848800535894407
8.200000000000895,1.0577119666547177,0.707805047237307
8.400000000000784,1.0827573372256143,0.7328243804560503
8.600000000000673,1.1031450749445546,0.760489894375259
8.800000000000562,1.1275027211522572,0.7805773864192423
9.000000000000451,1.1514797563058796,0.8075850253767839
9.20000000000034,1.1729153002568142,0.8320119909631375
9.40000000000023,1.1896840248152403,0.8509833118067869
9.600000000000119,1.2106175558365047,0.8783176003230571
9.800000000000008,1.241029674995809,0.9078739740556743
10.000999999999896,1.266980753683045,0.9318481748410588
10.200999999999786,1.29098753805333,0.9480024695697865
10.400999999999675,1.3144449899906412,0.9814162185673386
10.600999999999564,1.340322209971484,1.0201253757767226
10.800999999999453,1.3648809287227137,1.0495120800814646
11.000999999999342,1.3849140436043363,1.075079694805204
11.200999999999231,1.4017622320376737,1.0961242798281727
11.40099999999912,1.4198827678954662,1.1183957771932074
11.60099999999901,1.4370715555251439,1.1436975410535588
11.800999999998899,1.4528645422395976,1.1732380688275603
12.000999999998788,1.4736347137611001,1.202362473931391
12.200999999998677,1.501910123091801,1.2289110559078076
12.400999999998566,1.5232672698356968,1.2603176556450872
12.600999999998455,1.537726944497608,1.301825905320469
12.800999999998345,1.5524013737385625,1.338337563097317
13.000999999998234,1.5740563223996527,1.3693633013292181
13.200999999998123,1.5921934217007274,1.4128895015602283
13.400999999998012,1.6043364774430995,1.4535153340494646
13.600999999997901,1.621103920011457,1.48986452963497
13.80099999999779,1.6399971920650456,1.5223267433779766
14.00099999999768,1.6644984375617076,1.5423726772593656
14.200999999997569,1.683666770380405,1.5560899403646344
14.400999999997458,1.6939594918762286,1.5943149448001586
14.600999999997347,1.7116254510672797,1.624631926212821
14.800999999997236,1.7283169015913997,1.655968330864153
15.000999999997125,1.741552699119049,1.6810930056469218
15.200999999997014,1.7581168262049636,1.7042524610302827
15.400999999996904,1.7750993080155453,1.721543700783197
15.600999999996793,1.7869615074574152,1.7566503808361953
15.800999999996682,1.8063942685715388,1.7946652985631257
16.000999999996573,1.8328829173924264,1.826874925447958
16.200999999996817,1.8550304401504996,1.8517468298003699
16.40099999999706,1.8705035849341574,1.8788157680046076
16.600999999997306,1.8910422793590596,1.9078967213298257
16.80099999999755,1.9007205020090043,1.948942454995732
17.000999999997795,1.9125265877195397,1.9855997541055503
17.20099999999804,1.9254267422005558,2.0278622947286116
17.400999999998284,1.9330757658418187,2.0663631023867755
17.60099999999853,1.9368789480978208,2.1031700922713528
17.800999999998773,1.9444368675991606,2.1420114463342883
18.000999999999017,1.945364443287901,2.1724666027118196
18.20099999999926,1.9487033901469737,2.215531151355742
18.400999999999506,1.9583919058294037,2.23958871783778
18.60099999999975,1.9700721281349067,2.2868634369838574
18.799999999999994,1.9812516504964341,2.3290450270420195
19.000000000000238,1.9921362765830692,2.3668345562410447
19.200000000000482,2.000317221382796,2.4155051962296388
19.400000000000727,2.0056085338207916,2.4646591198403245
19.60000000000097,2.014977732273657,2.4991033454682
19.800000000001216,2.034990671173924,2.52921014168641
20.00000000000146,2.0569960770420863,2.5585623296907185
