Time (s),X (m),Y (m)
0.001,0.0010647643868879006,-0.0005914538325516239
0.20000000000000015,0.0006285997958054481,0.0008128308586457847
0.4000000000000003,0.010511662282430058,-0.005642958987524449
0.6000000000000004,0.016635752756813026,-0.006836566984718551
0.8000000000000006,0.026770086549568955,0.0031330800025754207
1.0000000000000007,0.03533973242971965,0.009106601154195882
1.2009999999999785,0.046201883658438726,0.012390266490122967
1.4009999999999565,0.05828100518060811,0.01563056514603058
1.6009999999999345,0.0852042287198113,0.009081869279809524
1.8009999999999124,0.10749846632057385,0.004821926103018324
2.0009999999998906,0.12638032888973535,0.008266203308705828
2.2009999999998686,0.14823391382963497,0.007907553640997485
2.4009999999998466,0.16387451749290366,0.009059485858605807
2.6009999999998246,0.1855426240275471,0.00929226190919516
2.8009999999998025,0.19899768494351505,0.0017908844848134099
3.0009999999997805,0.22163827654403473,-0.005853481835486561
3.2009999999997585,0.24906408370818683,-0.015265926972522905
3.4009999999997365,0.26464483497331187,-0.02318128049903728
3.6009999999997144,0.2869731592645504,-0.02952800653850262
3.8009999999996924,0.30763790557901743,-0.028582435915910677
4.000999999999671,0.32164363028097503,-0.024441794592294914
4.200999999999738,0.3338047241880859,-0.017948354276906796
4.400999999999804,0.35556065094451145,-0.016575781063668932
4.600999999999871,0.37877688550314986,-0.015007979995456918
4.800999999999938,0.39560468266356696,-0.0075327047300204055
5.000000000000004,0.41905282092652674,-0.015858512268957434
5.200000000000071,0.45126327739610655,-0.029933391484785694
5.400000000000138,0.47859996914372965,-0.039828382345209246
5.600000000000205,0.5041947089772004,-0.04291787873137009
5.800000000000272,0.5254602092309022,-0.05269585209255992
6.000000000000338,0.5452038437095232,-0.05833213222569715
6.200000000000405,0.5652749855995872,-0.05671233885587336
6.400000000000472,0.5941568074675013,-0.0658350150414758
6.600000000000539,0.6200161767839802,-0.07670248605088639
6.800000000000606,0.6432908294052451,-0.08312849162000499
7.000000000000672,0.6689412425321926,-0.09575857303851804
7.200000000000739,0.6985812082844874,-0.11347765504655323
7.400000000000806,0.7235403483267896,-0.12103245404517618
7.600000000000873,0.7441659476195657,-0.13900427972948526
7.8000000000009395,0.7634109197732832,-0.16553602364962708
8.000000000001005,0.7808888764918459,-0.19209850919065796
8.200000000000895,0.7972902951343301,-0.21042484475138248
8.400000000000784,0.8078323380103434,-0.23745286989422631
8.600000000000673,0.8181681589046568,-0.265457893251554
8.800000000000562,0.8278058595068182,-0.2976963584877631
9.000000000000451,0.8268013689537065,-0.32857095336683745
9.20000000000034,0.8229544615829141,-0.3553701004378754
9.40000000000023,0.8262729489335069,-0.381934409018432
9.600000000000119,0.8342538477045562,-0.39855316718146316
9.800000000000008,0.836376174024082,-0.42109742307567877
10.000999999999896,0.8378482880654423,-0.4426987827374018
10.200999999999786,0.8308452450707985,-0.4737433958078077
10.400999999999675,0.822379451826142,-0.5002731979089021
10.600999999999564,0.8174039998527238,-0.5281973879732698
10.800999999999453,0.8115629787691598,-0.5536018227765508
11.000999999999342,0.8055579886459049,-0.5810300163118757
11.200999999999231,0.803111284393039,-0.6037711254870082
11.40099999999912,0.8032286025262864,-0.632654609660342
11.60099999999901,0.7935906199028119,-0.6630065736882728
11.800999999998899,0.7872511469527859,-0.6933885616577473
12.000999999998788,0.7814917536388989,-0.7186883467246271
12.200999999998677,0.7685494903952796,-0.7434529195614719
12.400999999998566,0.7438199285724669,-0.7680044177462778
12.600999999998455,0.7275601407549973,-0.7900149622257507
12.800999999998345,0.7045084620490769,-0.8069704965841128
13.000999999998234,0.6725588263810085,-0.8118487845262938
13.200999999998123,0.651233896320019,-0.818758647567114
13.400999999998012,0.6338177533227056,-0.823028952920861
13.600999999997901,0.6109081338239262,-0.8255630957074096
13.80099999999779,0.577588437590945,-0.82552293297418
14.00099999999768,0.5450256875650635,-0.8252854410617881
14.200999999997569,0.513009711606513,-0.8214594327955378
14.400999999997458,0.49166373470585195,-0.8202276933250284
14.600999999997347,0.4660142406224973,-0.822992303646246
14.800999999997236,0.4363351700217033,-0.8263689599157559
15.000999999997125,0.4049660915103376,-0.8285769420982773
15.200999999997014,0.3745302249539472,-0.8209856658515694
15.400999999996904,0.3400574930777953,-0.8057184959853908
15.600999999996793,0.31050323304324046,-0.7958607121176878
15.800999999996682,0.2729669490999754,-0.779898541952571
16.000999999996573,0.23404892228231716,-0.7590004990402782
16.200999999996817,0.20338222804278577,-0.74001698256616
16.40099999999706,0.17249462446663685,-0.7276208335768855
16.600999999997306,0.1419315172448019,-0.7057742625208715
16.80099999999755,0.11202160720972228,-0.6865134328431741
17.000999999997795,0.08453828826142659,-0.6607021774149456
17.20099999999804,0.05256566630466721,-0.6272473804915817
17.400999999998284,0.026868200136364997,-0.6007199377644606
17.60099999999853,0.008067760146431256,-0.5788950833470412
17.800999999998773,-0.00824546514463698,-0.545987610108492
18.000999999999017,-0.023821020741589937,-0.5249533358724003
18.20099999999926,-0.028621704893499418,-0.4966926309219103
18.400999999999506,-0.03303710760793708,-0.4638841019250848
18.60099999999975,-0.033754110040596204,-0.4251585177589857
18.799999999999994,-0.0419428494645461,-0.3963608298764178
19.000000000000238,-0.05049662885908592,-0.3729748062281448
19.200000000000482,-0.05411535639692007,-0.3511319133012475
19.400000000000727,-0.049833636225255905,-0.32098380098033946
19.60000000000097,-0.050766865226696836,-0.29809541079135815
19.800000000001216,-0.03534023680832796,-0.26743212871976946
20.00000000000146,-0.015628918583725677,-0.2389706609972094
