Time (s),X (m),Y (m)
0.001,0.00048696676677933824,0.00099603208171127
0.20000000000000015,0.0008611040616831473,-0.001800715946427146
0.4000000000000003,0.0025780612322152483,-0.010427185076135683
0.6000000000000004,0.007042934786124819,-0.006916592637054402
0.8000000000000006,0.01437263222931841,-0.005391217702790235
1.0000000000000007,0.026725362000227265,-0.0006577160024609957
1.2009999999999785,0.03805575011164134,0.00030605607860924517
1.4009999999999565,0.048207796898168294,0.003508464712393235
1.6009999999999345,0.05995003581888843,0.00662571090392971
1.8009999999999124,0.07488790446912699,0.013555843880951424
2.0009999999998906,0.08745961358090285,0.010380080262561361
2.2009999999998686,0.10250981627696285,0.0177052601488892
2.4009999999998466,0.1203582955910209,0.02095543510327645
2.6009999999998246,0.1377034714543001,0.014817195613850793
2.8009999999998025,0.15278395080523233,0.004750090844346261
3.0009999999997805,0.1621524126770892,-0.008341662209840636
3.2009999999997585,0.18081927109830664,0.0007028136041213208
3.4009999999997365,0.1971380766960146,0.00626084600906201
3.6009999999997144,0.21547089473657588,0.00871944759466503
3.8009999999996924,0.23255061690141296,0.020957002622446232
4.000999999999671,0.2500212318720675,0.020004175604401517
4.200999999999738,0.266266549892911,0.008739070158128588
4.400999999999804,0.2875626642009111,0.004559678765299572
4.600999999999871,0.30841616671867594,-0.0023916497652134816
4.800999999999938,0.33167156277220994,0.0020564764894594506
5.000000000000004,0.3469273479421006,0.005802042771206221
5.200000000000071,0.36442244010970143,-0.0017023159617174774
5.400000000000138,0.3834966800352205,0.011328727049322878
5.600000000000205,0.40528106884385895,0.009759374057968201
5.800000000000272,0.42754879650759803,0.008924133433340576
6.000000000000338,0.446996391215159,0.010005460876375737
6.200000000000405,0.4641049937242578,0.005868585394586036
6.400000000000472,0.4845648465197113,0.009109251099957768
6.600000000000539,0.5077037041763328,0.009549563511795109
6.800000000000606,0.5294357693831411,0.006380565597154865
7.000000000000672,0.549068785264963,0.003932624012470228
7.200000000000739,0.5730150392365407,0.007826225711464402
7.400000000000806,0.5984184567396588,0.012701279615243033
7.600000000000873,0.6189764178843012,0.005582971693795067
7.8000000000009395,0.6390087914336227,0.016439769705550354
8.000000000001005,0.6600355064284834,0.019948109966114118
8.200000000000895,0.6805205859684577,0.02752420797856418
8.400000000000784,0.7024403929649838,0.041138236156704956
8.600000000000673,0.7221378370007261,0.05407863680864643
8.800000000000562,0.7434968876004853,0.06735303124816494
9.000000000000451,0.7631470843328065,0.06957968514635895
9.20000000000034,0.7862608149229404,0.07252643925485264
9.40000000000023,0.8035504506038496,0.06713161988805791
9.600000000000119,0.8247359718437721,0.07802986364791577
9.800000000000008,0.8509116687546646,0.0935792655347867
10.000999999999896,0.878527070703621,0.10686162927481474
10.200999999999786,0.9026639371938808,0.11279949194061191
10.400999999999675,0.920759833998918,0.1164922095245966
10.600999999999564,0.9440386970206751,0.11767001479739381
10.800999999999453,0.9686712227277231,0.12576541411523035
11.000999999999342,0.9935514269026591,0.13144111003310519
11.200999999999231,1.0166967093958381,0.13117151699490767
11.40099999999912,1.0425934908012149,0.1354629224877168
11.60099999999901,1.0655135758536092,0.1474709793902967
11.800999999998899,1.0896495601526015,0.15661590301211997
12.000999999998788,1.1101428256934818,0.16213431613793894
12.200999999998677,1.1336027146555627,0.16755355357350513
12.400999999998566,1.1535689539849232,0.1704627643295079
12.600999999998455,1.1748740396220023,0.18395421102265802
12.800999999998345,1.1962530474857895,0.18987462451124262
13.000999999998234,1.214810517293859,0.19038334481399932
13.200999999998123,1.2351462962201982,0.1960912926031614
13.400999999998012,1.2531654773498708,0.2032361255408044
13.600999999997901,1.2722790643618307,0.203427638077459
13.80099999999779,1.2925966792734618,0.2241042339902444
14.00099999999768,1.3165999032950835,0.2344703395404375
14.200999999997569,1.3375228574093203,0.2490400591429893
14.400999999997458,1.3634385970276777,0.25468540340286877
14.600999999997347,1.3833941804843184,0.2665066009258624
14.800999999997236,1.4017951209684805,0.270534101314681
15.000999999997125,1.4236755479552552,0.2766202619981859
15.200999999997014,1.4494477487480548,0.2807944145208693
15.400999999996904,1.4730674816592824,0.2830925567102824
15.600999999996793,1.4992894804218806,0.28030075473910704
15.800999999996682,1.5255468746908754,0.27432371405102807
16.000999999996573,1.5485162205424978,0.27556079125643207
16.200999999996817,1.568017086599389,0.2796330136756822
16.40099999999706,1.5905009381443973,0.2797520903916375
16.600999999997306,1.612697667224944,0.2886710554284499
16.80099999999755,1.6361788771499224,0.3065002577041105
17.000999999997795,1.6603047684355698,0.31391513604428967
17.20099999999804,1.6808189477360387,0.31295991470758244
17.400999999998284,1.7012098027161997,0.3126638381397206
17.60099999999853,1.715174612233087,0.32137590160775426
17.800999999998773,1.7326070191208116,0.33286868052483876
18.000999999999017,1.756352268717197,0.33777784947158745
18.20099999999926,1.777171456302588,0.35027885716052126
18.400999999999506,1.7973891264432633,0.36888535295499086
18.60099999999975,1.8206669105532958,0.3834155454674086
18.799999999999994,1.8394382836844978,0.3956845336867957
19.000000000000238,1.8636428490646342,0.41334001853229646
19.200000000000482,1.8866599518657143,0.4272921543182937
19.400000000000727,1.9125339667797896,0.4382913770762454
19.60000000000097,1.9389944245950725,0.4473718867353953
19.800000000001216,1.9608931016582085,0.4558518426944384
20.00000000000146,1.9833380084795864,0.46497173871755526
