Time (s),X (m),Y (m)
0.001,0.0008829029745972832,-0.0007899207378008392
0.20000000000000015,-0.0012736725926649035,0.004222376621425021
0.4000000000000003,0.0018027584101965243,0.006243090091454066
0.6000000000000004,0.01953418588270189,0.0022520320505315843
0.8000000000000006,0.039373504752847996,-0.0073759537674665705
1.0000000000000007,0.06990435442451091,-0.003738375882395596
1.2009999999999785,0.10798670869307268,-0.005473716397539674
1.4009999999999565,0.14262137970492797,0.0020342707876854268
1.6009999999999345,0.17392163486280968,0.006676652854018468
1.8009999999999124,0.20632260836640615,-0.023788197569803694
2.0009999999998906,0.24184887115319997,-0.06590368296027278
2.2009999999998686,0.27115972421513246,-0.11334372012298705
2.4009999999998466,0.29917231542015654,-0.15361447248921187
2.6009999999998246,0.322874570331427,-0.19338437049658863
2.8009999999998025,0.32715291273454,-0.24577479552579867
3.0009999999997805,0.334034157856992,-0.2980189407135237
3.2009999999997585,0.3362337079196346,-0.3501868732053543
3.4009999999997365,0.3203474080641758,-0.4004242521115113
3.6009999999997144,0.28553253941161205,-0.4405021921269059
3.8009999999996924,0.24777725066201517,-0.4737071559457914
4.000999999999671,0.20000789094213905,-0.49923917636136234
4.200999999999738,0.1462763006768931,-0.5161871237338492
4.400999999999804,0.08656407211054266,-0.5150539115664217
4.600999999999871,0.02212928824779855,-0.4994164311684569
4.800999999999938,-0.040517667383636644,-0.47972839261579564
5.000000000000004,-0.10120132731229475,-0.4623185396185807
5.200000000000071,-0.15485385495189719,-0.43860804832024963
5.400000000000138,-0.19528772600352365,-0.4037382212646255
5.600000000000205,-0.22097384488245356,-0.35751238735010665
5.800000000000272,-0.22605626175413177,-0.3019584677339451
6.000000000000338,-0.22842243398747838,-0.2508916831413422
6.200000000000405,-0.19556190376775437,-0.20187119911790524
6.400000000000472,-0.1618095915205241,-0.162881863919424
6.600000000000539,-0.11926540490817786,-0.14594496051164219
6.800000000000606,-0.07186908557587124,-0.13428958991994694
7.000000000000672,-0.024130382273713825,-0.12707729729440437
7.200000000000739,0.02544617981201378,-0.13340395170684102
7.400000000000806,0.07656607381868293,-0.13797579422895234
7.600000000000873,0.12430210968554094,-0.16039827370653592
7.8000000000009395,0.15458051347144802,-0.20515840501463306
8.000000000001005,0.1684353156832838,-0.25992049289083147
8.200000000000895,0.1644446093460407,-0.31006221169263815
8.400000000000784,0.14146912858663463,-0.36089681474078494
8.600000000000673,0.1159431118311978,-0.41425690395427583
8.800000000000562,0.07289450768336259,-0.45553414018284655
9.000000000000451,0.015208835945994965,-0.4832462032983274
9.20000000000034,-0.039559926574623684,-0.49332945995310423
9.40000000000023,-0.09448798110496881,-0.49667158289427643
9.600000000000119,-0.15232663763901852,-0.4829007578672994
9.800000000000008,-0.2065197580108057,-0.45413025603885104
10.000999999999896,-0.22829403292636138,-0.41415777181439967
10.200999999999786,-0.23437427784105883,-0.3657985762589979
10.400999999999675,-0.24918218821445207,-0.31321197296054776
10.600999999999564,-0.24703048857744592,-0.25543875971159963
10.800999999999453,-0.22431338492938596,-0.1982915833452105
11.000999999999342,-0.17591152340907265,-0.15216611943296857
11.200999999999231,-0.12351031093843098,-0.11336357557927242
11.40099999999912,-0.06862942726099867,-0.09224279262691791
11.60099999999901,-0.016803483460656188,-0.08172045004798593
11.800999999998899,0.03641217621721558,-0.07707924127542068
12.000999999998788,0.09564795745879949,-0.10041546490506546
12.200999999998677,0.14921569412628657,-0.12545853831619339
12.400999999998566,0.1895983381053323,-0.1586601461305104
12.600999999998455,0.21812788719548032,-0.20210885254039895
12.800999999998345,0.22816850867452682,-0.2581604880104272
13.000999999998234,0.20668734795924754,-0.31728025580661556
13.200999999998123,0.17824544640835305,-0.37313754009427763
13.400999999998012,0.14948397184721754,-0.41563783008172855
13.600999999997901,0.11533085079106377,-0.45468189786697055
13.80099999999779,0.06310555982671295,-0.46878581534111397
14.00099999999768,0.0022458723507203533,-0.4404196025372395
14.200999999997569,-0.05439056556478737,-0.4085471079200134
14.400999999997458,-0.09525922162288941,-0.36130622255319683
14.600999999997347,-0.11453470314320752,-0.30127236780986544
14.800999999997236,-0.1108653942800256,-0.2375443761607805
15.000999999997125,-0.10442283939844858,-0.17990462620530978
15.200999999997014,-0.08183177693458088,-0.13037598124969293
15.400999999996904,-0.043347364008313585,-0.09561791316855785
15.600999999996793,0.0071878450996454854,-0.0819487067206627
15.800999999996682,0.06733474404920556,-0.0792825021400058
16.000999999996573,0.13244998813478795,-0.0778446123498443
16.200999999996817,0.1910845573313846,-0.09573312800610034
16.40099999999706,0.23204883313898278,-0.13523523510526764
16.600999999997306,0.26027485367380554,-0.1826120157362312
16.80099999999755,0.26971220278801333,-0.22262847119333798
17.000999999997795,0.2405760749003757,-0.272614221504312
17.20099999999804,0.20690029426393108,-0.32137043872140925
17.400999999998284,0.17128673261355468,-0.36921738436124274
17.60099999999853,0.12747934802709526,-0.41193356524320257
17.800999999998773,0.06563114015570691,-0.44181690296444254
18.000999999999017,-0.0023650158581672276,-0.45463507397439645
18.20099999999926,-0.07559524685349245,-0.4567547536282679
18.400999999999506,-0.14780152085687348,-0.42950797033495763
18.60099999999975,-0.20855172285736526,-0.37198965227897157
18.799999999999994,-0.25092210189821873,-0.3077091122630592
19.000000000000238,-0.2677945232969003,-0.2443198967874996
19.200000000000482,-0.25978906511300376,-0.1854626873447497
19.400000000000727,-0.21797413355422363,-0.13039513297156452
19.60000000000097,-0.1574089124207609,-0.09342576370708842
19.800000000001216,-0.0918212527331777,-0.07443446199707629
20.00000000000146,-0.0165928230367931,-0.07606892286571561
