Time (s),X (m),Y (m)
0.001,-0.0005090653149319316,-0.0007291460897812452
0.20000000000000015,0.004532880863891351,0.003088839466780301
0.4000000000000003,0.010027852632428707,0.002719841182390077
0.6000000000000004,0.022023929684415675,0.005378952262935606
0.8000000000000006,0.030369019481326413,-0.008511624758336072
1.0000000000000007,0.04797307348259356,-0.006520445132450207
1.2009999999999785,0.06867136361074185,-0.0002557680160968534
1.4009999999999565,0.08772706126890988,0.011241739871394133
1.6009999999999345,0.1065578074868478,0.015081007039163003
1.8009999999999124,0.13656412324748085,0.023586423390376848
2.0009999999998906,0.1599067867566717,0.026434397299577247
2.2009999999998686,0.18482265379259982,0.03601447396708061
2.4009999999998466,0.20342652729044164,0.03809713842499088
2.6009999999998246,0.21739882175215888,0.0380584580844167
2.8009999999998025,0.23856962955933655,0.039974459138584516
3.0009999999997805,0.2561136835367464,0.04946027198238679
3.2009999999997585,0.2796672281197121,0.0609589221108124
3.4009999999997365,0.30120944462516436,0.07091232419548996
3.6009999999997144,0.333109041730129,0.08647037135350404
3.8009999999996924,0.36691400936929724,0.10731731516395199
4.000999999999671,0.3960157183899709,0.11667753540056389
4.200999999999738,0.4261047512774418,0.13018399453848034
4.400999999999804,0.4567520868129344,0.15691265552514091
4.600999999999871,0.48802693024399874,0.19017863350063305
4.800999999999938,0.5160502480087812,0.20980467557418822
5.000000000000004,0.5413418557792423,0.22742798247109175
5.200000000000071,0.5588886934255481,0.24249132123874204
5.400000000000138,0.5741258963141475,0.2616523327764668
5.600000000000205,0.5925573046069535,0.27434454569811406
5.800000000000272,0.6104654830301264,0.28081747001094437
6.000000000000338,0.6292140745203676,0.2880551003379234
6.200000000000405,0.6508506867235557,0.2915540524029678
6.400000000000472,0.6849693387133987,0.30798223542728986
6.600000000000539,0.7043681188790154,0.34522351365753484
6.800000000000606,0.7223744283189085,0.36747296441420113
7.000000000000672,0.7355292108906023,0.3933739069252439
7.200000000000739,0.7532973493674122,0.41671846540753243
7.400000000000806,0.7656326100362079,0.4459632588371348
7.600000000000873,0.7751802603507193,0.47022815117948075
7.8000000000009395,0.7961199293707422,0.4784392113019183
8.000000000001005,0.8185894073155808,0.49288643798879106
8.200000000000895,0.8389987984428209,0.5255179663510162
8.400000000000784,0.8587329703292814,0.555726415660965
8.600000000000673,0.877784653307048,0.5810643730681715
8.800000000000562,0.9012337202325531,0.596083479103306
9.000000000000451,0.9280962053631373,0.6161845086529795
9.20000000000034,0.9508854570684712,0.6334464282994509
9.40000000000023,0.9699082652528244,0.6546935304508468
9.600000000000119,0.9888115439119333,0.6754022429764678
9.800000000000008,1.0067776800874286,0.6935152084335573
10.000999999999896,1.0209817620070636,0.7185893187248725
10.200999999999786,1.0349630681533804,0.7348444390578528
10.400999999999675,1.0456828560712936,0.7672152571742166
10.600999999999564,1.0618435028779147,0.7911302395399105
10.800999999999453,1.0828492572885533,0.8156397887388155
11.000999999999342,1.1036471193148962,0.840267903030667
11.200999999999231,1.1212109411697908,0.8596158474956859
11.40099999999912,1.1423648570929281,0.892549308417049
11.60099999999901,1.1613231146343974,0.9101138294296667
11.800999999998899,1.183416937039006,0.9256430625402565
12.000999999998788,1.204084853242041,0.9523495972168207
12.200999999998677,1.2212829920092099,0.9850655368436061
12.400999999998566,1.2375065625510073,1.014535648265607
12.600999999998455,1.2554561869769236,1.0410982869474352
12.800999999998345,1.2776041024858937,1.0556180740149064
13.000999999998234,1.2949777438336991,1.0793877850775635
13.200999999998123,1.3136973679437927,1.1203734023915095
13.400999999998012,1.3330781878057025,1.160635016436649
13.600999999997901,1.354452502727651,1.1888122351953023
13.80099999999779,1.374627308260592,1.2147780106354018
14.00099999999768,1.3931453357838621,1.2431184309487806
14.200999999997569,1.415085512674236,1.273923650192918
14.400999999997458,1.434175229643617,1.3032270576765022
14.600999999997347,1.4478583932874929,1.3392987549539026
14.800999999997236,1.4538917686995783,1.382387961728219
15.000999999997125,1.4574066235080465,1.4105194488697421
15.200999999997014,1.4630184503805947,1.426759850567051
15.400999999996904,1.4676184675545683,1.4489612567543362
15.600999999996793,1.4659831402734558,1.4784673994417297
15.800999999996682,1.4665840474998786,1.5045609381357912
16.000999999996573,1.47201232288309,1.527815076735944
16.200999999996817,1.4795816032767486,1.5638904013396413
16.40099999999706,1.481989405942795,1.5876014961535012
16.600999999997306,1.4892159634696243,1.6215550846731699
16.80099999999755,1.4938415117173047,1.6538988389534681
17.000999999997795,1.4961018279569445,1.6869815947268323
17.20099999999804,1.4967333404760939,1.7165570583787126
17.400999999998284,1.4935933819845293,1.7551732672893328
17.60099999999853,1.49209240304156,1.7827585022433223
17.800999999998773,1.492458836542513,1.8132653042840938
18.000999999999017,1.4910308491929505,1.847069048453371
18.20099999999926,1.4897170940781606,1.8813409344915606
18.400999999999506,1.4889308043120406,1.9081547445856197
18.60099999999975,1.487797952798368,1.934498948581062
18.799999999999994,1.4884868677684886,1.955001082332922
19.000000000000238,1.4971374891234654,1.9783832429222332
19.200000000000482,1.5002939692971249,2.011509713743224
19.400000000000727,1.4937957152988208,2.0561396415635387
19.60000000000097,1.4819979618261339,2.0962445207709424
19.800000000001216,1.4742467964577002,2.1343000644366583
20.00000000000146,1.4633967785124886,2.1725972875374193
