Time (s),X (m),Y (m)
0.001,-0.000795421750936344,0.00017906049427360518
0.20000000000000015,0.008204976977654262,-0.002527197310024204
0.4000000000000003,0.012822127363493339,-0.005352353797435461
0.6000000000000004,0.024658728703031447,-0.00945714504169286
0.8000000000000006,0.035900068482015345,-0.014685787168043944
1.0000000000000007,0.04105685532394315,-0.019622663092587065
1.2009999999999785,0.04705362228408977,-0.02372951745284455
1.4009999999999565,0.0636250194786085,-0.026538113195069043
1.6009999999999345,0.07914547919821915,-0.025479337742306502
1.8009999999999124,0.09891010863393444,-0.02863377423244177
2.0009999999998906,0.11661714586622879,-0.029756350145415292
2.2009999999998686,0.1209925301706127,-0.02738232952327357
2.4009999999998466,0.14066397307428793,-0.026109062218666927
2.6009999999998246,0.14925187009849766,-0.023346571423553168
2.8009999999998025,0.15516507078863498,-0.022880951466193556
3.0009999999997805,0.16808565021791416,-0.02110125499216894
3.2009999999997585,0.18242846071603913,-0.022721628932858045
3.4009999999997365,0.18587119446013323,-0.024448448744006597
3.6009999999997144,0.20130112107059792,-0.02755066638795039
3.8009999999996924,0.22393579202321023,-0.03892415991771458
4.000999999999671,0.23712368114231172,-0.046269969119323656
4.200999999999738,0.25539313602775754,-0.052261076710197904
4.400999999999804,0.28903003216654966,-0.06642403741834335
4.600999999999871,0.3217165114079098,-0.0772565269806932
4.800999999999938,0.3438259077172856,-0.07731358211629157
5.000000000000004,0.35938995578619903,-0.08348223630202226
5.200000000000071,0.3856309895099871,-0.09969606009916768
5.400000000000138,0.412823108710163,-0.11123921973011369
5.600000000000205,0.442131773819687,-0.1272369589607273
5.800000000000272,0.47622668920987565,-0.15576830356506163
6.000000000000338,0.5036765373284345,-0.17731925965088982
6.200000000000405,0.5280557183340605,-0.1869044005154351
6.400000000000472,0.5534880568007042,-0.18501486767701886
6.600000000000539,0.571952847053602,-0.19172094332623155
6.800000000000606,0.5935983101041283,-0.20267845673007298
7.000000000000672,0.616900224015809,-0.2251849394053163
7.200000000000739,0.6444176089688931,-0.24673412703284905
7.400000000000806,0.6756989368481304,-0.2670545242316567
7.600000000000873,0.7006275992121274,-0.28851382666349656
7.8000000000009395,0.721393717433762,-0.32165880385160805
8.000000000001005,0.7426884272070015,-0.3443326675028996
8.200000000000895,0.7490380506636316,-0.3803018908618553
8.400000000000784,0.7461269544784186,-0.4059504705774725
8.600000000000673,0.7439172357693471,-0.4340433885406788
8.800000000000562,0.7366861637801302,-0.4684779487417272
9.000000000000451,0.7242790063986044,-0.5116788559063203
9.20000000000034,0.7024560059492805,-0.5485614124595469
9.40000000000023,0.6858960639611708,-0.5723127914289029
9.600000000000119,0.6668100416815386,-0.6150402554659218
9.800000000000008,0.6414040927934808,-0.6661279963257194
10.000999999999896,0.6143101205659088,-0.7177052986149822
10.200999999999786,0.5890498447644046,-0.7584832513785743
10.400999999999675,0.5636137167502189,-0.7824121500998479
10.600999999999564,0.5367717299111299,-0.7924526081600618
10.800999999999453,0.503587790240011,-0.7841228389631336
11.000999999999342,0.4722159020575699,-0.7793720856700059
11.200999999999231,0.45349400900036035,-0.7750277263394557
11.40099999999912,0.4218141112661622,-0.7637910544742059
11.60099999999901,0.3907315436467229,-0.7507765697424159
11.800999999998899,0.3566509274960535,-0.7372493018534086
12.000999999998788,0.3249223211842125,-0.717680068578922
12.200999999998677,0.2987384494395887,-0.6946750876796457
12.400999999998566,0.27099159493200986,-0.6763723505776706
12.600999999998455,0.2475223163560002,-0.6582905361631113
12.800999999998345,0.21544818556027814,-0.6451007129627675
13.000999999998234,0.18302692651168515,-0.6236888420900902
13.200999999998123,0.1422646680882435,-0.6085518267285928
13.400999999998012,0.0994500933674319,-0.5915336874037315
13.600999999997901,0.051994679269181145,-0.5626483689976263
13.80099999999779,0.015961355014682196,-0.5310320385340725
14.00099999999768,0.002981676274464555,-0.5013439121706773
14.200999999997569,0.005013834029750885,-0.4643377600215318
14.400999999997458,0.01414436987434709,-0.4241326147291483
14.600999999997347,0.0373051385969153,-0.376723230731009
14.800999999997236,0.059877563975547166,-0.3284623960744172
15.000999999997125,0.08553968123274817,-0.2866352092630004
15.200999999997014,0.1153062828336867,-0.25030717643102685
15.400999999996904,0.15479461020209184,-0.2253260306469265
15.600999999996793,0.185918223764408,-0.21191753100855168
15.800999999996682,0.22224435849649027,-0.21124902596770262
16.000999999996573,0.2589129662347395,-0.21539127201745917
16.200999999996817,0.2839105335842198,-0.22567682958911578
16.40099999999706,0.31305333973312965,-0.2365839836201836
16.600999999997306,0.34462064205198495,-0.24302312218524494
16.80099999999755,0.3892570898537547,-0.25780287375642164
17.000999999997795,0.44245578693025256,-0.2829231412901182
17.20099999999804,0.48391444875732215,-0.2974602088765589
17.400999999998284,0.5287532031267616,-0.3129143969255317
17.60099999999853,0.5695514453001769,-0.3281972464288013
17.800999999998773,0.6118395550286976,-0.3543861958685714
18.000999999999017,0.6584445850064652,-0.38530445155067256
18.20099999999926,0.6904602310280179,-0.41786027438700213
18.400999999999506,0.7064323166586536,-0.4510602151848431
18.60099999999975,0.7064548728665551,-0.48938003905880434
18.799999999999994,0.6906775843474522,-0.5275434519764695
19.000000000000238,0.6715412525322341,-0.5721572405782842
19.200000000000482,0.6436875100568831,-0.6151356882967548
19.400000000000727,0.6130435328149525,-0.651907156738235
19.60000000000097,0.5856976864425671,-0.6726273033314982
19.800000000001216,0.5715542909158071,-0.6831822097928799
20.00000000000146,0.5332707707418458,-0.6904556024162357
