Time (s),X (m),Y (m)
0.001,0.0012473251573109415,8.987223813608099e-05
0.20000000000000015,-0.0019101608696067286,0.00014768525199652924
0.4000000000000003,0.003611314690596577,0.0016757877846771466
0.6000000000000004,0.013057735382303204,0.0030072654283167253
0.8000000000000006,0.03460142354316284,0.0031133900001363984
1.0000000000000007,0.04885952123021415,0.0010342748845514438
1.2009999999999785,0.06109957246294225,0.0018087248868609105
1.4009999999999565,0.08144576991043223,-0.004529478537881155
1.6009999999999345,0.10334565050570092,-0.010210808157947797
1.8009999999999124,0.12133640497675499,-0.02246294283215226
2.0009999999998906,0.14151103180963526,-0.03538991209792584
2.2009999999998686,0.14497979845135395,-0.040297992356776696
2.4009999999998466,0.14722976218769956,-0.04911752588950332
2.6009999999998246,0.1535807060891756,-0.0579501017648498
2.8009999999998025,0.15209374669741357,-0.05475490578003498
3.0009999999997805,0.16969196762608932,-0.06088169513574073
3.2009999999997585,0.19977289694505762,-0.08071313426933938
3.4009999999997365,0.2203324638196638,-0.10162226886842213
3.6009999999997144,0.24246894641920716,-0.11217870497032935
3.8009999999996924,0.2486332470745296,-0.11184637630984612
4.000999999999671,0.2597981761513771,-0.12294251223176025
4.200999999999738,0.28309219347350945,-0.1364528904518904
4.400999999999804,0.29859541466818773,-0.14314562332289216
4.600999999999871,0.30903379988024066,-0.14748191500158403
4.800999999999938,0.32855433423306396,-0.15944068326860714
5.000000000000004,0.35190896087140733,-0.1810990219523275
5.200000000000071,0.3852086819294433,-0.2031646192753518
5.400000000000138,0.4137894332732247,-0.22212689901636493
5.600000000000205,0.4421377805743279,-0.24046109184388928
5.800000000000272,0.47603584067252513,-0.2607385065153201
6.000000000000338,0.5098961013499049,-0.2786044942186035
6.200000000000405,0.544397000271861,-0.30243194939532675
6.400000000000472,0.5889193383828943,-0.33703638385226187
6.600000000000539,0.6311506661143246,-0.37268261901660404
6.800000000000606,0.6611333646829848,-0.3966875702545122
7.000000000000672,0.6891934605155092,-0.421286041844914
7.200000000000739,0.7231445862551197,-0.4494248786711009
7.400000000000806,0.7549794240844416,-0.4737343184855888
7.600000000000873,0.7946736620066326,-0.5013833665457968
7.8000000000009395,0.8266344204224447,-0.527597907209208
8.000000000001005,0.8640600995599369,-0.5564052704697052
8.200000000000895,0.8990555863589572,-0.5825647358169141
8.400000000000784,0.9392779547300748,-0.6122295624673785
8.600000000000673,0.9844249271234603,-0.6488626184731356
8.800000000000562,1.037731724427823,-0.6938459901794761
9.000000000000451,1.0914891883761175,-0.7412866792998766
9.20000000000034,1.1322090961236728,-0.7875561434532521
9.40000000000023,1.1621238818434718,-0.808333776239706
9.600000000000119,1.184101040820681,-0.8361553453628107
9.800000000000008,1.1971728629976217,-0.8532724775110175
10.000999999999896,1.200998561271211,-0.8788077615884989
10.200999999999786,1.1968590641397603,-0.9101824723339537
10.400999999999675,1.1836386719530578,-0.9576819296423447
10.600999999999564,1.163700444241618,-1.0076277473523008
10.800999999999453,1.1418994680361614,-1.0555366972332194
11.000999999999342,1.1195801125471079,-1.0915090976064854
11.200999999999231,1.0943015208858498,-1.1312428703934185
11.40099999999912,1.067182934907453,-1.172857211429508
11.60099999999901,1.0394423797064403,-1.2243442577248278
11.800999999998899,1.0138657832271818,-1.2679175964895295
12.000999999998788,0.9835296625253833,-1.302815559257161
12.200999999998677,0.9463211266795163,-1.3498854475548214
12.400999999998566,0.9075129288422413,-1.4017268643838983
12.600999999998455,0.8664000321016224,-1.4544588716816773
12.800999999998345,0.8257152766902389,-1.5084804669000071
13.000999999998234,0.7790334037062825,-1.5632887842631484
13.200999999998123,0.7429271328336927,-1.6153353163084492
13.400999999998012,0.7077552263357574,-1.6683168710962328
13.600999999997901,0.6700440465968582,-1.7173294468145262
13.80099999999779,0.6313532461790508,-1.7636105598602894
14.00099999999768,0.5867140475134036,-1.813412698309913
14.200999999997569,0.547951182216114,-1.8565453597804462
14.400999999997458,0.501042210080543,-1.8992776823635213
14.600999999997347,0.46170481013211434,-1.9410585064105763
14.800999999997236,0.42909021162294086,-1.9801393015348707
15.000999999997125,0.3920512185101717,-2.017994378600278
15.200999999997014,0.3662365742828571,-2.0432679214057385
15.400999999996904,0.33260973407695255,-2.058395735791501
15.600999999996793,0.2954684772478622,-2.0735400635026333
15.800999999996682,0.2641723480078376,-2.0719163919768255
16.000999999996573,0.2217192349486568,-2.065164660149662
16.200999999996817,0.17684204773967818,-2.0500018581984083
16.40099999999706,0.13348318468987008,-2.0274878855155807
16.600999999997306,0.08861178935028882,-2.002667325252624
16.80099999999755,0.0370332210895122,-1.977174147817229
17.000999999997795,-0.003730849375106706,-1.9495629890023563
17.20099999999804,-0.045687647250387195,-1.9235355748039247
17.400999999998284,-0.09287727182448015,-1.8880816665776448
17.60099999999853,-0.12233610410403688,-1.8595485167211532
17.800999999998773,-0.15977266998984535,-1.8405458497903349
18.000999999999017,-0.20648817230613292,-1.8167832372850359
18.20099999999926,-0.2514074435990763,-1.7865077503368023
18.400999999999506,-0.29848504500001427,-1.7518825843961965
18.60099999999975,-0.34528071500623525,-1.7043624171957452
18.799999999999994,-0.3954357220080769,-1.6506623676898278
19.000000000000238,-0.4380264749501261,-1.5977653891465518
19.200000000000482,-0.45660114239343097,-1.5549073790670467
19.400000000000727,-0.4536044700888627,-1.5070628583709778
19.60000000000097,-0.440169167664058,-1.4502956675602439
19.800000000001216,-0.4261968060935044,-1.4025098221480905
20.00000000000146,-0.40330351868709086,-1.3531898751112579
