Time (s),X (m),Y (m)
0.001,0.000949226864630559,-0.0007291460897812452
0.20000000000000015,0.0014185702925055017,0.0014675849292410236
0.4000000000000003,0.0004418857818674713,0.006068384366004804
0.6000000000000004,0.006471453748446957,0.003775999666682298
0.8000000000000006,0.006405589685836085,0.010163137866289805
1.0000000000000007,0.013340241747684037,0.01007250316235149
1.2009999999999785,0.01940735925247881,0.013797623512365907
1.4009999999999565,0.023844702621988945,0.02183160597903915
1.6009999999999345,0.027043828223234846,0.03183499960796134
1.8009999999999124,0.03567065566954955,0.03959034103588282
2.0009999999998906,0.04678571843998198,0.03473466500281953
2.2009999999998686,0.05400948079073653,0.031610349024867083
2.4009999999998466,0.07070787211250407,0.02137046929852321
2.6009999999998246,0.0838385464182554,0.023394937552353955
2.8009999999998025,0.10157209011259458,0.016861063243941557
3.0009999999997805,0.1177140943435461,0.013910594857783582
3.2009999999997585,0.1320991778611789,0.012360211488977514
3.4009999999997365,0.14633463394535726,0.013574540259317794
3.6009999999997144,0.16484988129628078,0.015204118373070398
3.8009999999996924,0.18535026560605994,0.009557800048517934
4.000999999999671,0.20228344264765594,0.005357036071346927
4.200999999999738,0.22555534347308367,-0.00904635168531364
4.400999999999804,0.23963928458110303,-0.0225131226425252
4.600999999999871,0.25613926620835054,-0.02836440870312608
4.800999999999938,0.2690218384387191,-0.027669516051300434
5.000000000000004,0.28445989969564484,-0.027426086865123638
5.200000000000071,0.2965843565261771,-0.019010018199610308
5.400000000000138,0.3113354954384943,-0.018892249387746814
5.600000000000205,0.3299862411531925,-0.024605024606183766
5.800000000000272,0.34982871442972446,-0.03432146832131701
6.000000000000338,0.369677510061888,-0.0435762518735104
6.200000000000405,0.3913360013882733,-0.05013474257697646
6.400000000000472,0.41595187264427497,-0.046942973422443295
6.600000000000539,0.4389491679919637,-0.059368480149822725
6.800000000000606,0.4556270900407513,-0.06692098474938966
7.000000000000672,0.472099592665909,-0.07560140281438306
7.200000000000739,0.49292610503333156,-0.0837106084029418
7.400000000000806,0.5120886302027845,-0.09642099494662242
7.600000000000873,0.5206116619659225,-0.10979015364586438
7.8000000000009395,0.5301226233548076,-0.1182904943000945
8.000000000001005,0.539725099261337,-0.13547432608416143
8.200000000000895,0.5411918370215254,-0.16222153215508467
8.400000000000784,0.5478425900099338,-0.18426823352872299
8.600000000000673,0.5595754065095669,-0.1999534099508699
8.800000000000562,0.5670388848815485,-0.21228364829660365
9.000000000000451,0.5729693843632113,-0.2389232569891336
9.20000000000034,0.5741026063223549,-0.2573595077611764
9.40000000000023,0.5742059291969419,-0.2767948244872427
9.600000000000119,0.5797504511857375,-0.2870882517561798
9.800000000000008,0.5807507149182356,-0.3037064157530601
10.000999999999896,0.5869737009729463,-0.3248229826105628
10.200999999999786,0.5908429548786904,-0.34660076596498546
10.400999999999675,0.6001797077708664,-0.3611565074553742
10.600999999999564,0.6060326440901899,-0.3757636979344022
10.800999999999453,0.6101770440733536,-0.38705830203156893
11.000999999999342,0.6130869159550217,-0.4019284970070858
11.200999999999231,0.6192930636408337,-0.41520276819742497
11.40099999999912,0.6250865313934657,-0.42725926563701416
11.60099999999901,0.6265799781154242,-0.4473971641702228
11.800999999998899,0.6242037300921789,-0.4654114310361871
12.000999999998788,0.6281113569731308,-0.4829793598133247
12.200999999998677,0.6363623015372849,-0.504662346339798
12.400999999998566,0.6446143853090736,-0.5203499672222246
12.600999999998455,0.6488471277072326,-0.5437515843471749
12.800999999998345,0.6476333158401836,-0.5650323382316752
13.000999999998234,0.6478552477305286,-0.5859865002024652
13.200999999998123,0.6499081958737843,-0.6033023020196766
13.400999999998012,0.6561266508705016,-0.6228269504970557
13.600999999997901,0.6624851941349841,-0.637492506719894
13.80099999999779,0.6634998781524369,-0.6669401135776439
14.00099999999768,0.6709725284569844,-0.685979749823561
14.200999999997569,0.6794350672804446,-0.709226998043588
14.400999999997458,0.6821805564204738,-0.7329017195368671
14.600999999997347,0.6818507772248429,-0.7553181533359025
14.800999999997236,0.684870051491647,-0.7785719423382474
15.000999999997125,0.6805088925557047,-0.8053850642899035
15.200999999997014,0.6805522971340656,-0.8241048974705164
15.400999999996904,0.6822060584465814,-0.8397462672984612
15.600999999996793,0.6884134101002806,-0.8646673416800031
15.800999999996682,0.6923998466429245,-0.8803563900529184
16.000999999996573,0.6974142331367315,-0.895894206615628
16.200999999996817,0.7034820930259146,-0.9091178823211434
16.40099999999706,0.705641877686731,-0.9227475019956309
16.600999999997306,0.7060183777743619,-0.9366878797150004
16.80099999999755,0.7089241207000481,-0.9605364457140588
17.000999999997795,0.7120051022633196,-0.9887233161658809
17.20099999999804,0.7031412798438421,-1.0136530695283854
17.400999999998284,0.6980055054566489,-1.0365439977601678
17.60099999999853,0.6961369859789578,-1.0571447875020563
17.800999999998773,0.6995222287334302,-1.0752652344677507
18.000999999999017,0.7001091818799843,-1.095164863601909
18.20099999999926,0.693892193422545,-1.1144060261113573
18.400999999999506,0.6941190305936228,-1.1363809456172511
18.60099999999975,0.6887875579588889,-1.160222914665722
18.799999999999994,0.6826780835269829,-1.1851048731902332
19.000000000000238,0.6805645229519312,-1.20271303661745
19.200000000000482,0.6824362978404208,-1.2258064888837947
19.400000000000727,0.6874378939504326,-1.250268177517524
19.60000000000097,0.6885470219941757,-1.2776858877632642
19.800000000001216,0.6818557584208434,-1.3063942613883928
20.00000000000146,0.6817477511785603,-1.3326329599309967
