Time (s),X (m),Y (m)
0.001,-0.0007144750753253542,0.00043579054991000265
0.20000000000000015,0.003736009929564556,-0.0019908055052383676
0.4000000000000003,0.006596668815928155,-0.002463120173671633
0.6000000000000004,0.0004516102559342988,0.0027351122322198185
0.8000000000000006,0.00826341722753264,0.0016767124407627105
1.0000000000000007,0.02342000500294669,-0.005173970610593716
1.2009999999999785,0.035104014253183026,-0.009039254657213376
1.4009999999999565,0.0412749305296322,-0.011483016569900284
1.6009999999999345,0.049050745716488806,-0.012293212794267419
1.8009999999999124,0.07052948901871538,-0.011238857596042115
2.0009999999998906,0.09898664236968015,-0.007935453642197738
2.2009999999998686,0.11661923410250438,-0.004339769389108836
2.4009999999998466,0.12514276330359464,-0.004136019074460079
2.6009999999998246,0.1332131632971536,-0.0034290315204230917
2.8009999999998025,0.1378224119831006,-0.00408922530681307
3.0009999999997805,0.1527516717647312,-0.005224633500520276
3.2009999999997585,0.17242059718056615,-0.009191269741510768
3.4009999999997365,0.19346664761517163,-0.011462225224237144
3.6009999999997144,0.20670888866640896,-0.016164557436516222
3.8009999999996924,0.22358373014817115,-0.018925071116886644
4.000999999999671,0.23949320632772675,-0.02326126658931039
4.200999999999738,0.2623702690477887,-0.030643160126560216
4.400999999999804,0.28140538398955806,-0.03612805254103056
4.600999999999871,0.2954942674897975,-0.03929721962962312
4.800999999999938,0.3183000079344932,-0.04565450154839939
5.000000000000004,0.33591005299019155,-0.04835839135939848
5.200000000000071,0.3568727065523557,-0.05846223762969974
5.400000000000138,0.3781541430504685,-0.06713932056651654
5.600000000000205,0.4022350157056512,-0.08398076992003753
5.800000000000272,0.41761974637494015,-0.0917989041530372
6.000000000000338,0.435513894403352,-0.10306617130720683
6.200000000000405,0.45773144539048566,-0.11737801969849135
6.400000000000472,0.4816011380761888,-0.1362631961303377
6.600000000000539,0.5092129816084121,-0.15188397858408656
6.800000000000606,0.5347315663063402,-0.1671444134344643
7.000000000000672,0.5588851334518933,-0.18836636045161786
7.200000000000739,0.5770247641867409,-0.19939274454336972
7.400000000000806,0.5935868065658879,-0.21625912413391696
7.600000000000873,0.6087686260313556,-0.23546502069031522
7.8000000000009395,0.6258717775159668,-0.25535351112540977
8.000000000001005,0.6419763111681042,-0.2685589619598058
8.200000000000895,0.6501324185574493,-0.28475208107227706
8.400000000000784,0.6517405077177854,-0.3053602011960113
8.600000000000673,0.6559062107547298,-0.33055862604362213
8.800000000000562,0.6600887383966213,-0.35293111537772315
9.000000000000451,0.6637716754121659,-0.3797243269958585
9.20000000000034,0.667109028862166,-0.40596018916960824
9.40000000000023,0.6643179889907479,-0.43173972431239027
9.600000000000119,0.6620755806187061,-0.45483222196223283
9.800000000000008,0.6608663107459228,-0.478835703163841
10.000999999999896,0.6603192657295279,-0.5029855521691217
10.200999999999786,0.6534266755085126,-0.5304200628601189
10.400999999999675,0.6463397097529264,-0.5653065176357279
10.600999999999564,0.6389645033825,-0.5953220066109632
10.800999999999453,0.630646837925194,-0.6234437333468651
11.000999999999342,0.618875930769196,-0.6527178449426759
11.200999999999231,0.6035892611610898,-0.6844852820867292
11.40099999999912,0.593130031980449,-0.7171914952489035
11.60099999999901,0.5830588259749425,-0.7438450741392812
11.800999999998899,0.5787056378240353,-0.7721574881164758
12.000999999998788,0.5671526442554944,-0.7975547334527942
12.200999999998677,0.5509633956092231,-0.8251404122672885
12.400999999998566,0.5401222546739611,-0.850019475664305
12.600999999998455,0.5304851870883383,-0.8716334891412688
12.800999999998345,0.5206683369450328,-0.8997812430487391
13.000999999998234,0.501039326496739,-0.9295253227053196
13.200999999998123,0.4920432942207786,-0.9595261437994426
13.400999999998012,0.4828973762850193,-0.9849374630426233
13.600999999997901,0.4734472895634694,-1.004409045421391
13.80099999999779,0.45803304940198847,-1.0250444552937574
14.00099999999768,0.442097102760522,-1.0501791365387125
14.200999999997569,0.42834969614809476,-1.0724536955800081
14.400999999997458,0.40983370688069276,-1.0928835864189783
14.600999999997347,0.3848416829400529,-1.1154989126381702
14.800999999997236,0.36214508974704135,-1.1340944068948393
15.000999999997125,0.3439530210276735,-1.1488302203735337
15.200999999997014,0.3228862573132286,-1.1582529911802952
15.400999999996904,0.28851138008721555,-1.163318581206633
15.600999999996793,0.2562799892724324,-1.1640083030633799
15.800999999996682,0.22023315841037247,-1.1604906113709934
16.000999999996573,0.1908480380121826,-1.1533643951319166
16.200999999996817,0.16820041191280555,-1.1496963426495421
16.40099999999706,0.14592974134830733,-1.1431629502689826
16.600999999997306,0.11904862912291841,-1.1404712219344249
16.80099999999755,0.08540557138955632,-1.1301698411220564
17.000999999997795,0.054538109447550547,-1.1226396356653656
17.20099999999804,0.027092385822904595,-1.1175761021574888
17.400999999998284,0.0015870515522737173,-1.1123988879291
17.60099999999853,-0.022395692735813485,-1.1000300823002893
17.800999999998773,-0.05116504874613969,-1.0917141606510368
18.000999999999017,-0.07925280676483476,-1.0776823457331453
18.20099999999926,-0.10826939545124042,-1.0608508141462045
18.400999999999506,-0.12989084389607214,-1.0448682720794722
18.60099999999975,-0.15511630684207525,-1.025614852071703
18.799999999999994,-0.17788162332496896,-1.0069646978577265
19.000000000000238,-0.19766745425789178,-1.0006325676175312
19.200000000000482,-0.21151673864183954,-0.977742937056821
19.400000000000727,-0.22223571269969697,-0.9557363818852639
19.60000000000097,-0.23224122445458698,-0.9258482680007474
19.800000000001216,-0.2328376284562304,-0.893291909123442
20.00000000000146,-0.23282162842224702,-0.8662464705633273
