Time (s),X (m),Y (m)
0.001,-0.000795421750936344,0.00017906049427360518
0.20000000000000015,0.0016798866970494217,-0.0010024382838860375
0.4000000000000003,-0.006637273344261597,0.002650973149344331
0.6000000000000004,0.0021949726211279524,0.0011428631315921766
0.8000000000000006,0.01126689075947846,-0.0018253052820057427
1.0000000000000007,0.029368562495081105,-0.009724208020182253
1.2009999999999785,0.05041659231465349,-0.015875254440415085
1.4009999999999565,0.07083760171247125,-0.02022135913759326
1.6009999999999345,0.09319790284124106,-0.0249352426723968
1.8009999999999124,0.12606073451473243,-0.0342125380503982
2.0009999999998906,0.15425669986996282,-0.04828512075221836
2.2009999999998686,0.16256422979341498,-0.07344307745284276
2.4009999999998466,0.1634942713557816,-0.10495508744644554
2.6009999999998246,0.16797942376649264,-0.1318505763951304
2.8009999999998025,0.1626406464086041,-0.16665102978500018
3.0009999999997805,0.13530509963808685,-0.20172226113155167
3.2009999999997585,0.09988051923706395,-0.2291915909527578
3.4009999999997365,0.060511994090533636,-0.24516321073772343
3.6009999999997144,0.013519191277243933,-0.2418590351413691
3.8009999999996924,-0.03260235201343102,-0.23512611836796918
4.000999999999671,-0.07542804357918076,-0.2108528976728195
4.200999999999738,-0.09864418909626746,-0.1656126313826047
4.400999999999804,-0.10421033583180556,-0.12540998857426353
4.600999999999871,-0.10421648117287216,-0.09132378296180844
4.800999999999938,-0.0888297275038194,-0.052294021698715
5.000000000000004,-0.06198873515515881,-0.006458506751493045
5.200000000000071,-0.021518815166415704,0.035411902274255905
5.400000000000138,0.02489952488062703,0.05803956541201185
5.600000000000205,0.07044746545403935,0.060534473789530974
5.800000000000272,0.1327909981717651,0.04343058507893125
6.000000000000338,0.19590744221906492,0.018267309847922176
6.200000000000405,0.25941739069511,-0.01260886668037514
6.400000000000472,0.328382023680746,-0.05372933288242951
6.600000000000539,0.39535617150778946,-0.10652551145076261
6.800000000000606,0.4480598108575125,-0.14934037928416075
7.000000000000672,0.4752971064199124,-0.18919178179503784
7.200000000000739,0.4753644389918593,-0.22816007226896545
7.400000000000806,0.46057496412679244,-0.27425714431251363
7.600000000000873,0.4379515535600773,-0.32268357578225026
7.8000000000009395,0.40898449993360325,-0.37882176090645114
8.000000000001005,0.3770952476260587,-0.4370105516107821
8.200000000000895,0.34124761006598997,-0.4990070358125321
8.400000000000784,0.29208120018748485,-0.5395654057557085
8.600000000000673,0.2420238791449712,-0.5537634366604114
8.800000000000562,0.19570940802307948,-0.5492502028958237
9.000000000000451,0.14430770892031625,-0.5286824756589084
9.20000000000034,0.10028412976986376,-0.5014084678836451
9.40000000000023,0.0801623471775995,-0.46262333344983375
9.600000000000119,0.0798703159966335,-0.4188320721651353
9.800000000000008,0.08870662108719868,-0.36763855876221363
10.000999999999896,0.10072844527914099,-0.31666163072101905
10.200999999999786,0.12818630910612258,-0.2625039635517147
10.400999999999675,0.16995231241660205,-0.20148548378064113
10.600999999999564,0.23128612347099123,-0.1537063568328384
10.800999999999453,0.278437782316761,-0.12871509552004312
11.000999999999342,0.31739762449895753,-0.11584418052409019
11.200999999999231,0.35950090988158173,-0.11853759707399891
11.40099999999912,0.4024599479692616,-0.1378844236597152
11.60099999999901,0.4445302844154615,-0.17110999875729374
11.800999999998899,0.48770669098582786,-0.20682693751889758
12.000999999998788,0.5278456252838513,-0.2564613210049567
12.200999999998677,0.554119239005675,-0.31521970889165757
12.400999999998566,0.5604055629166784,-0.37278194460362696
12.600999999998455,0.5502567289745174,-0.4306985910848711
12.800999999998345,0.5186856461759999,-0.4827272072645276
13.000999999998234,0.48672098294033017,-0.5127813288303574
13.200999999998123,0.445749030229768,-0.5163859635449946
13.400999999998012,0.3981373566578872,-0.49856992047497445
13.600999999997901,0.35464789646267564,-0.4644169509667401
13.80099999999779,0.33188823567947934,-0.4266000574355158
14.00099999999768,0.32123823870956475,-0.3886349686371837
14.200999999997569,0.32674583304072924,-0.3500767642366553
14.400999999997458,0.36018465060327715,-0.31695596298931517
14.600999999997347,0.4042681762478206,-0.3026191889743468
14.800999999997236,0.4498045695176405,-0.3010214332106111
15.000999999997125,0.4975186459492506,-0.31018619287164223
15.200999999997014,0.5363950546927155,-0.32246544936864796
15.400999999996904,0.5798352990804001,-0.3420372168679158
15.600999999996793,0.6365931276873095,-0.36715701702612574
15.800999999996682,0.6920369304328272,-0.398232996712677
16.000999999996573,0.7460005217166124,-0.437040095210288
16.200999999996817,0.7986068389980564,-0.48021155604108867
16.40099999999706,0.8293623009771546,-0.5410304356397132
16.600999999997306,0.8405260943475067,-0.6005870732789756
16.80099999999755,0.8378082055345326,-0.6612890110465095
17.000999999997795,0.8232563937792201,-0.7205804800233976
17.20099999999804,0.7925046381499655,-0.779625931230909
17.400999999998284,0.7544951581888358,-0.8388469841679047
17.60099999999853,0.7213579771385957,-0.9011643408727995
17.800999999998773,0.6886502574146715,-0.964249230582022
18.000999999999017,0.6516247581170013,-1.0270532436280666
18.20099999999926,0.6078201278929791,-1.0874772571105649
18.400999999999506,0.5492619984456286,-1.1453103056459715
18.60099999999975,0.47246679648394246,-1.1817149696309837
18.799999999999994,0.4021124985519982,-1.1935138152173328
19.000000000000238,0.3344713435572335,-1.1753448557704105
19.200000000000482,0.26585490070153484,-1.1440418055086512
19.400000000000727,0.2222549018828093,-1.0985361471235529
19.60000000000097,0.2069325538889688,-1.0418544453461482
19.800000000001216,0.20818049989377319,-0.9877600059204009
20.00000000000146,0.21483007473850624,-0.9405149952960001
