Time (s),X (m),Y (m)
0.001,-0.0005090653149319316,0.0007291460897812449
0.20000000000000015,0.0037487196428922587,-0.0014482168473898107
0.4000000000000003,0.009746044513793104,0.004230220436375718
0.6000000000000004,0.028634691039876068,0.010543462376883882
0.8000000000000006,0.06027058097199546,0.020228913156823597
1.0000000000000007,0.08513818510600349,0.025231018234592936
1.2009999999999785,0.11887461221263268,0.035642759831279895
1.4009999999999565,0.15883772329519646,0.040119177501498404
1.6009999999999345,0.20421266975180746,0.03717346530071359
1.8009999999999124,0.2450238080510956,0.019359218228900694
2.0009999999998906,0.2729056422437304,-0.020924998930478396
2.2009999999998686,0.2873430602482839,-0.06853604180791902
2.4009999999998466,0.2989649861482813,-0.11493732400782614
2.6009999999998246,0.2876942630536643,-0.14953434478889102
2.8009999999998025,0.25896861146429645,-0.17532086554400111
3.0009999999997805,0.2156380010886727,-0.17489462323287797
3.2009999999997585,0.1719233803298574,-0.16487856746631235
3.4009999999997365,0.14742068543856457,-0.1308299259841686
3.6009999999997144,0.12493830845505417,-0.09470746900571468
3.8009999999996924,0.11877731669434151,-0.05644808377513348
4.000999999999671,0.13257536520594385,-0.00955851005760942
4.200999999999738,0.15078350940360663,0.038239740564494744
4.400999999999804,0.1763500509159572,0.07437630899753958
4.600999999999871,0.2130792075662226,0.08237333688847309
4.800999999999938,0.2499968715263024,0.09196353358908266
5.000000000000004,0.28165446393176713,0.09174588279342401
5.200000000000071,0.30088495247451835,0.07054556733982024
5.400000000000138,0.31576601937442894,0.03829851476795706
5.600000000000205,0.3349679164801286,0.0029619980833108864
5.800000000000272,0.3256561939292178,-0.03833672993586093
6.000000000000338,0.2979403432599243,-0.0719945709829645
6.200000000000405,0.25589300497411455,-0.08959035723114045
6.400000000000472,0.20521123140560393,-0.09228621750452129
6.600000000000539,0.15213923663891568,-0.0838698440976621
6.800000000000606,0.10936539343399593,-0.06545990660956177
7.000000000000672,0.08388635838187741,-0.0315719522992712
7.200000000000739,0.07167199770964389,0.012004977526837565
7.400000000000806,0.08081164427393636,0.05146485764431654
7.600000000000873,0.10846840816072129,0.07306789442118178
7.8000000000009395,0.1510875341403895,0.08424868639106603
8.000000000001005,0.19747340777000982,0.09249917785846035
8.200000000000895,0.24888763294492228,0.10738561414586975
8.400000000000784,0.3081467650067767,0.11618070595956298
8.600000000000673,0.3728086877625696,0.10349818010651766
8.800000000000562,0.4438758332942339,0.0733717022812685
9.000000000000451,0.4978705669354782,0.013825622110228178
9.20000000000034,0.5246232581366517,-0.058954237182782844
9.40000000000023,0.537192633439871,-0.12728882490305227
9.600000000000119,0.534662302877888,-0.1893002580398405
9.800000000000008,0.5003650679500248,-0.23039067503326777
10.000999999999896,0.4567628889487052,-0.25597502172285796
10.200999999999786,0.4038489736684912,-0.2582350102308348
10.400999999999675,0.3511864777635387,-0.2524602887944376
10.600999999999564,0.3227258519190441,-0.21733060886771416
10.800999999999453,0.31667784264359233,-0.16211963881825364
11.000999999999342,0.3243242031955546,-0.10031008425218624
11.200999999999231,0.3297045224395467,-0.03920691217624285
11.40099999999912,0.34452715519295046,0.029548098695077792
11.60099999999901,0.36692661556110745,0.09223462795593
11.800999999998899,0.39427049410027326,0.1432968505715379
12.000999999998788,0.4273906882590223,0.18197300341734715
12.200999999998677,0.4689454681131596,0.19983451448954442
12.400999999998566,0.5208970366445487,0.19407592422512107
12.600999999998455,0.5667178611411089,0.1598126661152019
12.800999999998345,0.5867468963000527,0.11078660909094033
13.000999999998234,0.5871337109649848,0.05225008786406587
13.200999999998123,0.5602893904606469,-0.00580861952827136
13.400999999998012,0.5171245711029265,-0.04316752843960904
13.600999999997901,0.4630821558260053,-0.06155076816102821
13.80099999999779,0.41527016290244984,-0.055538244413137504
14.00099999999768,0.3954239687548302,-0.009674034809101081
14.200999999997569,0.3843932319283574,0.04601925580641797
14.400999999997458,0.37132971465592757,0.10628166618738323
14.600999999997347,0.36211111389100753,0.17420554872982458
14.800999999997236,0.36609404669461715,0.24528196657625306
15.000999999997125,0.38334301120332054,0.3175521299096253
15.200999999997014,0.42670481404472277,0.38167427719250924
15.400999999996904,0.4828013621340677,0.4269530964130887
15.600999999996793,0.5432381173131646,0.45613950439118456
15.800999999996682,0.5951016483892847,0.45921059117942653
16.000999999996573,0.6186790733880972,0.42593071722356385
16.200999999996817,0.6255130217988928,0.38026987090993036
16.40099999999706,0.6160923680278707,0.32963559392847036
16.600999999997306,0.5855645550878659,0.2784867568988652
16.80099999999755,0.5316685862593084,0.24432473631962065
17.000999999997795,0.46073233326980406,0.228023148252489
17.20099999999804,0.39908031142981265,0.22659566104854623
17.400999999998284,0.34692779544297275,0.248983475002145
17.60099999999853,0.30720631191221365,0.28154470252083735
17.800999999998773,0.280868136470212,0.3280439938262832
18.000999999999017,0.2657015409040468,0.37926876082864014
18.20099999999926,0.28014350745344796,0.4421916388481085
18.400999999999506,0.3124292778472063,0.5091255967896633
18.60099999999975,0.3458187453631257,0.5743910816727975
18.799999999999994,0.3913677780786091,0.6198015281216923
19.000000000000238,0.44416044039101205,0.6355858590737148
19.200000000000482,0.5015815386463346,0.6279196227441133
19.400000000000727,0.5344289266949654,0.6001769111105534
19.60000000000097,0.5480212395431806,0.5548163761337447
19.800000000001216,0.5364724816768096,0.5031603255186516
20.00000000000146,0.5218141155203846,0.4494757490985584
