Time (s),X (m),Y (m)
0.001,0.000949226864630559,-0.0007291460897812452
0.20000000000000015,0.0009311960844259687,0.0018611231439499035
0.4000000000000003,0.01252263535993995,0.013082580293465545
0.6000000000000004,0.02614698485862159,0.03691513475629418
0.8000000000000006,0.041146547686948906,0.06161905100326933
1.0000000000000007,0.072654103694193,0.05887328749945295
1.2009999999999785,0.10632952784259268,0.06146412811235435
1.4009999999999565,0.1505728023710041,0.07417913843349734
1.6009999999999345,0.19051437959246864,0.08302270954860687
1.8009999999999124,0.22742961300783968,0.0995887701644808
2.0009999999998906,0.27523051721460967,0.10945044478628435
2.2009999999998686,0.31873228689584454,0.11879647755733465
2.4009999999998466,0.3620959706760946,0.12679788294077277
2.6009999999998246,0.4108197516456386,0.12744753711604806
2.8009999999998025,0.4527218001115018,0.11306210248212054
3.0009999999997805,0.4785971313269325,0.08737017213216329
3.2009999999997585,0.4941113669303796,0.058454831473855766
3.4009999999997365,0.4836660508507305,0.02646389493007553
3.6009999999997144,0.4590931713399593,-0.013110981980959635
3.8009999999996924,0.4206414746866308,-0.04914600251420364
4.000999999999671,0.37413380275587305,-0.07272964449519012
4.200999999999738,0.32156322578198193,-0.07781332257881116
4.400999999999804,0.2697426335144385,-0.05893637896154273
4.600999999999871,0.23300671305996642,-0.007974589934716787
4.800999999999938,0.2095728587938985,0.054326710718352066
5.000000000000004,0.19431548248049693,0.11726235197467327
5.200000000000071,0.2083798471510143,0.1811547626599058
5.400000000000138,0.2406995886560916,0.2342389879398056
5.600000000000205,0.27559476798104887,0.27804730396677035
5.800000000000272,0.32634516723852325,0.31281652606030036
6.000000000000338,0.3786306363933542,0.3424247346768291
6.200000000000405,0.44003120483677677,0.3688433548261552
6.400000000000472,0.4927379161450614,0.3969822725771772
6.600000000000539,0.5445822987227643,0.4188015629448026
6.800000000000606,0.6065913703648168,0.4251397086589038
7.000000000000672,0.6774520290573579,0.4195106111920016
7.200000000000739,0.7524400161047929,0.409675641829632
7.400000000000806,0.8298653664359772,0.39912111909146514
7.600000000000873,0.9076620204986384,0.3891714401646477
7.8000000000009395,0.9856612315164015,0.3718273973834701
8.000000000001005,1.0723878349429121,0.33870544870565883
8.200000000000895,1.1590086631246026,0.290447399328303
8.400000000000784,1.2418122465633403,0.25005360694644974
8.600000000000673,1.3158198181030631,0.20337029312202065
8.800000000000562,1.374432978963516,0.13278378138165992
9.000000000000451,1.4173871447450141,0.07103670614117202
9.20000000000034,1.4439734218861346,0.007589476720912053
9.40000000000023,1.4668252364775547,-0.05553659967985125
9.600000000000119,1.4849529902339516,-0.12381753714975599
9.800000000000008,1.4992175411630648,-0.19029440111117232
10.000999999999896,1.467497611700381,-0.25178706020952457
10.200999999999786,1.415333594210526,-0.29223362953340726
10.400999999999675,1.3606413912435495,-0.30607579341955793
10.600999999999564,1.3135921956242997,-0.2948654316082148
10.800999999999453,1.2874149039715845,-0.2571864373278504
11.000999999999342,1.284020456390618,-0.20144980182397113
11.200999999999231,1.2903174214732787,-0.14523534029972457
11.40099999999912,1.3136237248313307,-0.08438553324954771
11.60099999999901,1.335272328955282,-0.02496340642655289
11.800999999998899,1.3864337865943492,0.012887494165622055
12.000999999998788,1.4423192540247542,0.0320965725747565
12.200999999998677,1.503881026989929,0.0157107201219533
12.400999999998566,1.554535619707336,-0.025719979724168635
12.600999999998455,1.5937668218980006,-0.06770013678609205
12.800999999998345,1.6161191580797722,-0.11364248898330481
13.000999999998234,1.6159772307308173,-0.16261342258729336
13.200999999998123,1.6021278126588743,-0.2103860339357079
13.400999999998012,1.5688465055964604,-0.24705395746129513
13.600999999997901,1.5234903091634258,-0.2605525794824605
13.80099999999779,1.4698871803194722,-0.26289174450436953
14.00099999999768,1.4207439261120045,-0.24731431322632366
14.200999999997569,1.3956027721223234,-0.20282939040265097
14.400999999997458,1.3809375926525853,-0.1525156371540332
14.600999999997347,1.3758427318837594,-0.09685886776066771
14.800999999997236,1.3695719052458681,-0.03648899267652083
15.000999999997125,1.369388224748668,0.02615226828579952
15.200999999997014,1.3864809921552177,0.0891997589346962
15.400999999996904,1.4171528098063726,0.14033748019678388
15.600999999996793,1.462871122117236,0.16825697764502912
15.800999999996682,1.5175172347603938,0.16884219154411267
16.000999999996573,1.5729895407094079,0.15317917244802798
16.200999999996817,1.6237834162220404,0.12217790653474915
16.40099999999706,1.6615259056593588,0.07329134888640833
16.600999999997306,1.6687740274675757,0.02569190959480993
16.80099999999755,1.650755325154879,-0.02191323135691474
17.000999999997795,1.612750695494579,-0.05498483095427805
17.20099999999804,1.5618181786555247,-0.06837727867836271
17.400999999998284,1.5094824996385887,-0.06671697332502954
17.60099999999853,1.4728060300979988,-0.03802447967629302
17.800999999998773,1.4541440510710981,0.007368457931604098
18.000999999999017,1.4513685818862756,0.06331446644912948
18.20099999999926,1.464646157364332,0.117414249358514
18.400999999999506,1.492974067923085,0.1593887798957739
18.60099999999975,1.528938764178005,0.1876359603912489
18.799999999999994,1.5700865198301073,0.20199511589252783
19.000000000000238,1.6091005443642596,0.19671371639539223
19.200000000000482,1.6448334223600067,0.17887271441779426
19.400000000000727,1.6622516581745839,0.1320997459058024
19.60000000000097,1.6686365369543446,0.0758695368475921
19.800000000001216,1.6748903161922613,0.020572996101175287
20.00000000000146,1.6730680928267043,-0.042252842513694856
