Time (s),X (m),Y (m)
0.001,0.0003991412691229187,-0.0010155025257856578
0.20000000000000015,0.0018423016440437152,0.0009870679789118993
0.4000000000000003,0.01385851723615266,0.0010085675224801526
0.6000000000000004,0.036706136604151035,-0.007299991526538899
0.8000000000000006,0.07188508061301609,-0.02233003766816634
1.0000000000000007,0.11063716642171742,-0.05444495678403233
1.2009999999999785,0.1695882965185784,-0.08961965675845829
1.4009999999999565,0.21859346208378586,-0.14120267068911346
1.6009999999999345,0.2672458813968048,-0.20141291826739588
1.8009999999999124,0.30633641282347557,-0.26833130512945014
2.0009999999998906,0.3293476830766422,-0.34615321048152337
2.2009999999998686,0.3242123295919087,-0.41986930761450975
2.4009999999998466,0.2990475504389269,-0.4772464559002565
2.6009999999998246,0.25700607023067157,-0.4988775521612719
2.8009999999998025,0.22517432249732275,-0.4920712449477638
3.0009999999997805,0.22963028208073802,-0.4647604794464084
3.2009999999997585,0.26203076639002876,-0.4230548106388586
3.4009999999997365,0.30411466065008586,-0.36548459579264886
3.6009999999997144,0.34737532193005527,-0.3220248938057819
3.8009999999996924,0.4011122435562421,-0.3149016975116285
4.000999999999671,0.4687527069313723,-0.3332398395877289
4.200999999999738,0.5367609309786859,-0.36435592712920284
4.400999999999804,0.6071822763931798,-0.41051370225162015
4.600999999999871,0.6571189580987956,-0.46787971362329844
4.800999999999938,0.6844380990176534,-0.538717221018353
5.000000000000004,0.684341537822747,-0.622011105121772
5.200000000000071,0.6626973569565722,-0.7096911622911252
5.400000000000138,0.6405889520936612,-0.803918707768732
5.600000000000205,0.6074865000808785,-0.8825891984382238
5.800000000000272,0.5533324217553234,-0.915808872133933
6.000000000000338,0.4862163913292812,-0.9053710132359709
6.200000000000405,0.40332755700819706,-0.8882515811284255
6.400000000000472,0.31263735416832705,-0.8577719435420675
6.600000000000539,0.2166981070398558,-0.8213713903504224
6.800000000000606,0.11337445111614246,-0.7789146685434224
7.000000000000672,0.005276478579816796,-0.7383308489828002
7.200000000000739,-0.07701930324834709,-0.6809358738550012
7.400000000000806,-0.14561018326158692,-0.6193650779094341
7.600000000000873,-0.21120662939783738,-0.546129095789872
7.8000000000009395,-0.23645520437359246,-0.4646757507642555
8.000000000001005,-0.23333186427438873,-0.37667121553841154
8.200000000000895,-0.20669731291403312,-0.28736945659808627
8.400000000000784,-0.14527256384072404,-0.21091002441671633
8.600000000000673,-0.08282318306357607,-0.12129271287566108
8.800000000000562,-0.018790702795795183,-0.03843901547252728
9.000000000000451,0.05861552357690729,0.00730679977627636
9.20000000000034,0.14423472203173876,0.04382543818637321
9.40000000000023,0.2329668989024058,0.08784161477482723
9.600000000000119,0.33398749020551005,0.11441195217603889
9.800000000000008,0.42496072236375504,0.10404420385732069
10.000999999999896,0.48702739990921173,0.06882975864052933
10.200999999999786,0.4894716362323656,0.021512391663805447
10.400999999999675,0.44747738317261143,-0.025615072722669135
10.600999999999564,0.3844478019981864,-0.07705337155760345
10.800999999999453,0.31363596255260356,-0.13574511413847415
11.000999999999342,0.2358129817930711,-0.17098275290490828
11.200999999999231,0.15309020515575084,-0.16707977885121297
11.40099999999912,0.0712876189088411,-0.14123638157387172
11.60099999999901,0.029577812393487394,-0.09607647475204022
11.800999999998899,0.0014027602814505693,-0.020629951127575243
12.000999999998788,-0.006140367893081674,0.07462214065386809
12.200999999998677,0.028691559423951567,0.15335492106113163
12.400999999998566,0.08157084329673493,0.22492887227348826
12.600999999998455,0.14529585953739002,0.28080498557044925
12.800999999998345,0.21316845631276884,0.3205063356708127
13.000999999998234,0.28242834442394105,0.3383266383907876
13.200999999998123,0.3619575356869838,0.3368871284177607
13.400999999998012,0.4546418339593559,0.32013077277452834
13.600999999997901,0.5395026340368949,0.28019693449488203
13.80099999999779,0.6067879682341465,0.2248074116902674
14.00099999999768,0.6228056531351526,0.1604211992162968
14.200999999997569,0.6010707885406396,0.09397219980231615
14.400999999997458,0.5627354403221091,0.02407363487311391
14.600999999997347,0.5105340378671633,-0.023064421082327577
14.800999999997236,0.4592837978008438,-0.0271882537791157
15.000999999997125,0.4143462451344266,-0.007187654191320285
15.200999999997014,0.39804235767590185,0.03352800172853184
15.400999999996904,0.41573176086032404,0.08154809077880643
15.600999999996793,0.4474744108425267,0.12987014046409506
15.800999999996682,0.4970787287523564,0.17787692326596727
16.000999999996573,0.5649318723230067,0.2036953873696357
16.200999999996817,0.6384683021664942,0.19018527898318024
16.40099999999706,0.7143994718967503,0.1546990729960036
16.600999999997306,0.7992712975285858,0.1135104899573904
16.80099999999755,0.8674181653467186,0.06272828118717567
17.000999999997795,0.9007984973589876,-0.004764880266323824
17.20099999999804,0.8982402115859246,-0.08381541868843975
17.400999999998284,0.8775255788099463,-0.15580184038084263
17.60099999999853,0.8335354462102296,-0.19516177958490633
17.800999999998773,0.7667904303297481,-0.19863660907005398
18.000999999999017,0.6977429269440298,-0.17824579924812542
18.20099999999926,0.6330557474076419,-0.13757367509081744
18.400999999999506,0.5990239915827859,-0.07491986772544948
18.60099999999975,0.597746758112938,-0.012246711783990494
18.799999999999994,0.6191742885131741,0.03963944064798389
19.000000000000238,0.6590258664830133,0.04605269613302806
19.200000000000482,0.7026868285995485,0.032714770867260205
19.400000000000727,0.7313919417123036,0.00024495218162641947
19.60000000000097,0.7336001080990526,-0.0615646020399294
19.800000000001216,0.7105786218777415,-0.12460623513201075
20.00000000000146,0.6695952919295849,-0.18628806965117226
