Time (s),X (m),Y (m)
0.001,0.0002200807748493132,-0.0010311682891199468
0.20000000000000015,0.0021583629260908156,-0.0005405109088330613
0.4000000000000003,0.010387791267334284,-0.001806676813569595
0.6000000000000004,0.02804593785312284,-0.011188797658908293
0.8000000000000006,0.057656728777151646,-0.027430465612913877
1.0000000000000007,0.0946883066093835,-0.04666379888983516
1.2009999999999785,0.1274203528231762,-0.07658216357724942
1.4009999999999565,0.14478673080886995,-0.1169070125195479
1.6009999999999345,0.13611722177783092,-0.16065141306917802
1.8009999999999124,0.11583514879956093,-0.21283233397545612
2.0009999999998906,0.08254788070067445,-0.25785044480030506
2.2009999999998686,0.04322510611217299,-0.2911119631719615
2.4009999999998466,0.008049843914703717,-0.28662558183915143
2.6009999999998246,-0.0030978561907175134,-0.2637074383703224
2.8009999999998025,0.0004547638175017597,-0.22911951969209715
3.0009999999997805,0.00014115481399190158,-0.17834930870972074
3.2009999999997585,0.016655563226027188,-0.12794581035147162
3.4009999999997365,0.03782601832721629,-0.07699641588666253
3.6009999999997144,0.07465860862613787,-0.027918402422292068
3.8009999999996924,0.12297151799292391,-0.008021540081528809
4.000999999999671,0.17494668413766307,-0.023594030077285333
4.200999999999738,0.23099578072709595,-0.04285397081601078
4.400999999999804,0.2979562784517657,-0.06662572369503049
4.600999999999871,0.3609735083303177,-0.10289366068792144
4.800999999999938,0.4198001603407434,-0.15793178570991012
5.000000000000004,0.4520777269247926,-0.21047998470225313
5.200000000000071,0.4554399209590407,-0.24885968345251086
5.400000000000138,0.43330665848604655,-0.26602187191675364
5.600000000000205,0.3984037962813905,-0.25345049534746167
5.800000000000272,0.3551651753010012,-0.228772997599506
6.000000000000338,0.32723810982098883,-0.19844831190666534
6.200000000000405,0.3118057591292124,-0.14608047361115442
6.400000000000472,0.29640730872959486,-0.08035933106967608
6.600000000000539,0.3033669304722029,-0.01791207920989161
6.800000000000606,0.32284435913554616,0.04661534871732487
7.000000000000672,0.35557442912000314,0.09379434521365428
7.200000000000739,0.401372816679627,0.11427870987769398
7.400000000000806,0.437853954990378,0.1151649513511288
7.600000000000873,0.4505000980489747,0.08578635105195337
7.8000000000009395,0.44148299967211363,0.04693826667228907
8.000000000001005,0.4146819595806036,0.013402423642192785
8.200000000000895,0.36390156788686306,-0.0062454303127768935
8.400000000000784,0.3059677742579246,-0.0039131832352001655
8.600000000000673,0.23878161581124677,0.005576305034832488
8.800000000000562,0.18255326439939343,0.027559700796501982
9.000000000000451,0.13878136862014184,0.06755153284110237
9.20000000000034,0.10680523192568188,0.13134078690565135
9.40000000000023,0.10027125437619876,0.20837705296713419
9.600000000000119,0.11310356809642384,0.27303557187768107
9.800000000000008,0.13917253777387628,0.31337645927376967
10.000999999999896,0.16130407852898895,0.32602783407451225
10.200999999999786,0.16643304735073028,0.3093252905982561
10.400999999999675,0.16344682305421382,0.2681322856250231
10.600999999999564,0.15101915122996862,0.2244946465139955
10.800999999999453,0.13016708572493763,0.19041862511924537
11.000999999999342,0.09654858666594307,0.17179176091595735
11.200999999999231,0.04448073688134396,0.1759384391775489
11.40099999999912,-0.017808297784576852,0.19487987179851549
11.60099999999901,-0.06155283195312908,0.22330327183648888
11.800999999998899,-0.08377622999573853,0.26736071253230115
12.000999999998788,-0.09041058543426413,0.3225490088471825
12.200999999998677,-0.08148807908395027,0.37448778136835503
12.400999999998566,-0.05771184820064462,0.408250089965958
12.600999999998455,-0.02296906875692756,0.41309237682374267
12.800999999998345,0.002147049771135365,0.3948897527598761
13.000999999998234,0.024941118869811776,0.35292461470109066
13.200999999998123,0.04540188676090229,0.2931641196375201
13.400999999998012,0.05114741599965395,0.23082872568759377
13.600999999997901,0.039996808235497276,0.20169453147074076
13.80099999999779,0.01991241554217846,0.1985182062791897
14.00099999999768,0.00889712543561332,0.21539007990185619
14.200999999997569,0.008898752859919517,0.24281172336852408
14.400999999997458,0.024088455088864705,0.2633310578325379
14.600999999997347,0.05435840408083784,0.25830588668336124
14.800999999997236,0.10003268772126755,0.23882195568635994
15.000999999997125,0.12075192041817741,0.2070605636014855
15.200999999997014,0.12339677621129569,0.1645605570562046
15.400999999996904,0.11144790703920582,0.12047422310909041
15.600999999996793,0.09263587027034334,0.0642321245270673
15.800999999996682,0.05846154668479622,0.03184085532795601
16.000999999996573,0.012920771834465567,0.032201648262563554
16.200999999996817,-0.04246224577958461,0.045826636707116404
16.40099999999706,-0.09962329920738357,0.06960774653043407
16.600999999997306,-0.13321544107248995,0.11035451658887425
16.80099999999755,-0.13192348859134506,0.15496353971009408
17.000999999997795,-0.12338810825372501,0.2029140490889355
17.20099999999804,-0.09679082772380071,0.2589478651310464
17.400999999998284,-0.05632242181249545,0.29074166908379023
17.60099999999853,-0.03457181820163722,0.30358358775663685
17.800999999998773,-0.03673674334716923,0.29412458807532954
18.000999999999017,-0.05222874405295929,0.25449842411955337
18.20099999999926,-0.08521229748023226,0.2014426272221144
18.400999999999506,-0.141338663409207,0.15899101787780096
18.60099999999975,-0.19621340408345253,0.139413113571205
18.799999999999994,-0.21186970701606095,0.14300552976247718
19.000000000000238,-0.20584431139736636,0.16724614810535063
19.200000000000482,-0.179836299276262,0.19891911994951594
19.400000000000727,-0.14661260925411437,0.21211298710724938
19.60000000000097,-0.11787165353015559,0.20501982387531578
19.800000000001216,-0.08849257502844678,0.18161501875714978
20.00000000000146,-0.05228283286810058,0.14455256691338
