Time (s),X (m),Y (m)
0.001,0.0006558713247593165,-0.0009345558501746678
0.20000000000000015,0.0014681666981819028,0.004692783310013674
0.4000000000000003,0.0051825442705074765,0.004431785550736469
0.6000000000000004,0.008080711745257709,0.01813629013920723
0.8000000000000006,0.0139895389697039,0.016460532405214782
1.0000000000000007,0.02897846572959851,0.015013442843608194
1.2009999999999785,0.05596595590224804,0.005016641818453199
1.4009999999999565,0.08418815802686963,0.0023829059334311417
1.6009999999999345,0.10596369533942489,-0.012477612112485225
1.8009999999999124,0.12839567725444886,-0.024569552091799455
2.0009999999998906,0.15478025964809594,-0.045472011911216
2.2009999999998686,0.18542047999963768,-0.05373273937774605
2.4009999999998466,0.21515500842220617,-0.06060588268859605
2.6009999999998246,0.24765219798459143,-0.07576030062709256
2.8009999999998025,0.26969254267472254,-0.10580893988752363
3.0009999999997805,0.28799981424349536,-0.13060892194612295
3.2009999999997585,0.3120279205319189,-0.14606097620326255
3.4009999999997365,0.332589327530201,-0.1484174302708932
3.6009999999997144,0.3569372601132397,-0.16111711276796986
3.8009999999996924,0.3808149473039059,-0.16623113898085126
4.000999999999671,0.40468382338469744,-0.1625837171561935
4.200999999999738,0.4326921369780992,-0.1716373875061105
4.400999999999804,0.4654549619190603,-0.16082927253095983
4.600999999999871,0.49970888420645865,-0.15741740445643754
4.800999999999938,0.5320569522267525,-0.1704411301285342
5.000000000000004,0.5678977718560299,-0.18803261912567745
5.200000000000071,0.5985723949106833,-0.2159208915009712
5.400000000000138,0.6104705785736703,-0.2604057002160987
5.600000000000205,0.6234033212929572,-0.301432587190793
5.800000000000272,0.6363469180049558,-0.3451214164279576
6.000000000000338,0.6563185841745468,-0.38507633352416987
6.200000000000405,0.6793056169381196,-0.4175011368692605
6.400000000000472,0.6982412987979433,-0.4552267814341656
6.600000000000539,0.705563679624386,-0.4941324923151323
6.800000000000606,0.6992015508885141,-0.5373643783557351
7.000000000000672,0.6890089796003142,-0.5807349853417073
7.200000000000739,0.6749186569984451,-0.6224197413329483
7.400000000000806,0.6726544887976712,-0.6627513349516322
7.600000000000873,0.6576858491394356,-0.7076878952610667
7.8000000000009395,0.6381591909000164,-0.7563153601856053
8.000000000001005,0.6214991329611984,-0.8048269558715034
8.200000000000895,0.5949999088129233,-0.8419657868379838
8.400000000000784,0.5706721393580751,-0.8745315925788022
8.600000000000673,0.5440781353850754,-0.901535149046424
8.800000000000562,0.500283246601471,-0.9207220573486194
9.000000000000451,0.4520532810515615,-0.9353483990733136
9.20000000000034,0.4015573493232058,-0.9410021199323707
9.40000000000023,0.3683036878400712,-0.9576753106136476
9.600000000000119,0.3381509313401235,-0.9802131383416226
9.800000000000008,0.2937394705247209,-0.9950658399473533
10.000999999999896,0.2551951990761711,-1.015832238603673
10.200999999999786,0.21937949689219174,-1.0382328756216523
10.400999999999675,0.18388095873226734,-1.0549795569100828
10.600999999999564,0.14707866399834968,-1.0702946278702201
10.800999999999453,0.11025450726898711,-1.0791683862005614
11.000999999999342,0.07214882533621073,-1.1023840327851206
11.200999999999231,0.03567993151463785,-1.1210669818691859
11.40099999999912,-0.011745015309468955,-1.1249522368213802
11.60099999999901,-0.05414301807493273,-1.1468432312024355
11.800999999998899,-0.09732862343165476,-1.1710351740200078
12.000999999998788,-0.1393789092587093,-1.1753872273469117
12.200999999998677,-0.1773404759300691,-1.1647370818340959
12.400999999998566,-0.21671890576844718,-1.1567337858217344
12.600999999998455,-0.26116974191856107,-1.1510169545532174
12.800999999998345,-0.30407865309758775,-1.1346485701851088
13.000999999998234,-0.3372162969892423,-1.1038996956292517
13.200999999998123,-0.3663654002947965,-1.0687709861938766
13.400999999998012,-0.39176849210031334,-1.0344126938214269
13.600999999997901,-0.41722593032678273,-0.9993845361332072
13.80099999999779,-0.4388747909793377,-0.9666461111772746
14.00099999999768,-0.45410098064535886,-0.9344738605030679
14.200999999997569,-0.455491235428293,-0.8949205446741408
14.400999999997458,-0.446785510294423,-0.8436199800741597
14.600999999997347,-0.44512687883516516,-0.7944372075477458
14.800999999997236,-0.4389991128715604,-0.7491957023483411
15.000999999997125,-0.4291867462791545,-0.7028603897246025
15.200999999997014,-0.41026224763351743,-0.664210146228931
15.400999999996904,-0.39906700968484066,-0.6242988656534579
15.600999999996793,-0.374485086790044,-0.5970662908549972
15.800999999996682,-0.3447167036180524,-0.5679690829871892
16.000999999996573,-0.31313422442260996,-0.5403358368436318
16.200999999996817,-0.27313145926449905,-0.5199454029916752
16.40099999999706,-0.24971361670640002,-0.4982549418181405
16.600999999997306,-0.2127046592225314,-0.4831462263966424
16.80099999999755,-0.17804645847775064,-0.46131010297256464
17.000999999997795,-0.15195475327845548,-0.4315491641272148
17.20099999999804,-0.12380135353273955,-0.40132850682269794
17.400999999998284,-0.09238078652636425,-0.36896702789042557
17.60099999999853,-0.05100542156297618,-0.34141637886581233
17.800999999998773,-0.0030793307320446917,-0.31553971676831344
18.000999999999017,0.03894862840767522,-0.2928250037958889
18.20099999999926,0.07187611952074381,-0.2653868883064697
18.400999999999506,0.11082350776050054,-0.24292653834300953
18.60099999999975,0.1484967951946203,-0.22660576025935358
18.799999999999994,0.1888350846718209,-0.21438475452452305
19.000000000000238,0.22936070761496805,-0.1982407854025861
19.200000000000482,0.2734255553860294,-0.18383444820229838
19.400000000000727,0.3196416609199616,-0.1761081757996604
19.60000000000097,0.3721912050449986,-0.17812858313867527
19.800000000001216,0.4219815900100113,-0.18191505585890497
20.00000000000146,0.46929131014874176,-0.19323357388807785
