Time (s),X (m),Y (m)
0.001,-0.0007489004572251305,-0.00035268032603768894
0.20000000000000015,0.008842897830405408,0.002240265534684154
0.4000000000000003,0.016272859587637356,0.006321286899622555
0.6000000000000004,0.027326669066909188,0.01925237430475804
0.8000000000000006,0.048522375681119646,0.0327209919156169
1.0000000000000007,0.05475366144556822,0.03664771216337928
1.2009999999999785,0.0656972450530097,0.03784930249965228
1.4009999999999565,0.060911079758951964,0.03319244385907603
1.6009999999999345,0.07573909702710149,0.032196083312370595
1.8009999999999124,0.09892478356545367,0.024271635551942054
2.0009999999998906,0.10678860041009619,0.01487161251573063
2.2009999999998686,0.11921891458188386,0.01217114410322417
2.4009999999998466,0.12672382192774637,0.009911363807052556
2.6009999999998246,0.13139997822066188,0.005784357833208779
2.8009999999998025,0.15837420019952544,-0.002674870736985285
3.0009999999997805,0.18000493035544862,-0.010801671040358616
3.2009999999997585,0.20329939089411866,-0.024395968820502885
3.4009999999997365,0.22519341466672504,-0.03994789795108377
3.6009999999997144,0.25173856353830126,-0.06034506273397075
3.8009999999996924,0.27250029933754377,-0.08273946997748971
4.000999999999671,0.2867219810597922,-0.10588277322440882
4.200999999999738,0.3001010526989944,-0.1225119374512908
4.400999999999804,0.32441298793358736,-0.13443326061099523
4.600999999999871,0.35064167092557874,-0.1532516689344255
4.800999999999938,0.36025370391814737,-0.16617136327775664
5.000000000000004,0.3723777488551767,-0.180039786665985
5.200000000000071,0.39485658672398793,-0.19434165643600662
5.400000000000138,0.42112047285089665,-0.20958874874160738
5.600000000000205,0.44185198746697907,-0.22427985733906247
5.800000000000272,0.46184523413586953,-0.24724521313758063
6.000000000000338,0.4858192586942357,-0.2677819780674426
6.200000000000405,0.5245571331903724,-0.2818009493178569
6.400000000000472,0.5502443584016726,-0.2919370689944258
6.600000000000539,0.5702828434651814,-0.30471614526876717
6.800000000000606,0.6102103811978465,-0.32410190830494745
7.000000000000672,0.6399539366668209,-0.3380125287378415
7.200000000000739,0.6740482673448248,-0.35350808368875714
7.400000000000806,0.6986742669590427,-0.37528519569607777
7.600000000000873,0.7202451652373952,-0.3927476612624286
7.8000000000009395,0.7320310459796641,-0.407269532191276
8.000000000001005,0.7480343531298129,-0.4229308911805057
8.200000000000895,0.7615429613144398,-0.43600836621384687
8.400000000000784,0.7815006571684493,-0.44333519668421073
8.600000000000673,0.7984175809429516,-0.45077932728004105
8.800000000000562,0.8233041055005645,-0.4561859510808722
9.000000000000451,0.8495844379018042,-0.46767745158950813
9.20000000000034,0.8841823433258577,-0.4746149537844019
9.40000000000023,0.9175638412746894,-0.48522492177793314
9.600000000000119,0.9516776414743021,-0.5032093490589555
9.800000000000008,0.9937419673037821,-0.5296744205843795
10.000999999999896,1.0210289356135873,-0.5625405973159763
10.200999999999786,1.0435787829289296,-0.5921406240991758
10.400999999999675,1.068222778610173,-0.6169576754590257
10.600999999999564,1.0864598412523985,-0.6357200928052332
10.800999999999453,1.1080228465766084,-0.6529880956818315
11.000999999999342,1.1318816523725626,-0.669043436419651
11.200999999999231,1.1622262048583107,-0.6855650613325829
11.40099999999912,1.1941014383239965,-0.7108702444257683
11.60099999999901,1.2386624504932666,-0.7356636413539556
11.800999999998899,1.2775057294609349,-0.7588936410947624
12.000999999998788,1.310385485428453,-0.7803186194187369
12.200999999998677,1.332242636571197,-0.798255624132855
12.400999999998566,1.344708499081583,-0.820713341705522
12.600999999998455,1.3648410790788637,-0.8413576779104541
12.800999999998345,1.4020206923038756,-0.8689816377846752
13.000999999998234,1.4345216552039146,-0.9005494131763767
13.200999999998123,1.4676364493041787,-0.9250841993689372
13.400999999998012,1.5092466307075139,-0.9456546250914986
13.600999999997901,1.5418739986711534,-0.9667870264543214
13.80099999999779,1.5706512614129309,-0.9894746672236054
14.00099999999768,1.5991413975152502,-1.006351590094855
14.200999999997569,1.6290368147554026,-1.0237756389696453
14.400999999997458,1.6561996251469902,-1.0399228462844787
14.600999999997347,1.6879453915296472,-1.051262113160931
14.800999999997236,1.7154770468559046,-1.0616692935468757
15.000999999997125,1.750510120694447,-1.0724095418029813
15.200999999997014,1.778651562005598,-1.0814003563616539
15.400999999996904,1.8190953249312574,-1.0914294986272006
15.600999999996793,1.850659773249537,-1.1077446966457396
15.800999999996682,1.867151162277477,-1.1305949391439862
16.000999999996573,1.8856441890900735,-1.1490656881119077
16.200999999996817,1.909768418759357,-1.168099752568196
16.40099999999706,1.9463238828621858,-1.1933835776158874
16.600999999997306,1.961694737667227,-1.2176695522871468
16.80099999999755,1.985590392997959,-1.236555163830002
17.000999999997795,2.018928339079275,-1.2581858212182264
17.20099999999804,2.0575945121948895,-1.2835651877951468
17.400999999998284,2.0996080038365594,-1.312252659010259
17.60099999999853,2.133125107053566,-1.3422424400658304
17.800999999998773,2.1703451327841083,-1.376009104220658
18.000999999999017,2.212094848898959,-1.4124430313413134
18.20099999999926,2.252898528879847,-1.449565780569401
18.400999999999506,2.288616146786913,-1.4915054947159465
18.60099999999975,2.3219732260185304,-1.535409146888959
18.799999999999994,2.355266151202439,-1.5824251008081698
19.000000000000238,2.3728619648817504,-1.6159924053520425
19.200000000000482,2.3800537022654424,-1.6455412178046884
19.400000000000727,2.3753974397596855,-1.6680857929202408
19.60000000000097,2.358301279652759,-1.6914897563572384
19.800000000001216,2.340067773011895,-1.7194131535240122
20.00000000000146,2.3182044761948433,-1.766954303841707
