Time (s),X (m),Y (m)
0.001,0.0009492268646305597,0.0007291460897812449
0.20000000000000015,0.0062831881143096905,0.004053985786955189
0.4000000000000003,0.010362404857999007,0.003709861586214011
0.6000000000000004,0.015470323745714106,0.008846505331958741
0.8000000000000006,0.01907491552055141,0.011681048972550213
1.0000000000000007,0.02647450419746888,0.013599045582824277
1.2009999999999785,0.03364108099658416,0.016427483704576657
1.4009999999999565,0.04083021266681853,0.018921143527213413
1.6009999999999345,0.04524390226015308,0.014340229154187105
1.8009999999999124,0.04998670798082311,0.0121106187331295
2.0009999999998906,0.05518725818578526,0.011729029591911645
2.2009999999998686,0.06157654790085898,0.016443009284257102
2.4009999999998466,0.06856296546282652,0.017919928853830102
2.6009999999998246,0.07508995052509082,0.01999612226835443
2.8009999999998025,0.08101119506237252,0.02145467799001422
3.0009999999997805,0.08744823272703225,0.024812199982823305
3.2009999999997585,0.09487760811334027,0.02948158346813567
3.4009999999997365,0.1003275911505758,0.0358816914761013
3.6009999999997144,0.1047872795984277,0.042591032322297925
3.8009999999996924,0.11063232664745146,0.04940428066787801
4.000999999999671,0.11686989150112351,0.0556029706305498
4.200999999999738,0.1246486110940044,0.06082806233731298
4.400999999999804,0.12854167536334543,0.06525941391978511
4.600999999999871,0.1340212440311912,0.06845999336099261
4.800999999999938,0.13626668977919015,0.07600463360741065
5.000000000000004,0.1397352070381164,0.08157266181929372
5.200000000000071,0.14126731625443353,0.08706625831040808
5.400000000000138,0.14276599116928382,0.0962279569313306
5.600000000000205,0.14440564498548664,0.10403296978018131
5.800000000000272,0.14548338757798435,0.10921021024627121
6.000000000000338,0.14573905861553796,0.11716796851312915
6.200000000000405,0.14505905802814287,0.12558594700410775
6.400000000000472,0.14427030105568764,0.13252434911902727
6.600000000000539,0.1425729872497642,0.1407723805098153
6.800000000000606,0.14133156135893968,0.14882719711125875
7.000000000000672,0.14150964173379899,0.15418356596825944
7.200000000000739,0.13875877609762957,0.16265492392629446
7.400000000000806,0.13621836639107715,0.17291431872596208
7.600000000000873,0.1354628075850906,0.18028999837374324
7.8000000000009395,0.13399684781496338,0.18838869455981452
8.000000000001005,0.1317497092802456,0.19678695009310562
8.200000000000895,0.1281705151949847,0.20532016521886207
8.400000000000784,0.12575640660147225,0.21340987529988686
8.600000000000673,0.12158243718572666,0.22085833144851294
8.800000000000562,0.116482171817506,0.22968157430142722
9.000000000000451,0.11275717345212988,0.23720631755343088
9.20000000000034,0.1060884482649525,0.244179844675026
9.40000000000023,0.10450534980003424,0.2520926521351746
9.600000000000119,0.09647224018875229,0.25960867735958243
9.800000000000008,0.09152641352940426,0.26932218443563855
10.000999999999896,0.08685258480099868,0.27641094248000164
10.200999999999786,0.07923350337803957,0.28235004173084727
10.400999999999675,0.07230368063651843,0.2879664506180257
10.600999999999564,0.06663944491032292,0.2935995143515905
10.800999999999453,0.06214252518004224,0.29921178187106673
11.000999999999342,0.05679253502017117,0.3039221550051292
11.200999999999231,0.04919349056030399,0.30734617717313556
11.40099999999912,0.041632972133671384,0.3105256254478381
11.60099999999901,0.03682451415925216,0.31364326558360467
11.800999999998899,0.028925395833030866,0.31724331374930503
12.000999999998788,0.020446516057090067,0.3185884436074975
12.200999999998677,0.014366670073970198,0.3214725568412265
12.400999999998566,0.008375736288723951,0.32277142890002725
12.600999999998455,0.0006018260283304918,0.32276001226997764
12.800999999998345,-0.008557824373040607,0.32315653777659137
13.000999999998234,-0.016679385468847913,0.3226816194590648
13.200999999998123,-0.024829231173055348,0.3223277237680151
13.400999999998012,-0.03338718616953299,0.3203492352016678
13.600999999997901,-0.042969610573635,0.317741543072406
13.80099999999779,-0.05247319853271269,0.3166778494518967
14.00099999999768,-0.06171285625782292,0.3141263186009963
14.200999999997569,-0.07191669014921889,0.31170494067519533
14.400999999997458,-0.07956053656303162,0.31060430491442503
14.600999999997347,-0.08735227723893309,0.30753886058036156
14.800999999997236,-0.0953571789351105,0.3050789410344937
15.000999999997125,-0.103574105466984,0.304446538015735
15.200999999997014,-0.11205444471615067,0.30028958891969465
15.400999999996904,-0.12053268571163257,0.2973709038918871
15.600999999996793,-0.12924830330523648,0.28993535883047916
15.800999999996682,-0.13688032231846395,0.2829212159810105
16.000999999996573,-0.14481243758590223,0.27585145459425753
16.200999999996817,-0.15176423706025358,0.26920301416212267
16.40099999999706,-0.15957530565114947,0.2635341345720012
16.600999999997306,-0.1677330100472217,0.25947444136812053
16.80099999999755,-0.17383515810688854,0.2520987157999023
17.000999999997795,-0.17955253045080305,0.24491046172298037
17.20099999999804,-0.18484167756617748,0.23883657475178863
17.400999999998284,-0.18840459031188234,0.23157975596039965
17.60099999999853,-0.19285035226373934,0.2230337848272757
17.800999999998773,-0.1970738840220123,0.21660590280495867
18.000999999999017,-0.19974731001990664,0.20696470135923584
18.20099999999926,-0.20199985135048257,0.19813390938482686
18.400999999999506,-0.20429189480999554,0.19057158489944884
18.60099999999975,-0.2064207206136839,0.18262370985230272
18.799999999999994,-0.2074073342887607,0.17524797195868802
19.000000000000238,-0.20949707887790217,0.16912540154163216
19.200000000000482,-0.21021250862130453,0.16157061590627325
19.400000000000727,-0.2094529152461279,0.15409431926500217
19.60000000000097,-0.20931017565297969,0.1468674459415255
19.800000000001216,-0.20911454648795197,0.13892836937135614
20.00000000000146,-0.20789650838699544,0.13087238319015115
