Time (s),X (m),Y (m)
0.001,0.00048696676677933824,-0.0009960320817112695
0.20000000000000015,0.001996724687114192,-0.0008207704799639315
0.4000000000000003,0.006463952415119003,-0.009907534186075873
0.6000000000000004,0.013923332086592397,-0.011944851612189987
0.8000000000000006,0.02345396970947475,-0.009651041089029422
1.0000000000000007,0.032487969391484045,-0.013004648654891999
1.2009999999999785,0.044306565533592836,-0.012667437438049354
1.4009999999999565,0.05616820105506048,-0.018402544201377324
1.6009999999999345,0.06415119131513759,-0.014021571681431626
1.8009999999999124,0.07606687866517067,-0.016042498072631625
2.0009999999998906,0.08309968565100721,-0.021567138166256748
2.2009999999998686,0.08884193711993263,-0.034812407616119916
2.4009999999998466,0.10091141884259264,-0.03854863979088387
2.6009999999998246,0.10942749212649415,-0.04636253593186853
2.8009999999998025,0.11583482795619826,-0.04944843506935861
3.0009999999997805,0.12809847677667183,-0.051372954232588856
3.2009999999997585,0.13880109083483447,-0.06289311483412793
3.4009999999997365,0.15198361383952894,-0.06328099423431119
3.6009999999997144,0.16427218432240334,-0.0690407441278982
3.8009999999996924,0.1741764686301134,-0.07894455494358696
4.000999999999671,0.18100946717150548,-0.0909018230045765
4.200999999999738,0.19116872959009112,-0.08809233260617545
4.400999999999804,0.20451480302668773,-0.09337472189941017
4.600999999999871,0.21951306570263454,-0.09948404147545435
4.800999999999938,0.2275021771488167,-0.11681309779943658
5.000000000000004,0.239730800466474,-0.12083147695497941
5.200000000000071,0.25551015420701334,-0.11067906513803502
5.400000000000138,0.2688487578124178,-0.12310744312554683
5.600000000000205,0.2774480691449099,-0.13256287620485332
5.800000000000272,0.2790872064977664,-0.14910864456910547
6.000000000000338,0.28429112229938347,-0.16119338021540353
6.200000000000405,0.2885641090594453,-0.18274801707347513
6.400000000000472,0.2977883278320541,-0.1875762381702667
6.600000000000539,0.3070133225850339,-0.1955472930380024
6.800000000000606,0.3198666748202443,-0.20328152532558239
7.000000000000672,0.3286276764499969,-0.2165336169911864
7.200000000000739,0.3409547577271502,-0.21383384618695012
7.400000000000806,0.3480367593873216,-0.23144088069198476
7.600000000000873,0.3561077215506646,-0.24270188621802563
7.8000000000009395,0.36460396237717474,-0.25529309879797674
8.000000000001005,0.37205785814210396,-0.26699219712655187
8.200000000000895,0.38226342133831975,-0.26766346266607166
8.400000000000784,0.39767348519726575,-0.26772857829060165
8.600000000000673,0.409152233715399,-0.27909633865737515
8.800000000000562,0.41963624792649273,-0.2816397460700286
9.000000000000451,0.4265598912896127,-0.2915994700583177
9.20000000000034,0.4319441045186001,-0.30252685673397933
9.40000000000023,0.4455942984733354,-0.31087403158262555
9.600000000000119,0.45810325581057776,-0.3227531396304678
9.800000000000008,0.47345025366877747,-0.32385378077457716
10.000999999999896,0.48182545215513967,-0.3394457175052865
10.200999999999786,0.49347459090732243,-0.3438028584394078
10.400999999999675,0.5020646028121106,-0.35539470128593076
10.600999999999564,0.5132754580709125,-0.35842207097851003
10.800999999999453,0.5222304770529859,-0.375359082132809
11.000999999999342,0.5282722637136262,-0.39265807117394685
11.200999999999231,0.5371548064303141,-0.397469256494613
11.40099999999912,0.5499769459205447,-0.40307546198046107
11.60099999999901,0.5598658457952566,-0.41536056018875406
11.800999999998899,0.5677703390962437,-0.4226919301723905
12.000999999998788,0.5806508127799642,-0.4321068021914027
12.200999999998677,0.589602732553111,-0.4430671907237124
12.400999999998566,0.6006104413041743,-0.4472610945883945
12.600999999998455,0.6150978323879494,-0.44412617557752276
12.800999999998345,0.6253811087370765,-0.4489204021980298
13.000999999998234,0.6392660847318645,-0.4503282275190608
13.200999999998123,0.647457687657944,-0.46027442401626983
13.400999999998012,0.6570788848450198,-0.4649763134413683
13.600999999997901,0.6687282936090098,-0.47222394109519067
13.80099999999779,0.6792215211160949,-0.4826277942388221
14.00099999999768,0.6933803548163215,-0.48237398176866264
14.200999999997569,0.7068162394653359,-0.4896398899431384
14.400999999997458,0.7228744129095123,-0.4948615643614271
14.600999999997347,0.731889845067085,-0.5090152380504126
14.800999999997236,0.7458493067840415,-0.5102564734450439
15.000999999997125,0.7638790350727823,-0.5190440370568961
15.200999999997014,0.7805197404701104,-0.517566724737729
15.400999999996904,0.7962240293631372,-0.5149677839878305
15.600999999996793,0.8135470712629087,-0.5154429685656371
15.800999999996682,0.8311802399329408,-0.5170772885284647
16.000999999996573,0.8456681433328137,-0.5245867820975183
16.200999999996817,0.853164303523468,-0.5382473017464767
16.40099999999706,0.8618245648343262,-0.5419418992471208
16.600999999997306,0.8720033705218735,-0.5487114600360059
16.80099999999755,0.8822905397507146,-0.5591240386511452
17.000999999997795,0.8951030906519553,-0.5676616681589097
17.20099999999804,0.9058503914813572,-0.5769545668936354
17.400999999998284,0.9210407671583448,-0.5798173823986356
17.60099999999853,0.9313052836613734,-0.5957517811779567
17.800999999998773,0.9414634860651081,-0.6065179233934852
18.000999999999017,0.9558047298674233,-0.6075087047999969
18.20099999999926,0.9701868944911746,-0.615820312728644
18.400999999999506,0.9806049436831579,-0.6225840093027786
18.60099999999975,0.9962799046512217,-0.6217192313972189
18.799999999999994,1.0080444097757406,-0.6283929663502481
19.000000000000238,1.0176098483458806,-0.6416899199336076
19.200000000000482,1.0317255912620105,-0.6479969793573066
19.400000000000727,1.0438022573267265,-0.6550690988846072
19.60000000000097,1.056605032349766,-0.6609901885876642
19.800000000001216,1.066004231197825,-0.6713046478116372
20.00000000000146,1.0808092549050607,-0.6652362378415244
