Time (s),X (m),Y (m)
0.001,-0.0005698399629515257,-0.0006628221997479689
0.20000000000000015,0.0041413337204769494,0.0010662172407586057
0.4000000000000003,0.015101914890214624,-0.0040663875037196045
0.6000000000000004,0.03174653095105258,-0.004028165898073166
0.8000000000000006,0.05330669961213946,-0.0002610133811552298
1.0000000000000007,0.081337680892818,0.0025348168542435024
1.2009999999999785,0.10920275717649056,-0.0008096053511229423
1.4009999999999565,0.13536440050664839,-0.007599176526890746
1.6009999999999345,0.16265110118237763,-0.015238097116489656
1.8009999999999124,0.1918497815181325,-0.022667223964376596
2.0009999999998906,0.23034116424457102,-0.02899444631164468
2.2009999999998686,0.27581465379208064,-0.04266691059319615
2.4009999999998466,0.32040336876207615,-0.06858726078820705
2.6009999999998246,0.36104793240378685,-0.09934157462443075
2.8009999999998025,0.40724842214727897,-0.1228023212543165
3.0009999999997805,0.44933379080470737,-0.12893036925698992
3.2009999999997585,0.4851108191026736,-0.1340022940508007
3.4009999999997365,0.5228957558700775,-0.14035477236308352
3.6009999999997144,0.5569094122215642,-0.1490905111370283
3.8009999999996924,0.5941713928078438,-0.1656946263825292
4.000999999999671,0.6437640755638313,-0.18714474529755268
4.200999999999738,0.6898829200180006,-0.21582818981451324
4.400999999999804,0.7395546460086017,-0.25520181351882404
4.600999999999871,0.7901069850469883,-0.3073814098749562
4.800999999999938,0.8336746407245331,-0.3595021079699068
5.000000000000004,0.8666689498864402,-0.41129897760333894
5.200000000000071,0.8941988511530259,-0.46383064195692436
5.400000000000138,0.9088695112024981,-0.5104225719033338
5.600000000000205,0.9063372435661116,-0.5598721266059143
5.800000000000272,0.884830519134071,-0.6006847944039644
6.000000000000338,0.8470557816880929,-0.6641313523726632
6.200000000000405,0.7935032779821042,-0.7175460582084084
6.400000000000472,0.7405919395983022,-0.7621663566491342
6.600000000000539,0.6940402599888605,-0.8017724012615617
6.800000000000606,0.6439740896530032,-0.8449823821734259
7.000000000000672,0.5925766387163142,-0.8922673539990059
7.200000000000739,0.536885825812817,-0.9400078719254339
7.400000000000806,0.4780001640999763,-0.9944003310000806
7.600000000000873,0.4215824265750373,-1.0370368148922178
7.8000000000009395,0.36435812124779565,-1.074875693047241
8.000000000001005,0.30256986284313714,-1.1111302721260476
8.200000000000895,0.23171352442888185,-1.1457981420146912
8.400000000000784,0.15879076289366179,-1.1839514675549547
8.600000000000673,0.0856582782166744,-1.2203339686683938
8.800000000000562,0.019613746003046755,-1.2339166446820196
9.000000000000451,-0.04267341818579984,-1.2237425785622262
9.20000000000034,-0.10066844411748518,-1.19382918257737
9.40000000000023,-0.148651559118781,-1.157478108631711
9.600000000000119,-0.20141660255105648,-1.1195761479229467
9.800000000000008,-0.24813523599487047,-1.0796366063302885
10.000999999999896,-0.2967420440333918,-1.0358535735870313
10.200999999999786,-0.3550088326377421,-0.9852172857863062
10.400999999999675,-0.42610271794955223,-0.9462100615739896
10.600999999999564,-0.49707669565509427,-0.929245959610575
10.800999999999453,-0.5687715607595469,-0.9228658467895062
11.000999999999342,-0.6274970845891783,-0.9056762614652012
11.200999999999231,-0.6812446052379938,-0.8726998573524434
11.40099999999912,-0.7381893932408354,-0.8245006849725848
11.60099999999901,-0.7929165660230436,-0.7665389023838878
11.800999999998899,-0.8372812398752273,-0.7044124888885419
12.000999999998788,-0.8753549526675543,-0.6338422015553774
12.200999999998677,-0.9125593665903212,-0.5640830357861155
12.400999999998566,-0.9578814733322083,-0.4925462511899711
12.600999999998455,-0.9996335835572444,-0.42256395944123665
12.800999999998345,-1.03513759698406,-0.3535871910345185
13.000999999998234,-1.0342901473712223,-0.28576864409594166
13.200999999998123,-1.0007003617854016,-0.22635195233795988
13.400999999998012,-0.9455225474501012,-0.16878945097813994
13.600999999997901,-0.8712866368010155,-0.10618971892449915
13.80099999999779,-0.7917107593708707,-0.0442265872948977
14.00099999999768,-0.7199563475166154,0.020966657295813443
14.200999999997569,-0.6478189193321094,0.09016246274810726
14.400999999997458,-0.5749032052733942,0.15905858289664476
14.600999999997347,-0.5034015885825014,0.22201540692166472
14.800999999997236,-0.4389958818995784,0.2705221782836057
15.000999999997125,-0.3744648756612298,0.31744229321037865
15.200999999997014,-0.31287828210251795,0.35990335421245556
15.400999999996904,-0.24507425839620645,0.4036940148340325
15.600999999996793,-0.17399765265161443,0.4469985507085796
15.800999999996682,-0.09898919108452055,0.5049604737051919
16.000999999996573,-0.02864662966624932,0.5489025613207414
16.200999999996817,0.038004514063355976,0.5943083560850185
16.40099999999706,0.10712381267712631,0.6470849378548462
16.600999999997306,0.18047664320571766,0.7024484424743577
16.80099999999755,0.24608381728166911,0.7427125657383402
17.000999999997795,0.3151375060735158,0.7902477238670668
17.20099999999804,0.3876212574052715,0.8407713169813177
17.400999999998284,0.4629744091221734,0.8842373280434115
17.60099999999853,0.5336620098716501,0.922139917918948
17.800999999998773,0.6099799522856361,0.9511725644958531
18.000999999999017,0.673139517133932,0.9500930730430872
18.20099999999926,0.7284850042116834,0.9187403599590559
18.400999999999506,0.7717025070016016,0.8719840189215189
18.60099999999975,0.8144513095540837,0.8119222667962182
18.799999999999994,0.8570756110270331,0.7490757448222738
19.000000000000238,0.9106382356694305,0.6895715146561852
19.200000000000482,0.9699927397170536,0.6246905745813902
19.400000000000727,1.0307379098000347,0.5566892675262883
19.60000000000097,1.0851943958750978,0.49616584758073073
19.800000000001216,1.1333049921370564,0.45130571569355626
20.00000000000146,1.2065243136344483,0.42375092940746867
