Time (s),X (m),Y (m)
0.001,0.0010647643868879006,0.0005914538325516247
0.20000000000000015,-0.0002001349935128428,-0.0006507691261071275
0.4000000000000003,0.00835356794898148,0.004901361139429789
0.6000000000000004,0.019392531291218536,0.011720819455209086
0.8000000000000006,0.033961480722700055,0.01673732309625922
1.0000000000000007,0.0525805456003207,0.02373485787877928
1.2009999999999785,0.07742605271582738,0.026073965779332266
1.4009999999999565,0.0991053997093756,0.026619002017770066
1.6009999999999345,0.12929586455462802,0.0352785397923716
1.8009999999999124,0.15316208353943123,0.03914562630299879
2.0009999999998906,0.17963792636577158,0.04772800509985179
2.2009999999998686,0.1974008342158059,0.05466139726994896
2.4009999999998466,0.22283480137526565,0.06359420157502961
2.6009999999998246,0.2474327089830361,0.07234274416903456
2.8009999999998025,0.2668651508044164,0.07314554067689115
3.0009999999997805,0.29330592919735354,0.06987414055035827
3.2009999999997585,0.3183327092177076,0.061501924859001966
3.4009999999997365,0.3514180617079846,0.041480408315515825
3.6009999999997144,0.3810232642249041,0.010930428091702742
3.8009999999996924,0.40917744967853703,-0.022566937520456395
4.000999999999671,0.4430249648252982,-0.05037720205644005
4.200999999999738,0.4770943187369628,-0.07597853097742076
4.400999999999804,0.5094150937687607,-0.10547745534594731
4.600999999999871,0.5367447014322779,-0.12943689147843584
4.800999999999938,0.5607076327347194,-0.1470039607436087
5.000000000000004,0.5906850165900264,-0.16156061457762144
5.200000000000071,0.624714533323754,-0.17836710220266755
5.400000000000138,0.641714720635334,-0.20054409681995028
5.600000000000205,0.6589277021059314,-0.22737187776449388
5.800000000000272,0.6913200120777829,-0.2538209438077634
6.000000000000338,0.7262244093339882,-0.28340262598301386
6.200000000000405,0.7533232666853529,-0.30614518565972276
6.400000000000472,0.7805648116903297,-0.3236344268689258
6.600000000000539,0.8144607441311567,-0.35084930246429075
6.800000000000606,0.853723186920911,-0.3728992206245502
7.000000000000672,0.8966954137763438,-0.39485722932679473
7.200000000000739,0.9253303890778872,-0.41643280707521063
7.400000000000806,0.9602792133744993,-0.43613832256847623
7.600000000000873,1.008718723289944,-0.4594964414804421
7.8000000000009395,1.0532024838396241,-0.48522080365025233
8.000000000001005,1.10455967601749,-0.5105256452560891
8.200000000000895,1.159153912020462,-0.5421205852823858
8.400000000000784,1.2038738462001015,-0.5743146858826274
8.600000000000673,1.2560239666174133,-0.6047914986946739
8.800000000000562,1.3148358990106628,-0.6324719337296315
9.000000000000451,1.3665848635055613,-0.6523682359070698
9.20000000000034,1.417174260781663,-0.6720012074287266
9.40000000000023,1.4576410012718157,-0.696067111541884
9.600000000000119,1.4913960920673315,-0.7255662558021513
9.800000000000008,1.5133744807337293,-0.7529643134617933
10.000999999999896,1.542273932785687,-0.7848901350867997
10.200999999999786,1.5603714671417135,-0.8187304778115672
10.400999999999675,1.6008522066622461,-0.8554366489402988
10.600999999999564,1.6414146714046107,-0.8929060911592704
10.800999999999453,1.6714396164377583,-0.930450384695039
11.000999999999342,1.711635001894761,-0.9675544654768228
11.200999999999231,1.75757784232837,-1.0025957991534213
11.40099999999912,1.7979950225067283,-1.0360015702545506
11.60099999999901,1.8363632288702905,-1.0729824371931023
11.800999999998899,1.8758600236460332,-1.1152867314073935
12.000999999998788,1.9175420689554508,-1.1614610168640318
12.200999999998677,1.9565771898118876,-1.2082725479793648
12.400999999998566,2.0026036677106136,-1.2607327759911657
12.600999999998455,2.050737340214825,-1.3121318344857535
12.800999999998345,2.096417343000619,-1.3604389923249918
13.000999999998234,2.1392014381138087,-1.4109950683678736
13.200999999998123,2.1895947999956586,-1.458907284718193
13.400999999998012,2.237461507919716,-1.5097609896580595
13.600999999997901,2.2814200608777524,-1.5602213101785147
13.80099999999779,2.311337424311867,-1.6063807211716497
14.00099999999768,2.340787333857086,-1.6503070283509984
14.200999999997569,2.3778224869506217,-1.6881260061435766
14.400999999997458,2.423936168477168,-1.7151531285137385
14.600999999997347,2.468969022902648,-1.734759836202799
14.800999999997236,2.506364411110391,-1.7588696975300553
15.000999999997125,2.5397015913693255,-1.7801853509637633
15.200999999997014,2.5778883033599804,-1.7996978046094798
15.400999999996904,2.6252285384832272,-1.8160392529882035
15.600999999996793,2.681827524921494,-1.8236099895782005
15.800999999996682,2.7416066193908555,-1.824795896028899
16.000999999996573,2.7966869634811315,-1.8251637153442228
16.200999999996817,2.8481005631079976,-1.8331155422725334
16.40099999999706,2.9009189692548007,-1.8442884583455743
16.600999999997306,2.934684837066764,-1.8616330631990878
16.80099999999755,2.9774145940100105,-1.8881674449952808
17.000999999997795,3.0307517237749173,-1.9185034027235182
17.20099999999804,3.0803369954248287,-1.9536322159122161
17.400999999998284,3.109014294974498,-1.9895431854873062
17.60099999999853,3.1439375605908557,-2.02901349982798
17.800999999998773,3.1795796910384335,-2.0644813496345864
18.000999999999017,3.224085635286112,-2.0965041347491673
18.20099999999926,3.2737529713315476,-2.12403785464762
18.400999999999506,3.3256665494978086,-2.149128685952531
18.60099999999975,3.376987609683705,-2.164411117014182
18.799999999999994,3.431516616561793,-2.1773864261016067
19.000000000000238,3.4943393216286833,-2.1861159073809446
19.200000000000482,3.5495455810627212,-2.190743793195196
19.400000000000727,3.5849571195163272,-2.19363567126099
19.60000000000097,3.6441382667178326,-2.200126923386243
19.800000000001216,3.69338898785673,-2.21783656301531
20.00000000000146,3.734732726174665,-2.2429541119740914
