Time (s),X (m),Y (m)
0.001,-0.0008071636076123137,-8.987223813608066e-05
0.20000000000000015,0.004583263107596867,0.0005002785884584717
0.4000000000000003,0.008031341340985706,0.0003053972896182613
0.6000000000000004,0.010102513206518999,0.004510160924544629
0.8000000000000006,0.013797713627819293,0.006195557951647469
1.0000000000000007,0.019819886399942643,0.012553384513361958
1.2009999999999785,0.03833537584506052,0.015274236264443453
1.4009999999999565,0.05121673150993845,0.014121793829945366
1.6009999999999345,0.07080009589202299,0.012033399744327667
1.8009999999999124,0.0827788068317096,0.015694414940184538
2.0009999999998906,0.0835652602662908,0.019972270038750333
2.2009999999998686,0.09909561190381194,0.023097612582476418
2.4009999999998466,0.11276733289655078,0.024881443124168352
2.6009999999998246,0.12924374068258745,0.02766929738749212
2.8009999999998025,0.15151690122265296,0.027940649144128592
3.0009999999997805,0.15418642806931038,0.03176851821092765
3.2009999999997585,0.16212265354209382,0.02720620570714572
3.4009999999997365,0.16822767862719498,0.024246324909911667
3.6009999999997144,0.18815565660453762,0.02172644931964624
3.8009999999996924,0.22632712871031396,0.009206189344830142
4.000999999999671,0.24444975415376033,-0.00035879131975604463
4.200999999999738,0.2657679190639672,-0.009218524393418293
4.400999999999804,0.28257085819279604,-0.023106161109441296
4.600999999999871,0.2964783199627542,-0.02897098722115675
4.800999999999938,0.3147442563331934,-0.032180384690598265
5.000000000000004,0.3318517552441392,-0.03770903807335841
5.200000000000071,0.3467464173806957,-0.043945604835760946
5.400000000000138,0.35489562103120237,-0.04732794188841604
5.600000000000205,0.3637984935733089,-0.054730754239434326
5.800000000000272,0.37976122867912504,-0.06479945894034378
6.000000000000338,0.3981041091619672,-0.08781198879327194
6.200000000000405,0.42028799245178067,-0.10202124110128033
6.400000000000472,0.4360368995776205,-0.10720906051425019
6.600000000000539,0.4622616811180248,-0.1223011440809722
6.800000000000606,0.49830202562874476,-0.1471245365528565
7.000000000000672,0.5273109834863343,-0.17478528541523727
7.200000000000739,0.5558154221173666,-0.20071802037472103
7.400000000000806,0.5805556749577118,-0.2235432203733345
7.600000000000873,0.606456157592757,-0.2506342455428864
7.8000000000009395,0.634703118141977,-0.272851273066024
8.000000000001005,0.6538684301818994,-0.28466715599147213
8.200000000000895,0.6674891752740948,-0.2988499614723766
8.400000000000784,0.6784909526704309,-0.31154822229059353
8.600000000000673,0.6899794929408191,-0.32375563265537755
8.800000000000562,0.7112314094574232,-0.34511187700152535
9.000000000000451,0.7372293477916191,-0.37092505960278066
9.20000000000034,0.7623353957980739,-0.39064842162933827
9.40000000000023,0.7856027105918227,-0.41107775520833817
9.600000000000119,0.8119738894286388,-0.42969118975536447
9.800000000000008,0.8346133971934161,-0.45372514238982536
10.000999999999896,0.8571012218570758,-0.477181586767266
10.200999999999786,0.8775891759492173,-0.5038955324016832
10.400999999999675,0.8912491983470727,-0.5211055643616149
10.600999999999564,0.9060852496941944,-0.5332950188301729
10.800999999999453,0.9162172391555653,-0.5418591020072645
11.000999999999342,0.9206803130623882,-0.5590922638714846
11.200999999999231,0.9313175452146214,-0.5885133866765648
11.40099999999912,0.9399075617822862,-0.6285860168370586
11.60099999999901,0.9343842822952937,-0.6666414453147625
11.800999999998899,0.9272729899958275,-0.7023312069723047
12.000999999998788,0.9237405223750691,-0.7299804171808282
12.200999999998677,0.916878445682336,-0.7574037018908287
12.400999999998566,0.9061272916932589,-0.7857943261114423
12.600999999998455,0.8911703579446102,-0.814527370686473
12.800999999998345,0.8760235142439148,-0.8414762930934926
13.000999999998234,0.861495855074076,-0.8732566175101767
13.200999999998123,0.8505464076623409,-0.8996117818531919
13.400999999998012,0.8327685281000264,-0.9289450703587878
13.600999999997901,0.8157099107316389,-0.9520696500827286
13.80099999999779,0.8048014604347216,-0.9660035797664216
14.00099999999768,0.7946456050528506,-0.9866147117305123
14.200999999997569,0.7776853966453581,-1.0138281691787434
14.400999999997458,0.7573154375572985,-1.039796571932217
14.600999999997347,0.7431398627039617,-1.0607215567270494
14.800999999997236,0.734286926059498,-1.0841642885194165
15.000999999997125,0.7159179448962508,-1.1173251565998605
15.200999999997014,0.7046613095797472,-1.1341694202411452
15.400999999996904,0.6959032404922164,-1.144976028493473
15.600999999996793,0.6796029968301721,-1.1704984868952202
15.800999999996682,0.6587546787770607,-1.207926237882714
16.000999999996573,0.641748675368589,-1.2412058882762784
16.200999999996817,0.6306665017855742,-1.256381469861355
16.40099999999706,0.6176253465894735,-1.2719987113570266
16.600999999997306,0.5954134836194076,-1.3025151051727504
16.80099999999755,0.5755368086943068,-1.3349712591832974
17.000999999997795,0.5621419312171042,-1.3622473168063172
17.20099999999804,0.553195905965549,-1.3875352241747922
17.400999999998284,0.5447890731100277,-1.4009747266934474
17.60099999999853,0.5310360202306821,-1.4132552577253408
17.800999999998773,0.5120908383240564,-1.4402205995821493
18.000999999999017,0.4972623611063175,-1.462953532253394
18.20099999999926,0.4768097610678769,-1.4927298499112582
18.400999999999506,0.4623261484848194,-1.5255332760430271
18.60099999999975,0.4536431353973972,-1.5425963384225307
18.799999999999994,0.4474332780034472,-1.5573544381471225
19.000000000000238,0.4305756298121828,-1.5716943378894161
19.200000000000482,0.4105303353365603,-1.6032144086571558
19.400000000000727,0.38569688726482265,-1.6362405800037425
19.60000000000097,0.36440132719964763,-1.6767523890001643
19.800000000001216,0.346555190352967,-1.7138170132223844
20.00000000000146,0.3260033953657676,-1.7434228573117663
