Time (s),X (m),Y (m)
0.001,4.1020280575708355e-05,0.0010155025257856582
0.20000000000000015,0.0015116905396627296,-0.0019285289440613316
0.4000000000000003,0.0038993341090015434,-0.0028195502137995133
0.6000000000000004,0.007190432266157132,-0.011555412322934663
0.8000000000000006,0.015800529667778306,-0.026392427751716144
1.0000000000000007,0.025794864426440946,-0.030881700863074527
1.2009999999999785,0.03665132654967694,-0.037433811630973465
1.4009999999999565,0.04981751439581442,-0.04540161026768544
1.6009999999999345,0.06718012018575686,-0.04340241371895765
1.8009999999999124,0.08301665978814259,-0.040247427453145905
2.0009999999998906,0.09174082820832458,-0.05431868671012667
2.2009999999998686,0.10109717440530798,-0.057292643055983104
2.4009999999998466,0.11168988368031908,-0.06370484404552082
2.6009999999998246,0.13005455856632,-0.07310226879667436
2.8009999999998025,0.14229262761151878,-0.08405242221227952
3.0009999999997805,0.14950955167273933,-0.09867638506662561
3.2009999999997585,0.1647603005524425,-0.10778813165505254
3.4009999999997365,0.1779524734860279,-0.12330375362288032
3.6009999999997144,0.19487893568190912,-0.13240707272507865
3.8009999999996924,0.21293753711089103,-0.14158952431280747
4.000999999999671,0.23175806668006804,-0.1357831850432671
4.200999999999738,0.24054612628639852,-0.15204966881768336
4.400999999999804,0.2573168681626144,-0.1613689937084101
4.600999999999871,0.27456278774381143,-0.17165451884145494
4.800999999999938,0.2912641642194187,-0.18154778288781817
5.000000000000004,0.3034932557902837,-0.2038176756239791
5.200000000000071,0.3175779608291057,-0.21296011217056246
5.400000000000138,0.3342785076593534,-0.2144508457756839
5.600000000000205,0.3507420871355359,-0.22311619933680385
5.800000000000272,0.3652465717525719,-0.23027038442717454
6.000000000000338,0.3830705572260225,-0.25098612267618026
6.200000000000405,0.39803847854701657,-0.26636394607434016
6.400000000000472,0.41975427596117687,-0.2598665877137459
6.600000000000539,0.4391684477899062,-0.27275630063030876
6.800000000000606,0.44849977003526864,-0.29329480608195263
7.000000000000672,0.46128431192775665,-0.2925488295246081
7.200000000000739,0.48289468058017093,-0.28980589319065925
7.400000000000806,0.49226565538593703,-0.3150082862347223
7.600000000000873,0.5079747504121135,-0.3335136062080532
7.8000000000009395,0.5278938662851791,-0.3420225998277969
8.000000000001005,0.5486007751353241,-0.3462617840784147
8.200000000000895,0.5717635833514971,-0.3453136537899287
8.400000000000784,0.5892746787143419,-0.3536102883574057
8.600000000000673,0.6038381011412248,-0.3711250704836654
8.800000000000562,0.6214102649259037,-0.38071591587728415
9.000000000000451,0.634371421747639,-0.39520233721046844
9.20000000000034,0.6451019744500296,-0.4087724103192609
9.40000000000023,0.6572980739717804,-0.4249929809272681
9.600000000000119,0.6736911580815499,-0.4262628331899785
9.800000000000008,0.6855598879799873,-0.44364331462429757
10.000999999999896,0.7033128952923146,-0.45654733957371885
10.200999999999786,0.7158028042244404,-0.47226143434865214
10.400999999999675,0.7245752185769895,-0.48691775020123057
10.600999999999564,0.7400599418152534,-0.4892176296210124
10.800999999999453,0.7560234673904933,-0.5002351964502822
11.000999999999342,0.7654552004108678,-0.5127022447722599
11.200999999999231,0.7726516000963587,-0.535236752765295
11.40099999999912,0.787439320093617,-0.5482221899343966
11.60099999999901,0.8002451489069171,-0.5684372606984285
11.800999999998899,0.8101386825880893,-0.5803143956092212
12.000999999998788,0.8244051143792295,-0.5922665279385041
12.200999999998677,0.839166550701051,-0.6078495285658683
12.400999999998566,0.8527458651779058,-0.629247518108637
12.600999999998455,0.8635897938536178,-0.6464245953137646
12.800999999998345,0.865552613607123,-0.6682970546670038
13.000999999998234,0.8779291258611803,-0.6814084634525844
13.200999999998123,0.898473034582491,-0.696438251943795
13.400999999998012,0.9143811678891421,-0.7085460545875725
13.600999999997901,0.93275784262512,-0.7240124229060726
13.80099999999779,0.9497721849982887,-0.738365341617911
14.00099999999768,0.9594481125089033,-0.7526347405544699
14.200999999997569,0.981551190911004,-0.7634840164705151
14.400999999997458,0.9994800281497285,-0.774419628302192
14.600999999997347,1.0127572885371414,-0.7839843771441215
14.800999999997236,1.0226507464917634,-0.7937349830021482
15.000999999997125,1.038814883308926,-0.8054150904133262
15.200999999997014,1.0530535980722797,-0.8192332699788241
15.400999999996904,1.070999555575323,-0.835508961717928
15.600999999996793,1.091310284005393,-0.849137894276797
15.800999999996682,1.1036983737664683,-0.8606772737877322
16.000999999996573,1.1187836711690426,-0.8715626132117474
16.200999999996817,1.1368552262195475,-0.8809858406956381
16.40099999999706,1.157050249694324,-0.893145758515357
16.600999999997306,1.1715987787142559,-0.9054811168996028
16.80099999999755,1.1872783635631248,-0.9074314380822484
17.000999999997795,1.2069619807785692,-0.9218667527738055
17.20099999999804,1.2270516446117505,-0.9262041679591573
17.400999999998284,1.2399668955062522,-0.9465067483154997
17.60099999999853,1.250417566839677,-0.9602529070116111
17.800999999998773,1.2682116205397684,-0.9655049222559997
18.000999999999017,1.2822107441032158,-0.9799563968491213
18.20099999999926,1.2916556421581564,-1.0009283259232682
18.400999999999506,1.3092275468651255,-1.0108237735578198
18.60099999999975,1.3244721072869896,-1.0140515161328179
18.799999999999994,1.3406214085819765,-1.0213026592488912
19.000000000000238,1.357903154581237,-1.0359417337007315
19.200000000000482,1.3812293627681687,-1.0374807878367769
19.400000000000727,1.397955773963869,-1.0512583690563044
19.60000000000097,1.4135272581898817,-1.0691741045097733
19.800000000001216,1.4227546371107813,-1.088998213668754
20.00000000000146,1.435107640076845,-1.106189944734701
