Time (s),X (m),Y (m)
0.001,-4.680521708071185e-05,0.00099603208171127
0.20000000000000015,0.00145917498341248,0.00016905020537132803
0.4000000000000003,0.005795371655702285,-0.006154934540083744
0.6000000000000004,0.013925405361143003,-0.014298923001389286
0.8000000000000006,0.026589447549694587,-0.017103570802327026
1.0000000000000007,0.03610976509415459,-0.008646942848636254
1.2009999999999785,0.04759730747189625,-0.002681261418845585
1.4009999999999565,0.05864286458325442,-0.013983414470733339
1.6009999999999345,0.0670010950331816,-0.026849216559513764
1.8009999999999124,0.07631636681562601,-0.03484069431072368
2.0009999999998906,0.08461943736380492,-0.03679371067266501
2.2009999999998686,0.09518951461505094,-0.04509095769955254
2.4009999999998466,0.10807638094575905,-0.04147188127372719
2.6009999999998246,0.1167678979168686,-0.040274189944072385
2.8009999999998025,0.12866962935051646,-0.05076654989351778
3.0009999999997805,0.14057021538588685,-0.06196180055794075
3.2009999999997585,0.15087286079243845,-0.0766861265184114
3.4009999999997365,0.1593393349327729,-0.08925470391173065
3.6009999999997144,0.17777880560075057,-0.09832692339822595
3.8009999999996924,0.19867720873925807,-0.09796884416828648
4.000999999999671,0.2070699426137523,-0.11421748113938525
4.200999999999738,0.21203969959337943,-0.12681599554865935
4.400999999999804,0.22453955009757343,-0.13593278741073353
4.600999999999871,0.24137741025758266,-0.13247345737100932
4.800999999999938,0.24815601797188602,-0.15532677834280698
5.000000000000004,0.25511868202774896,-0.17122488288978638
5.200000000000071,0.2711760246361179,-0.17230002624607882
5.400000000000138,0.2827126451193546,-0.18123535121296655
5.600000000000205,0.29452475380245124,-0.19571191507549718
5.800000000000272,0.3132723839587321,-0.20779438149470933
6.000000000000338,0.32842538339904437,-0.21507226101823254
6.200000000000405,0.3364165343522075,-0.22703769023620068
6.400000000000472,0.3445840214815935,-0.23623677207058158
6.600000000000539,0.3518775594210862,-0.2467955749642527
6.800000000000606,0.3695766257521677,-0.2425859159577537
7.000000000000672,0.3867563295160905,-0.24509316689938979
7.200000000000739,0.39688090304360035,-0.2589393778609479
7.400000000000806,0.3992908205701974,-0.2746430795561391
7.600000000000873,0.40727683251703817,-0.28299379969125776
7.8000000000009395,0.41595280714192756,-0.2865815254491664
8.000000000001005,0.43173239447768746,-0.29476764633011654
8.200000000000895,0.4456281802761283,-0.30966670887944897
8.400000000000784,0.44746618551333844,-0.330624464515046
8.600000000000673,0.4562382326087459,-0.3384169870953848
8.800000000000562,0.4716110569362656,-0.3497135334706983
9.000000000000451,0.48400299805568553,-0.3595776908849217
9.20000000000034,0.4898060501921924,-0.37478325893602515
9.40000000000023,0.50371401884843,-0.38138919106090724
9.600000000000119,0.5133831665302512,-0.39607695022589867
9.800000000000008,0.5272047561960199,-0.40334989714702085
10.000999999999896,0.5461283403496076,-0.41200686112660495
10.200999999999786,0.5536342031387502,-0.42731295639153155
10.400999999999675,0.5631639294920788,-0.4431400488293522
10.600999999999564,0.5671115497941798,-0.46219365018721875
10.800999999999453,0.5791886155284619,-0.466467992158773
11.000999999999342,0.5876534855286839,-0.4796335607434952
11.200999999999231,0.5975489887699087,-0.4843048315766823
11.40099999999912,0.6094010207699546,-0.49683328518583225
11.60099999999901,0.6255323282768039,-0.5090924856373866
11.800999999998899,0.636331520771166,-0.5129379344659384
12.000999999998788,0.6498227706241911,-0.5283092137842476
12.200999999998677,0.6614507280690689,-0.5442496064570586
12.400999999998566,0.6698572533851541,-0.5526793677749181
12.600999999998455,0.68510676412673,-0.5593411393158986
12.800999999998345,0.6967181107198214,-0.5779189865824572
13.000999999998234,0.7048386314311063,-0.5939233339401395
13.200999999998123,0.7173663752391167,-0.6092957808006971
13.400999999998012,0.733114558934885,-0.6185278687066824
13.600999999997901,0.7427159948247889,-0.6285288360864245
13.80099999999779,0.756386655744395,-0.6289849278474255
14.00099999999768,0.7658466007764725,-0.6384330242079604
14.200999999997569,0.7790326134505798,-0.6539442860126587
14.400999999997458,0.7934683772778023,-0.654877478443462
14.600999999997347,0.8064532337742137,-0.6717205672562517
14.800999999997236,0.8206952237496308,-0.6835991339559137
15.000999999997125,0.8292142926018498,-0.6880352206081388
15.200999999997014,0.8413537489787394,-0.6907820145782186
15.400999999996904,0.8577878144804341,-0.6985127408076621
15.600999999996793,0.8679670525107861,-0.7043612359744233
15.800999999996682,0.8779108011770047,-0.7203228916009116
16.000999999996573,0.8821847466528634,-0.731865792482492
16.200999999996817,0.8885534765184487,-0.7449629896829103
16.40099999999706,0.9035615784923507,-0.7498209256973296
16.600999999997306,0.9173733523597126,-0.7639483140610898
16.80099999999755,0.92920457377872,-0.7812590871656321
17.000999999997795,0.9450853280494091,-0.7919098641480284
17.20099999999804,0.965483347035893,-0.7970673569878969
17.400999999998284,0.9757117235728808,-0.8147390813368347
17.60099999999853,0.9842950323060748,-0.8242522780854271
17.800999999998773,0.9913661922833771,-0.838747944034665
18.000999999999017,0.9979906554390614,-0.8575972821301763
18.20099999999926,1.0039048820887326,-0.8791224931641233
18.400999999999506,1.0133794411180659,-0.8885787404489643
18.60099999999975,1.0329499502281592,-0.8983317242399691
18.799999999999994,1.0465134879966425,-0.9088010244461276
19.000000000000238,1.0589662162995659,-0.9182989366577462
19.200000000000482,1.0705529159421938,-0.9288443263125292
19.400000000000727,1.0751444397943333,-0.9401863271007999
19.60000000000097,1.0914770948339045,-0.9369480560540862
19.800000000001216,1.1016813581592375,-0.951011430655642
20.00000000000146,1.1154683359529958,-0.9613196266217813
