Time (s),X (m),Y (m)
0.001,-0.0004427414248986554,-0.0007899207378008392
0.20000000000000015,0.003982019776292131,0.0036462973142475344
0.4000000000000003,0.007234950320197963,0.006704187457552416
0.6000000000000004,0.01178711116352122,0.007497946302671022
0.8000000000000006,0.018780476438373658,0.009671588954596388
1.0000000000000007,0.02088081774064978,0.011349340264670158
1.2009999999999785,0.024096606835028192,0.011984619120857989
1.4009999999999565,0.027611073070845274,0.014623764950292323
1.6009999999999345,0.029857328252455167,0.014770214880830173
1.8009999999999124,0.03439358614395548,0.016349461357523267
2.0009999999998906,0.037127395732094906,0.01884025242237303
2.2009999999998686,0.04190062039919847,0.021309559463924106
2.4009999999998466,0.04570811782847942,0.023955802435939432
2.6009999999998246,0.04857312741304494,0.026986211561126655
2.8009999999998025,0.052251213740147774,0.030739226236785534
3.0009999999997805,0.055051707126249266,0.032624657019305725
3.2009999999997585,0.057763542844161915,0.034970072958995305
3.4009999999997365,0.06147513549146625,0.03794838705452432
3.6009999999997144,0.06347465217782645,0.039586558540593585
3.8009999999996924,0.06693101998939417,0.0445737642506002
4.000999999999671,0.06860833838692026,0.046384268879954664
4.200999999999738,0.07052704644632934,0.05155402758350258
4.400999999999804,0.07177158791022697,0.05426944390927765
4.600999999999871,0.07341174640582758,0.0597394756377415
4.800999999999938,0.07565712616912651,0.060275940525921584
5.000000000000004,0.07600902927758363,0.06511039211974982
5.200000000000071,0.0772100475264633,0.06954929225813715
5.400000000000138,0.07699561494063571,0.07312541178036572
5.600000000000205,0.07777324114755786,0.07801177524428632
5.800000000000272,0.07715007936425028,0.08188525764999091
6.000000000000338,0.07565289436430823,0.08909096395716984
6.200000000000405,0.07474316348832928,0.09444526080441899
6.400000000000472,0.07335228877171676,0.09934196737855219
6.600000000000539,0.07072263216559665,0.10735594011597306
6.800000000000606,0.06989694331338919,0.11153445658059592
7.000000000000672,0.06717096671169806,0.11681312191751551
7.200000000000739,0.06477470923955177,0.12259074895393467
7.400000000000806,0.06135600282549134,0.12854304027034955
7.600000000000873,0.058949896060374055,0.13292211059527934
7.8000000000009395,0.05643178424312633,0.137715903671377
8.000000000001005,0.05242799390854725,0.14298491364438917
8.200000000000895,0.04874466537979038,0.1484551102261417
8.400000000000784,0.04601548815474866,0.15256335152068234
8.600000000000673,0.041753621645750916,0.15700021902395153
8.800000000000562,0.0369800679072741,0.16155056583203073
9.000000000000451,0.03616456653647188,0.16463284121074725
9.20000000000034,0.030094256356947752,0.1687875178378397
9.40000000000023,0.027159658447979358,0.17173488884765784
9.600000000000119,0.02186250026126624,0.17494929343451698
9.800000000000008,0.020530185791724765,0.1775563529629385
10.000999999999896,0.013088661141780733,0.17934863918000166
10.200999999999786,0.009613243604703087,0.18146570152276267
10.400999999999675,0.004650079572701834,0.1822761605930541
10.600999999999564,-0.0017807649656441471,0.18356997057432203
10.800999999999453,-0.00699215072049962,0.18441390210532724
11.000999999999342,-0.011781917450404703,0.18510811821557202
11.200999999999231,-0.019273559771494423,0.1849033026573822
11.40099999999912,-0.02521038823514862,0.18495618432979222
11.60099999999901,-0.030795500144787477,0.18393084460631667
11.800999999998899,-0.03694719283198777,0.1822550862025496
12.000999999998788,-0.04512545971995448,0.18021431968194856
12.200999999998677,-0.051072838564682026,0.17889358135053887
12.400999999998566,-0.05722534425850338,0.17694103166876027
12.600999999998455,-0.0623842163510335,0.1749029746904987
12.800999999998345,-0.06781774319183738,0.1726407391818027
13.000999999998234,-0.07329850777880977,0.1706853038007565
13.200999999998123,-0.07889541253801483,0.16756335892095706
13.400999999998012,-0.08409183176109036,0.16414486996947952
13.600999999997901,-0.08960613239952012,0.16048353650215996
13.80099999999779,-0.09548303219601569,0.15633217297658514
14.00099999999768,-0.09964315615556525,0.15378067251373234
14.200999999997569,-0.10545699961179582,0.14873091748876238
14.400999999997458,-0.10944026877415561,0.1456031180751708
14.600999999997347,-0.11467704874634307,0.13972180897937647
14.800999999997236,-0.11817816252966512,0.1376998720812019
15.000999999997125,-0.12258510904869048,0.13242404940489003
15.200999999997014,-0.12581535284284,0.12853278840581484
15.400999999996904,-0.12946611905628763,0.12375922458565797
15.600999999996793,-0.1319880156341015,0.1168347036588695
15.800999999996682,-0.13486006419452207,0.11375503554966822
16.000999999996573,-0.13602402425733384,0.10532383464013778
16.200999999996817,-0.13785130328942033,0.10130010227761459
16.40099999999706,-0.13828880943772268,0.09419617945400087
16.600999999997306,-0.1399734200621794,0.08927640854197035
16.80099999999755,-0.14019697662169323,0.08285306687504572
17.000999999997795,-0.1399712480587326,0.07555248262585813
17.20099999999804,-0.13985592604978875,0.06912430510855852
17.400999999998284,-0.13993367131893383,0.06405099733272916
17.60099999999853,-0.13835209025159206,0.05737731047832256
17.800999999998773,-0.1372316917399169,0.05108877952369211
18.000999999999017,-0.13524300456295568,0.04413451027872274
18.20099999999926,-0.1328511345902611,0.037871638604096064
18.400999999999506,-0.13119646828084097,0.03177936613991117
18.60099999999975,-0.12869483488616856,0.026184297737139702
18.799999999999994,-0.12651398087869847,0.020645413838246425
19.000000000000238,-0.12292138675321088,0.01476816134022568
19.200000000000482,-0.11958485926908201,0.00879228111536866
19.400000000000727,-0.11643583314328304,0.003634066992747365
19.60000000000097,-0.1118318690028962,-0.0026794834322631023
19.800000000001216,-0.10723423453541009,-0.00840183708158177
20.00000000000146,-0.10371134454816666,-0.013092528836446592
