Time (s),X (m),Y (m)
0.001,-4.680521708071185e-05,0.00099603208171127
0.20000000000000015,0.002879833083937076,-0.0037231358882183012
0.4000000000000003,0.005023293578258075,-0.0038346833569612372
0.6000000000000004,0.006312697049720447,-0.005827275275272369
0.8000000000000006,0.00842352126388902,-0.00600592176143259
1.0000000000000007,0.012051694349133849,-0.007475847139632111
1.2009999999999785,0.017247829271362206,-0.009924732243564147
1.4009999999999565,0.02084667989403597,-0.009159005129522033
1.6009999999999345,0.024627817713965282,-0.008357172344823175
1.8009999999999124,0.027844961121011598,-0.007457192941228786
2.0009999999998906,0.03183775094213023,-0.007074773080895753
2.2009999999998686,0.03643618054073235,-0.007745656828815596
2.4009999999998466,0.04104076439414679,-0.007819223740395922
2.6009999999998246,0.045582219153160644,-0.0075854684659908194
2.8009999999998025,0.05010513215985122,-0.0075805200607215835
3.0009999999997805,0.055111115873814204,-0.00753198883030801
3.2009999999997585,0.05981024424741985,-0.007538228231003048
3.4009999999997365,0.06467072042922546,-0.0071742298703499
3.6009999999997144,0.0688109892220536,-0.005927904962054526
3.8009999999996924,0.07335051249464665,-0.0052683038836450116
4.000999999999671,0.07859778695583729,-0.0050812579016098385
4.200999999999738,0.0836679292746201,-0.005044357892355755
4.400999999999804,0.08940478864058442,-0.004660054528746176
4.600999999999871,0.09484684343476849,-0.003516428604590537
4.800999999999938,0.10015265844630768,-0.0035508887079156925
5.000000000000004,0.10455417717779744,-0.0024911906952013916
5.200000000000071,0.10981242981471799,-0.001696131625763417
5.400000000000138,0.1155977458108463,-0.0012066578367840438
5.600000000000205,0.12079987271459044,-0.0001617776768778367
5.800000000000272,0.12617183761273665,0.0007661318162407646
6.000000000000338,0.13085910981631824,0.0017864670269426444
6.200000000000405,0.13577191062701954,0.003072090311519486
6.400000000000472,0.14142385667457086,0.004296707514549681
6.600000000000539,0.14673017307365824,0.005574714189824643
6.800000000000606,0.1508235982875926,0.007415444780930025
7.000000000000672,0.15478371611224243,0.009089614632955715
7.200000000000739,0.16001845753320554,0.01038428329838058
7.400000000000806,0.16574813380268935,0.012003530854806101
7.600000000000873,0.17100523040140786,0.013246491872625216
7.8000000000009395,0.17479674555845268,0.015412112315755407
8.000000000001005,0.17820645389234463,0.017826183738001208
8.200000000000895,0.18397913902088583,0.019433603848172092
8.400000000000784,0.18957664281296424,0.021376898927256388
8.600000000000673,0.19319057158768776,0.024186979909575735
8.800000000000562,0.1958394002908464,0.027004609527557705
9.000000000000451,0.20210641675023233,0.028575477162150226
9.20000000000034,0.20556975421108187,0.03136226118163225
9.40000000000023,0.20949279620562136,0.03359293678580322
9.600000000000119,0.21460338482688676,0.03625842002114252
9.800000000000008,0.21874485808453653,0.03905513056414685
10.000999999999896,0.22137857008589776,0.04207108901054652
10.200999999999786,0.22540792154145772,0.045370866816395836
10.400999999999675,0.22868571695241527,0.048889724331555966
10.600999999999564,0.23210906006090642,0.05289545418537197
10.800999999999453,0.23532538864065228,0.057122150487425215
11.000999999999342,0.2375443511675326,0.0615233029941726
11.200999999999231,0.2405110700070663,0.06626708840625882
11.40099999999912,0.2425287500307536,0.07081700145771878
11.60099999999901,0.2452962634352236,0.07513986555517614
11.800999999998899,0.24773662145774078,0.08022983001647864
12.000999999998788,0.24994888939204607,0.08441001280056226
12.200999999998677,0.2513184209155695,0.08927894843518963
12.400999999998566,0.252562361936413,0.09406408483103657
12.600999999998455,0.2541027799391256,0.09864897561973715
12.800999999998345,0.25585883990894237,0.10376368663271487
13.000999999998234,0.25642492174459075,0.10882460812826827
13.200999999998123,0.25720468997611623,0.11330968574449075
13.400999999998012,0.2582583080792619,0.11811858304483332
13.600999999997901,0.2591892302111401,0.12319653008169591
13.80099999999779,0.2592440804795109,0.12893144670914838
14.00099999999768,0.26008082575500346,0.13383650346342493
14.200999999997569,0.259334784704932,0.1387005613996369
14.400999999997458,0.25994890848608443,0.1438426169138795
14.600999999997347,0.25940461063393944,0.14908478169869233
14.800999999997236,0.2593022716295528,0.15434508135837297
15.000999999997125,0.2597753687358866,0.15946022728665904
15.200999999997014,0.2585741228950655,0.16455960552529972
15.400999999996904,0.25892462000057503,0.17021640233843496
15.600999999996793,0.2590219437575084,0.17604998252370374
15.800999999996682,0.2583021204934412,0.18142768479186694
16.000999999996573,0.25757161978469767,0.1872839244327352
16.200999999996817,0.2569435447817304,0.19267998155216198
16.40099999999706,0.2561609101806292,0.1977637614221723
16.600999999997306,0.25654573233853967,0.20371757858411096
16.80099999999755,0.25575714428046914,0.2088285891292894
17.000999999997795,0.2557721560636582,0.21506031681284662
17.20099999999804,0.2545764406293755,0.22097461983123062
17.400999999998284,0.25408123928394327,0.22699260461860474
17.60099999999853,0.25326590179672226,0.23222938614549804
17.800999999998773,0.2522509539011317,0.237425266881328
18.000999999999017,0.25154675185733877,0.2434437238081641
18.20099999999926,0.250461926093403,0.24908267863850644
18.400999999999506,0.24914932680073895,0.25459653272508326
18.60099999999975,0.24815244449107124,0.25989640674784287
18.799999999999994,0.24690685966294718,0.2647019350103169
19.000000000000238,0.24561976873675082,0.27024808142729534
19.200000000000482,0.2443829800272687,0.2766229992549542
19.400000000000727,0.24310119052996648,0.28243000052580497
19.60000000000097,0.24132361404933542,0.2868992906600072
19.800000000001216,0.24153342357015153,0.29424986775133105
20.00000000000146,0.23940299133104184,0.2990582483496721
