Time (s),X (m),Y (m)
0.001,0.0008115346074009382,-0.0008446836120385868
0.20000000000000015,0.00037949022153544755,0.0011606131655700902
0.4000000000000003,0.003704590172163432,-0.0035501948538633203
0.6000000000000004,0.01339904770124995,-0.02020653462291252
0.8000000000000006,0.021470612165945053,-0.030497289985763842
1.0000000000000007,0.04614790567274575,-0.039489923071813766
1.2009999999999785,0.06340629871737181,-0.04721424415631601
1.4009999999999565,0.07811682620847768,-0.054848422972491324
1.6009999999999345,0.09168798455280291,-0.07115297458071222
1.8009999999999124,0.11424874975259258,-0.07168916570652549
2.0009999999998906,0.13698315709944026,-0.07564146200388061
2.2009999999998686,0.15511857747749017,-0.08678212092276255
2.4009999999998466,0.16898157482975232,-0.09971051755304372
2.6009999999998246,0.19093507768263995,-0.12509551379889708
2.8009999999998025,0.2074063486440173,-0.16126252745718297
3.0009999999997805,0.22327737586203072,-0.18490530058408428
3.2009999999997585,0.24344533522189996,-0.19218553300422597
3.4009999999997365,0.2621713880341051,-0.2132959704444893
3.6009999999997144,0.2760567305863077,-0.23008522982125323
3.8009999999996924,0.28268954883560105,-0.24634448671473397
4.000999999999671,0.2949765273554722,-0.2750006348769072
4.200999999999738,0.3045839612318351,-0.3097688007552865
4.400999999999804,0.3098885302498215,-0.33219230184145854
4.600999999999871,0.3152363815703815,-0.3566742679148082
4.800999999999938,0.32585150261625273,-0.3815215564612058
5.000000000000004,0.34007125358465534,-0.4076836382759416
5.200000000000071,0.36053093991337753,-0.4219775871403006
5.400000000000138,0.3848253120176221,-0.43852670636048
5.600000000000205,0.38860219416039304,-0.4630353393960076
5.800000000000272,0.3897906554939933,-0.4987014015834771
6.000000000000338,0.4072398355665402,-0.5183435081256699
6.200000000000405,0.42162730964132983,-0.542359730142833
6.400000000000472,0.4349117773110551,-0.5591014316089334
6.600000000000539,0.45034019910511286,-0.5768529878501245
6.800000000000606,0.4614224141516652,-0.6032581860904567
7.000000000000672,0.46858759013734486,-0.6347447592055778
7.200000000000739,0.4703542403390917,-0.6618190649533386
7.400000000000806,0.4797230939373658,-0.6848021019094845
7.600000000000873,0.4878097637356144,-0.7037598772377073
7.8000000000009395,0.49728038679093406,-0.7253219012041604
8.000000000001005,0.5053366469723385,-0.7519017538300118
8.200000000000895,0.5190987318570156,-0.7693290871196866
8.400000000000784,0.5300383774398852,-0.7966576542391071
8.600000000000673,0.5371409878141354,-0.8225940159009176
8.800000000000562,0.5435433870570798,-0.8545672953729764
9.000000000000451,0.5502573940796417,-0.8840544949753529
9.20000000000034,0.5491316078111294,-0.9203256461532516
9.40000000000023,0.5535919163221278,-0.9556757719727518
9.600000000000119,0.5506638423299739,-1.0011672317095688
9.800000000000008,0.5555318197255531,-1.04042434425199
10.000999999999896,0.5496302402542448,-1.0858678110747688
10.200999999999786,0.5489462124242441,-1.1269441270784457
10.400999999999675,0.5518230570904538,-1.1634571808471557
10.600999999999564,0.5489189399727199,-1.2004438856018629
10.800999999999453,0.544501052910789,-1.2334970988709424
11.000999999999342,0.5471890466437821,-1.2641651038487123
11.200999999999231,0.5377221365342729,-1.2904047217659556
11.40099999999912,0.5186159919145753,-1.314214461786201
11.60099999999901,0.507836651442557,-1.3395849380096336
11.800999999998899,0.495453856592143,-1.3628721431738744
12.000999999998788,0.4727361342043682,-1.3813728042581144
12.200999999998677,0.4504133307206825,-1.4032302019281486
12.400999999998566,0.4199627891569376,-1.4219688782824296
12.600999999998455,0.38382908839473356,-1.4235593060720375
12.800999999998345,0.3502755557898982,-1.4228028660167318
13.000999999998234,0.3226306097558075,-1.4272492522011335
13.200999999998123,0.2948272268545597,-1.426959632583893
13.400999999998012,0.26637363002308767,-1.4131525307004142
13.600999999997901,0.23775989577369502,-1.4222442207393153
13.80099999999779,0.20917211430413354,-1.427015887220189
14.00099999999768,0.18491288181807308,-1.4116993826801953
14.200999999997569,0.16058761672918123,-1.3920141500409948
14.400999999997458,0.1365537154918839,-1.3743343178911573
14.600999999997347,0.11660902711040202,-1.352053239629863
14.800999999997236,0.09823864526279351,-1.3390988108399149
15.000999999997125,0.08525010743651189,-1.3324898966737193
15.200999999997014,0.06731761688394856,-1.324702261719714
15.400999999996904,0.05108173973024788,-1.3038270822545497
15.600999999996793,0.036424469295025866,-1.278365000529457
15.800999999996682,0.02042476343607284,-1.2513613174326765
16.000999999996573,0.008554317496381022,-1.2306967930337782
16.200999999996817,0.0002548631946181327,-1.2023632587046769
16.40099999999706,-0.0070673679166307615,-1.1749259480541747
16.600999999997306,-0.021002525995691707,-1.1455073076773084
16.80099999999755,-0.02906202201241637,-1.1175882389220166
17.000999999997795,-0.04384682956960667,-1.100676224271004
17.20099999999804,-0.06077763318114611,-1.080220743567376
17.400999999998284,-0.05857681569380162,-1.0487422279816154
17.60099999999853,-0.05605003437506533,-1.0186484641111595
17.800999999998773,-0.05997893448457789,-0.9901166104072311
18.000999999999017,-0.06781232057716606,-0.9586542380482812
18.20099999999926,-0.07892001101697799,-0.9286358873731216
18.400999999999506,-0.08847564461294917,-0.8959546807177701
18.60099999999975,-0.10351884780170044,-0.8673552292349548
18.799999999999994,-0.11547609646784793,-0.8391211397345312
19.000000000000238,-0.12469732177763874,-0.8210711353462032
19.200000000000482,-0.1377224763060681,-0.7989392367849646
19.400000000000727,-0.14698556614462938,-0.774978302872053
19.60000000000097,-0.15223602377041376,-0.7543991081815754
19.800000000001216,-0.1512811653534277,-0.7262973766570835
20.00000000000146,-0.14250590429845575,-0.6900755965519119
