Time (s),X (m),Y (m)
0.001,-4.680521708071185e-05,0.00099603208171127
0.20000000000000015,0.0019626762532563694,-0.0026388982690072594
0.4000000000000003,0.006171512562879039,0.0021131483964456316
0.6000000000000004,0.017525443150449415,0.016610045328239304
0.8000000000000006,0.03727319615573395,0.015252091547912882
1.0000000000000007,0.05725133863599388,-0.00023382348259354965
1.2009999999999785,0.08291415860308034,-0.010087832784588623
1.4009999999999565,0.10313420427745498,-0.03173116091356641
1.6009999999999345,0.12244564938634775,-0.05591712316670244
1.8009999999999124,0.14075180026250605,-0.09052189052291751
2.0009999999998906,0.16324390337751768,-0.12418217530705024
2.2009999999998686,0.18318109336259988,-0.16076547358137336
2.4009999999998466,0.20174683930013307,-0.2078736179266837
2.6009999999998246,0.21953201482034107,-0.25335845492975523
2.8009999999998025,0.2333415872960675,-0.29774937117938294
3.0009999999997805,0.2531862087203851,-0.3342000339388543
3.2009999999997585,0.276277282232095,-0.3668199415729838
3.4009999999997365,0.30189123651594085,-0.39519889097658545
3.6009999999997144,0.3300402835062479,-0.4284337181669921
3.8009999999996924,0.3554493330507518,-0.4584252107886202
4.000999999999671,0.38756853395364366,-0.4782116404927312
4.200999999999738,0.4227947676655395,-0.5037895527573995
4.400999999999804,0.4444359832757459,-0.5473314146288366
4.600999999999871,0.4670395044633454,-0.5840603691635827
4.800999999999938,0.4930565572369541,-0.6171696545702355
5.000000000000004,0.5118078031915534,-0.6642314224209159
5.200000000000071,0.5257483865410655,-0.7098213504900083
5.400000000000138,0.5399245954644734,-0.7510577482315981
5.600000000000205,0.5617994695632444,-0.793889087116993
5.800000000000272,0.5810148835623867,-0.8396682650124604
6.000000000000338,0.5939988675814811,-0.8865100032300224
6.200000000000405,0.5992749005118434,-0.93390092805987
6.400000000000472,0.6050393272873485,-0.9783476744608828
6.600000000000539,0.5830124980290656,-1.017098088644819
6.800000000000606,0.5475361847978225,-1.0502998357979136
7.000000000000672,0.5117420375292971,-1.0880147903888053
7.200000000000739,0.48610088056421413,-1.1254518975251937
7.400000000000806,0.45318351429143516,-1.1609274947916994
7.600000000000873,0.4140094719943571,-1.1965929765776044
7.8000000000009395,0.37134786335689773,-1.226106835248623
8.000000000001005,0.3379843900827532,-1.261366259990014
8.200000000000895,0.31634257013410805,-1.3004126087231809
8.400000000000784,0.29297252614845143,-1.3405829175790231
8.600000000000673,0.25824247060478495,-1.373156754220073
8.800000000000562,0.2147852134884386,-1.3967437580078592
9.000000000000451,0.16217047046339642,-1.4251522661973768
9.20000000000034,0.10840774595063332,-1.4537346654901322
9.40000000000023,0.06522829969959426,-1.4758011003137708
9.600000000000119,0.02451506444768238,-1.4983515874851248
9.800000000000008,-0.01834985855082242,-1.4949181336304644
10.000999999999896,-0.052427885346507205,-1.4651390462880682
10.200999999999786,-0.069217833587677,-1.4236366987848983
10.400999999999675,-0.06330927079523811,-1.3768455150371013
10.600999999999564,-0.05264262435651335,-1.330332922149075
10.800999999999453,-0.04412685549658274,-1.282616416875004
11.000999999999342,-0.028543351407043414,-1.234447775438816
11.200999999999231,-0.003736739264096823,-1.1869254816182164
11.40099999999912,0.015223151757587998,-1.1335554592500443
11.60099999999901,0.04062453968943119,-1.0836444971352168
11.800999999998899,0.06945752092841663,-1.0423520235211863
12.000999999998788,0.11070120262594879,-1.0127230540958025
12.200999999998677,0.1516967738167755,-0.9901394646051669
12.400999999998566,0.19646284326595576,-0.9814092958205235
12.600999999998455,0.24130390691490664,-0.9779925313956256
12.800999999998345,0.2875234132471415,-0.9689703021341216
13.000999999998234,0.3314262818012951,-0.971972681469369
13.200999999998123,0.3678423575407584,-0.9680570483757682
13.400999999998012,0.40712710041412925,-0.980727491290992
13.600999999997901,0.4471453362746688,-0.992426565546855
13.80099999999779,0.4912634442611196,-1.024209399657143
14.00099999999768,0.5380334838117505,-1.0536538593031661
14.200999999997569,0.5812279739095824,-1.0918024547813774
14.400999999997458,0.6164606428247783,-1.1407091168784378
14.600999999997347,0.6400254915246711,-1.1940623447305845
14.800999999997236,0.6673579886301685,-1.2381383740475396
15.000999999997125,0.681826170980928,-1.2833934349958593
15.200999999997014,0.6750066874762446,-1.3320209732750241
15.400999999996904,0.6475260255167601,-1.3779889010563933
15.600999999996793,0.6140085405197385,-1.418613200615297
15.800999999996682,0.5798398568934516,-1.457620285280198
16.000999999996573,0.5378885626753187,-1.4697133480641338
16.200999999996817,0.4957761273399436,-1.470681277439867
16.40099999999706,0.4581250745669905,-1.4776130313255467
16.600999999997306,0.42039232499065304,-1.4620432679368756
16.80099999999755,0.37632034244913776,-1.4366834454303614
17.000999999997795,0.3272926680822045,-1.4332847810736122
17.20099999999804,0.28339869941046875,-1.4149647258460651
17.400999999998284,0.2475599996287959,-1.3701093648650138
17.60099999999853,0.2179716459547821,-1.321598052808849
17.800999999998773,0.18751777055911298,-1.2828591576000523
18.000999999999017,0.1553172035491024,-1.2577223587783937
18.20099999999926,0.12028724722126187,-1.2369346158352175
18.400999999999506,0.09028283646317882,-1.2015992505875488
18.60099999999975,0.06204921128290637,-1.1694951177373096
18.799999999999994,0.031743002833018646,-1.1324098007554237
19.000000000000238,-0.006106830882762047,-1.1104247484667031
19.200000000000482,-0.049888439668655055,-1.089195216421425
19.400000000000727,-0.09235459719431353,-1.0611702147780122
19.60000000000097,-0.1388393913533324,-1.030246853218465
19.800000000001216,-0.17572305979538275,-0.996545522943663
20.00000000000146,-0.202747497836532,-0.9609216447385639
