Time (s),X (m),Y (m)
0.001,0.0011130987088041246,0.0005155841445599734
0.20000000000000015,-0.0025667894792421844,-0.0026031227490338708
0.4000000000000003,0.0005696485576824264,-0.003805455709577602
0.6000000000000004,0.0059880833903733196,0.0020082292213144
0.8000000000000006,0.01503764444337357,0.00719882749862106
1.0000000000000007,0.03525253450758041,0.010776788021026251
1.2009999999999785,0.05373465155415062,0.018405970740970928
1.4009999999999565,0.07258574408113307,0.01903947277832635
1.6009999999999345,0.08639696758002578,0.01352746298241217
1.8009999999999124,0.08747099627512701,0.008352544402586095
2.0009999999998906,0.08872234662000847,-0.0034510277009282557
2.2009999999998686,0.10672140754717882,-0.02099888699426727
2.4009999999998466,0.12954989137344178,-0.033934699118664
2.6009999999998246,0.15443328577799825,-0.05079744946485861
2.8009999999998025,0.1692898247203525,-0.0676485546216837
3.0009999999997805,0.18050275026182594,-0.08512071544932509
3.2009999999997585,0.20455997466569353,-0.10985181339246311
3.4009999999997365,0.22401196684588642,-0.1377264344296184
3.6009999999997144,0.24727740793968242,-0.16797972986565113
3.8009999999996924,0.2718757625674067,-0.19615013914634133
4.000999999999671,0.29995408138169,-0.2340445812860551
4.200999999999738,0.3258980495650164,-0.268882762936999
4.400999999999804,0.3591231153426407,-0.30555740307863716
4.600999999999871,0.3934491532249291,-0.3437841255122307
4.800999999999938,0.43322481580534683,-0.3833692210862634
5.000000000000004,0.47514352764014467,-0.42416412970974976
5.200000000000071,0.5106168154953311,-0.4634283118509228
5.400000000000138,0.5365189086441555,-0.49957347458191737
5.600000000000205,0.5685120197735375,-0.5374815018726837
5.800000000000272,0.6063417784662234,-0.5749531758045043
6.000000000000338,0.6434984789470661,-0.6086985188846162
6.200000000000405,0.6774874890131808,-0.6434579103065843
6.400000000000472,0.7109016372950067,-0.6766316320771447
6.600000000000539,0.7438271745218288,-0.7073269330020568
6.800000000000606,0.7882070846466626,-0.7338932384114927
7.000000000000672,0.8276073220583202,-0.7654730638381164
7.200000000000739,0.8739553210306672,-0.8095948434471993
7.400000000000806,0.9179201788128564,-0.8556639422788586
7.600000000000873,0.960584992841832,-0.8983112640004265
7.8000000000009395,1.004916953921618,-0.9444658245222799
8.000000000001005,1.0519816631961678,-0.9942548689328828
8.200000000000895,1.1054744366867693,-1.0483480125814253
8.400000000000784,1.1572239049893684,-1.1021926199392669
8.600000000000673,1.2160519523485254,-1.1609872181308367
8.800000000000562,1.2719534191417856,-1.217642156827332
9.000000000000451,1.335320854528615,-1.2836851321698897
9.20000000000034,1.381873851457079,-1.3438449080418162
9.40000000000023,1.4259903871971351,-1.399546951623321
9.600000000000119,1.4673816435985192,-1.4560246103355596
9.800000000000008,1.5211131792773145,-1.5092914985949664
10.000999999999896,1.5735166336366881,-1.5632217891518525
10.200999999999786,1.6334113450230117,-1.6204839583246113
10.400999999999675,1.695351632723098,-1.6831985694357527
10.600999999999564,1.7445895481227085,-1.7394813549791628
10.800999999999453,1.7861134212489287,-1.7903976859583979
11.000999999999342,1.8379290987128032,-1.8385763678454519
11.200999999999231,1.891938587858267,-1.8886976521104377
11.40099999999912,1.9448673537260004,-1.944225286907839
11.60099999999901,1.9933610335585021,-2.001989493581514
11.800999999998899,2.048100586899518,-2.0613529854976345
12.000999999998788,2.1002596799432705,-2.1177676027492627
12.200999999998677,2.1587728457685693,-2.1764080133748536
12.400999999998566,2.216739242966481,-2.2382576898634357
12.600999999998455,2.268406313911277,-2.2963445667107796
12.800999999998345,2.3308829143177245,-2.3611694118224107
13.000999999998234,2.3955457023467575,-2.430134300625336
13.200999999998123,2.461029190621441,-2.502737048810888
13.400999999998012,2.5262386123801153,-2.578018316515962
13.600999999997901,2.583808598070231,-2.6431021365178826
13.80099999999779,2.6477352457986743,-2.7172198952632445
14.00099999999768,2.710877486272175,-2.792654307543125
14.200999999997569,2.7631113809033763,-2.8628133879676327
14.400999999997458,2.805129392914752,-2.9258724218234184
14.600999999997347,2.8289516973552074,-2.987461512910478
14.800999999997236,2.8275987745279827,-3.0558904205501496
15.000999999997125,2.8074745108250836,-3.12321657507636
15.200999999997014,2.787184486630659,-3.1876493189176087
15.400999999996904,2.7702462600193374,-3.2414497833292
15.600999999996793,2.750545683730118,-3.2998932553025413
15.800999999996682,2.7231132337705217,-3.364856698865928
16.000999999996573,2.6852131485240487,-3.4287011886716594
16.200999999996817,2.6360799671219537,-3.485872188243986
16.40099999999706,2.578797006170646,-3.5444584025723485
16.600999999997306,2.5158630380176445,-3.608307418224616
16.80099999999755,2.448236608098937,-3.6740672804219
17.000999999997795,2.3857557728252368,-3.731262166442888
17.20099999999804,2.3244833065302988,-3.7876279768686096
17.400999999998284,2.2686194329636886,-3.84465620736223
17.60099999999853,2.217499005131589,-3.907050944759751
17.800999999998773,2.1706748505083744,-3.966156661858877
18.000999999999017,2.1225739573639415,-4.043316500658225
18.20099999999926,2.066109004027386,-4.119824324793712
18.400999999999506,2.0055178177820103,-4.1910279945126385
18.60099999999975,1.939889573027646,-4.26130881572309
18.799999999999994,1.8813491570287812,-4.309707622717271
19.000000000000238,1.8179291068506804,-4.357960743585739
19.200000000000482,1.759433788109345,-4.411007778258045
19.400000000000727,1.719446826636186,-4.469738159816013
19.60000000000097,1.6974592281450236,-4.539159826087986
19.800000000001216,1.6742252612454838,-4.590856385174571
20.00000000000146,1.6379802098114893,-4.648338696146142
