Time (s),X (m),Y (m)
0.001,0.0012355833006349724,0.00017906049427360518
0.20000000000000015,-0.004500116398347974,-0.0009033906082168073
0.4000000000000003,0.00045953782311678837,0.0007892041512410259
0.6000000000000004,0.013831075208950067,0.006156268385805334
0.8000000000000006,0.035291820983972086,0.006547679825590193
1.0000000000000007,0.04479836132221496,0.002295827883817826
1.2009999999999785,0.048535323184273296,-0.0004018408537382456
1.4009999999999565,0.05611012902770842,-0.005909844974130226
1.6009999999999345,0.0740725252433411,-0.014904245336412289
1.8009999999999124,0.09158988978240729,-0.021776625111373273
2.0009999999998906,0.11523181541204043,-0.03589159488502012
2.2009999999998686,0.14763238717993044,-0.054193848023722666
2.4009999999998466,0.18678193616637867,-0.07838849006182426
2.6009999999998246,0.2238115345959631,-0.10651301812957473
2.8009999999998025,0.25823435479540635,-0.13655515495137413
3.0009999999997805,0.28490297204528386,-0.16915192301818396
3.2009999999997585,0.2991683415863503,-0.19820794707165418
3.4009999999997365,0.30416905230531566,-0.2233073006766786
3.6009999999997144,0.30098760685146425,-0.25317641264883206
3.8009999999996924,0.29286201450705784,-0.2732015827843994
4.000999999999671,0.2730712392193522,-0.3073374957764205
4.200999999999738,0.2442413972248842,-0.3481602226821953
4.400999999999804,0.20353199483941856,-0.37629068637177865
4.600999999999871,0.1571532271766515,-0.3821541203843339
4.800999999999938,0.11452335800662902,-0.3721708871319599
5.000000000000004,0.07401364345365578,-0.35326275584121075
5.200000000000071,0.031842140639841914,-0.32849978832150495
5.400000000000138,-0.013999724370330887,-0.29405857147898706
5.600000000000205,-0.05369254525743622,-0.25624347205577497
5.800000000000272,-0.07040554481448606,-0.2123844856706486
6.000000000000338,-0.06575932522115255,-0.16689694209882097
6.200000000000405,-0.047093674420396,-0.11327438110666131
6.400000000000472,-0.009536254685234658,-0.049473978653902684
6.600000000000539,0.026613192696919526,0.005115537865422117
6.800000000000606,0.060793007008234284,0.05224432701719647
7.000000000000672,0.09931341273108915,0.10039838384466868
7.200000000000739,0.14391288210537734,0.15238591806325694
7.400000000000806,0.19088638177581155,0.20393286939835745
7.600000000000873,0.24298811212264945,0.25453985907523197
7.8000000000009395,0.2973294367047584,0.2967935246462564
8.000000000001005,0.34041548945937555,0.32072924275569165
8.200000000000895,0.38251731441529396,0.3193850736996361
8.400000000000784,0.42579759646735826,0.3009320977843948
8.600000000000673,0.4726209305699169,0.27131374064664426
8.800000000000562,0.5216508133406715,0.23110813144964346
9.000000000000451,0.5705806102960571,0.19492000998190787
9.20000000000034,0.6128291761627693,0.15602335061621625
9.40000000000023,0.6356978577552426,0.11357908162800487
9.600000000000119,0.6451279096845014,0.06913167392759742
9.800000000000008,0.6437898741184086,0.022949960548739236
10.000999999999896,0.6308718460361115,-0.020227255922802917
10.200999999999786,0.6111390518835512,-0.0546623284335886
10.400999999999675,0.5850237531613393,-0.09119489492925052
10.600999999999564,0.5650784785597244,-0.12286127458187779
10.800999999999453,0.5391497382327404,-0.1670240259506955
11.000999999999342,0.5093957261345385,-0.21896293688532908
11.200999999999231,0.48463123439632405,-0.26319228260186434
11.40099999999912,0.4573401207972644,-0.3132116962702011
11.60099999999901,0.42492320395446537,-0.3614399898258092
11.800999999998899,0.3891321487444937,-0.4122861556283924
12.000999999998788,0.3527565222950153,-0.46668182288403337
12.200999999998677,0.31349579166059266,-0.5196470489381575
12.400999999998566,0.26670298004003956,-0.5799460591756331
12.600999999998455,0.21585745957616573,-0.6427244823701428
12.800999999998345,0.15652335162267886,-0.704754440218275
13.000999999998234,0.10377463077220309,-0.7565678599421675
13.200999999998123,0.059026484291929214,-0.7823044868141354
13.400999999998012,0.005771715150597875,-0.7758616853737922
13.600999999997901,-0.04963941805270109,-0.756530720030124
13.80099999999779,-0.10521660512571825,-0.7233380540204598
14.00099999999768,-0.1616836308090107,-0.6794852090658857
14.200999999997569,-0.2182128312689918,-0.6368028518949411
14.400999999997458,-0.2705226782690018,-0.5955221471226643
14.600999999997347,-0.3160798357133014,-0.5543892068253845
14.800999999997236,-0.3426288949628227,-0.504736685637327
15.000999999997125,-0.3431280575259597,-0.4455215889450137
15.200999999997014,-0.3261124982104345,-0.38890174587711274
15.400999999996904,-0.2976849523508971,-0.32705494963666837
15.600999999996793,-0.25619211379844536,-0.2677004122171375
15.800999999996682,-0.21661833303548492,-0.21256712980117018
16.000999999996573,-0.1713528546674303,-0.15843314859274144
16.200999999996817,-0.12628201864704797,-0.10850771614583994
16.40099999999706,-0.07925393774124993,-0.08409499295748751
16.600999999997306,-0.02049024316778974,-0.09875127149832562
16.80099999999755,0.04317062085912766,-0.1322504502637209
17.000999999997795,0.10084513897811709,-0.17133239618705515
17.20099999999804,0.16285114862775169,-0.2125062525651418
17.400999999998284,0.23221327790882604,-0.25791649837668024
17.60099999999853,0.29601944679377207,-0.3041553450184486
17.800999999998773,0.3589961137494324,-0.3537276054799131
18.000999999999017,0.4113073682747581,-0.40416223255159894
18.20099999999926,0.4498460380499439,-0.4553909241877011
18.400999999999506,0.4658218386753311,-0.49614943017319246
18.60099999999975,0.4554567815013512,-0.5376496603102213
18.799999999999994,0.4346482397051168,-0.576910634765772
19.000000000000238,0.40276982147508167,-0.6286326461487924
19.200000000000482,0.3740883692807862,-0.6820075717740156
19.400000000000727,0.3447868529193577,-0.7452132993952356
19.60000000000097,0.311420794827844,-0.8163258033839584
19.800000000001216,0.2704766824223184,-0.8882340853101597
20.00000000000146,0.2262913579265526,-0.9470438054333902
