Time (s),X (m),Y (m)
0.001,0.0012473251573109415,8.987223813608099e-05
0.20000000000000015,-0.00014965268375570923,9.754659152620419e-05
0.4000000000000003,0.0035422677653029586,0.00042103347180451496
0.6000000000000004,0.006972909672756109,0.0006853557642725286
0.8000000000000006,0.009455774535591844,0.000999514783546172
1.0000000000000007,0.012563371000608583,0.003110156255881034
1.2009999999999785,0.015473940749652526,0.003431410631526227
1.4009999999999565,0.0169229032138458,0.0036490686120080893
1.6009999999999345,0.018157955192405022,0.004003702805435903
1.8009999999999124,0.0194012176236694,0.004389932178975045
2.0009999999998906,0.020442909078618444,0.00471302940208522
2.2009999999998686,0.02168485671892595,0.005050231348748236
2.4009999999998466,0.022881123144743807,0.005371386311829624
2.6009999999998246,0.023968555329746666,0.005680954987477321
2.8009999999998025,0.025153769378568825,0.0059768768303184346
3.0009999999997805,0.02635949085689219,0.006298547092049685
3.2009999999997585,0.027612397455968794,0.006609102108167381
3.4009999999997365,0.02881521163680844,0.0069394972084535315
3.6009999999997144,0.02998320466355407,0.0072574848534137665
3.8009999999996924,0.031175151604654935,0.007596890512040868
4.000999999999671,0.032403491994097665,0.007923693078674215
4.200999999999738,0.03363678746082877,0.008276172671325834
4.400999999999804,0.035048039727761375,0.008662824070308587
4.600999999999871,0.03640303749875944,0.009010332577917227
4.800999999999938,0.037867107927370955,0.009406680979356036
5.000000000000004,0.03926631325581264,0.009766763054833615
5.200000000000071,0.0407339587050363,0.010151629811936071
5.400000000000138,0.042196011003387525,0.010547465270434956
5.600000000000205,0.04379629256100089,0.010973879653912073
5.800000000000272,0.04532202174816682,0.011411242318035938
6.000000000000338,0.04695093301662561,0.011872680575908824
6.200000000000405,0.04857772222070282,0.01233545977176172
6.400000000000472,0.05030927561694796,0.01286273750489831
6.600000000000539,0.05202971287913607,0.013385570818613725
6.800000000000606,0.05376939236327916,0.013931124951871748
7.000000000000672,0.055503852778633296,0.014501347186820793
7.200000000000739,0.057361745280722826,0.015102214795994141
7.400000000000806,0.059152753615219544,0.015731810144219642
7.600000000000873,0.06098756233511738,0.016355201215290983
7.8000000000009395,0.06287407753770628,0.017072609895440356
8.000000000001005,0.0647942578576995,0.017799780471463928
8.200000000000895,0.06669747846943912,0.018548969169383665
8.400000000000784,0.06864075352132605,0.019322506136110314
8.600000000000673,0.07054989279538212,0.02015075178596964
8.800000000000562,0.07258113577131999,0.021020858925145908
9.000000000000451,0.07452208950235016,0.021890852291474444
9.20000000000034,0.07649884112942526,0.022764913133101708
9.40000000000023,0.07854477973610421,0.023754319212983682
9.600000000000119,0.08051778740675486,0.024701711245432023
9.800000000000008,0.08254557249645993,0.025720339557529948
10.000999999999896,0.08461430519390284,0.027503588425882478
10.200999999999786,0.0877320498651892,0.029585062911172837
10.400999999999675,0.09213927919803865,0.033546357799675776
10.600999999999564,0.09623159228366626,0.03753970909873943
10.800999999999453,0.10075327625046605,0.04187488393750967
11.000999999999342,0.10487322580803815,0.046214971625414984
11.200999999999231,0.10966059171126166,0.05095759099674843
11.40099999999912,0.1116943363754816,0.05466988275469376
11.60099999999901,0.11441731089801929,0.058837296909420904
11.800999999998899,0.11586677073914266,0.06195153333743894
12.000999999998788,0.11706228521551501,0.0650746802327525
12.200999999998677,0.11912436406810588,0.06881454327166098
12.400999999998566,0.12028428159153516,0.07201386885100794
12.600999999998455,0.12190105082441476,0.07533486062649053
12.800999999998345,0.12215906199926285,0.07787414379432336
13.000999999998234,0.12331050996135523,0.08113008502969608
13.200999999998123,0.12383656177216601,0.08383131338949895
13.400999999998012,0.12340023064479637,0.0859003699307384
13.600999999997901,0.12375235605216955,0.08870261598376121
13.80099999999779,0.12404394767669408,0.09131760060403225
14.00099999999768,0.1239443861364679,0.0936687497397526
14.200999999997569,0.12350472355916191,0.09532481552726815
14.400999999997458,0.1221943464853387,0.0970092630318649
14.600999999997347,0.12267495946148385,0.0999575830677448
14.800999999997236,0.12152546068623601,0.10151021916890272
15.000999999997125,0.1217185236247323,0.10401152017516678
15.200999999997014,0.12040254099296631,0.10499665322200093
15.400999999996904,0.11943948332180769,0.10642574845157021
15.600999999996793,0.11814767329116044,0.10742555318169585
15.800999999996682,0.11687253357148804,0.1087171515482917
16.000999999996573,0.11511519848243718,0.10954302519489258
16.200999999996817,0.11367073682825955,0.11043626439926237
16.40099999999706,0.11178622701547193,0.11081472728631098
16.600999999997306,0.1101343239321145,0.11151605190708046
16.80099999999755,0.1085543099300798,0.11304811875868254
17.000999999997795,0.10860668010480976,0.11672591877801476
17.20099999999804,0.10970935168126317,0.11995543595611403
17.400999999998284,0.11068772390570956,0.12319328248122219
17.60099999999853,0.11156899425469334,0.12620911757960968
17.800999999998773,0.11238114391399183,0.12923984278467587
18.000999999999017,0.11338618349940803,0.13289985044649838
18.20099999999926,0.1142617766290198,0.13654761158829543
18.400999999999506,0.11507339690209116,0.1403055846982904
18.60099999999975,0.11582036009571482,0.144229143599489
18.799999999999994,0.11637481794856484,0.148063419422056
19.000000000000238,0.11697727101567579,0.15241256882808618
19.200000000000482,0.11743569042534116,0.15693543851792555
19.400000000000727,0.11775654923742175,0.16117510449441586
19.60000000000097,0.11816097930926096,0.16591296521771573
19.800000000001216,0.11838262111939443,0.17157182265662832
20.00000000000146,0.11851500415071475,0.1774728985388765
