Time (s),X (m),Y (m)
0.001,-0.0006729371591054965,0.000515584144559974
0.20000000000000015,0.006415761985646498,-0.002141599799347949
0.4000000000000003,0.020131913392538742,-0.008341715968182522
0.6000000000000004,0.04355506174831953,-0.01747645635399534
0.8000000000000006,0.060014938090671606,-0.022124374408985698
1.0000000000000007,0.07784950320507847,-0.019941818698142603
1.2009999999999785,0.11629108741444623,-0.025006001632058725
1.4009999999999565,0.15844842815128984,-0.02788760178092994
1.6009999999999345,0.1982178827300299,-0.03445319612879547
1.8009999999999124,0.24110731973384128,-0.04789602479509681
2.0009999999998906,0.2955861964868805,-0.07395003751164451
2.2009999999998686,0.34994608411232236,-0.10851298305692791
2.4009999999998466,0.3972469046078894,-0.12656937865535217
2.6009999999998246,0.4348083195601793,-0.13941826223316045
2.8009999999998025,0.45224378282044636,-0.16849245707843907
3.0009999999997805,0.4517066004912812,-0.20576948589472133
3.2009999999997585,0.4462736124084942,-0.24701733394569922
3.4009999999997365,0.42675251367940736,-0.289305243520092
3.6009999999997144,0.4118108491524525,-0.33286651983107085
3.8009999999996924,0.3918442515885938,-0.3776171245109715
4.000999999999671,0.3649218794091768,-0.417895826172559
4.200999999999738,0.3514602824960394,-0.4589884900260468
4.400999999999804,0.34449287213008345,-0.4945003843644567
4.600999999999871,0.3184588548241241,-0.5250557565683817
4.800999999999938,0.2798250631747771,-0.5432232475208503
5.000000000000004,0.21684433559036362,-0.5536543131858426
5.200000000000071,0.16515265731885803,-0.5524329892673729
5.400000000000138,0.11574343233236552,-0.5504287871506937
5.600000000000205,0.06818576982183422,-0.5486423407886954
5.800000000000272,0.01841833172570238,-0.52776568858888
6.000000000000338,-0.028825706758494943,-0.4877586720825678
6.200000000000405,-0.057558637479757174,-0.44559650738116086
6.400000000000472,-0.05656572474775495,-0.3968128766967146
6.600000000000539,-0.0339439299358993,-0.3406726324105769
6.800000000000606,-0.015075307563131853,-0.2771935624152913
7.000000000000672,-0.012112715228150984,-0.22336084305752507
7.200000000000739,-0.0190526594933757,-0.1774821020334936
7.400000000000806,-0.013463989091993644,-0.12676055999163255
7.600000000000873,0.005588793985501773,-0.07566406139816066
7.8000000000009395,0.034337155131828306,-0.02711144049399138
8.000000000001005,0.07160356342568926,0.008499420190357264
8.200000000000895,0.11518570834514297,0.02977949962011105
8.400000000000784,0.16712311003510197,0.03186162034575643
8.600000000000673,0.22782346661936256,0.017238856285613054
8.800000000000562,0.29094794844388305,-0.006424783733336492
9.000000000000451,0.3500729781719742,-0.03228162893313554
9.20000000000034,0.4099596761254384,-0.0458860473034837
9.40000000000023,0.464187201980854,-0.06922016651593421
9.600000000000119,0.49959419783857156,-0.11013920125835992
9.800000000000008,0.517831120295807,-0.15767832672393697
10.000999999999896,0.5221440504442866,-0.2055603432882155
10.200999999999786,0.5108582021351359,-0.25803826952877423
10.400999999999675,0.48625708501983445,-0.3063306385164404
10.600999999999564,0.44506866780340176,-0.3346090347868074
10.800999999999453,0.3880496431928079,-0.3365100336571579
11.000999999999342,0.33322809690871796,-0.32932010086327757
11.200999999999231,0.27455602874044727,-0.3143037456513323
11.40099999999912,0.21174330147961243,-0.2831110360922124
11.60099999999901,0.14978306740547706,-0.24678207909953204
11.800999999998899,0.10359857669676842,-0.20698188339715895
12.000999999998788,0.09014560938200918,-0.1534322837717273
12.200999999998677,0.10539188488030743,-0.09230463093706677
12.400999999998566,0.12954888791560498,-0.027984523809468795
12.600999999998455,0.1696788783343411,0.030571378636816433
12.800999999998345,0.2046270178639923,0.08789307719660015
13.000999999998234,0.2477210310729549,0.12801918931121506
13.200999999998123,0.2886266451944626,0.14632479271631801
13.400999999998012,0.33949697928448647,0.14271309281791
13.600999999997901,0.40026902261368025,0.118065509479361
13.80099999999779,0.4648448509053567,0.08167560820264072
14.00099999999768,0.5230951257670087,0.0504676022361095
14.200999999997569,0.579454007644751,0.027968087461964553
14.400999999997458,0.6380001205462524,-0.006805426064702956
14.600999999997347,0.6949493406983868,-0.04394720404987624
14.800999999997236,0.7407220991105558,-0.08831748617444475
15.000999999997125,0.7702204651846086,-0.13511823273693635
15.200999999997014,0.7835510794945721,-0.19145674684070071
15.400999999996904,0.7794652293520822,-0.2545763945850563
15.600999999996793,0.7618144145604061,-0.3191673367843722
15.800999999996682,0.7279578173771355,-0.3855302807099863
16.000999999996573,0.6887448616654995,-0.4433226996334913
16.200999999996817,0.6456535997979046,-0.4845344588594683
16.40099999999706,0.5972593887577158,-0.4996829636708202
16.600999999997306,0.5441568398162422,-0.49795400150187574
16.80099999999755,0.48519771722973104,-0.4889539256927339
17.000999999997795,0.4203936495473099,-0.47779310895741306
17.20099999999804,0.3541159169463478,-0.4677484631831885
17.400999999998284,0.2943037408441019,-0.459509805594251
17.60099999999853,0.2307630448560863,-0.4510492810545592
17.800999999998773,0.16708871870105702,-0.4356153205405841
18.000999999999017,0.10844834924622548,-0.4062397064885322
18.20099999999926,0.07370886971772841,-0.3493968253920849
18.400999999999506,0.063590030638175,-0.30742847759983727
18.60099999999975,0.06475105620561691,-0.254103973378879
18.799999999999994,0.08025161745976239,-0.1884685241033592
19.000000000000238,0.09151008400330556,-0.13900443992956119
19.200000000000482,0.0940975494997384,-0.08986972551391254
19.400000000000727,0.11213720067023666,-0.02881795264974748
19.60000000000097,0.13677934285902427,0.028573984704107436
19.800000000001216,0.15944878817295285,0.08602960930736138
20.00000000000146,0.19683508940230912,0.13217080192548303
