Time (s),X (m),Y (m)
0.001,-0.00013259955118837574,-0.0009689812320744441
0.20000000000000015,-0.0013672052339367198,-0.004736286916049435
0.4000000000000003,0.0011103835477136877,-0.001727064511899664
0.6000000000000004,0.004084251766030462,-0.010260938735873033
0.8000000000000006,0.009310860859628463,-0.008405649285133675
1.0000000000000007,0.012390081250266305,-0.0022488845633084923
1.2009999999999785,0.01978264366542442,0.0007159456135627499
1.4009999999999565,0.027113499975697997,0.006342926565378288
1.6009999999999345,0.035695389826672745,0.012081967102025668
1.8009999999999124,0.043814409473514435,0.01684065136758502
2.0009999999998906,0.05066004996738078,0.01839985892425773
2.2009999999998686,0.05646467528977287,0.017103681330209296
2.4009999999998466,0.062259846968308524,0.021928474363766524
2.6009999999998246,0.07186165466163458,0.02918338057243207
2.8009999999998025,0.07941679968065096,0.03618068677257634
3.0009999999997805,0.08801912547603342,0.03787047358225995
3.2009999999997585,0.09456262951686815,0.03671721289632951
3.4009999999997365,0.101155614714047,0.03286423096610818
3.6009999999997144,0.10711459141417369,0.03222195936775815
3.8009999999996924,0.1118145515745804,0.03657946738694897
4.000999999999671,0.1179276293803725,0.035992201776998196
4.200999999999738,0.1247873076629384,0.03890878597402259
4.400999999999804,0.13074960782034273,0.04512127916002755
4.600999999999871,0.1356516840088398,0.05501069068623892
4.800999999999938,0.13945460393445552,0.060036420599942665
5.000000000000004,0.14245110629401223,0.06867029011999602
5.200000000000071,0.14597953044563586,0.07654793505323015
5.400000000000138,0.14956368058319253,0.08671683302795788
5.600000000000205,0.15339386439017968,0.09817902828045348
5.800000000000272,0.15658540879232813,0.10407561786929057
6.000000000000338,0.1587593706731983,0.10962658356386439
6.200000000000405,0.1623370885279467,0.11500248911074444
6.400000000000472,0.16029064324124082,0.12728197285940282
6.600000000000539,0.1598567325267169,0.13757129825069342
6.800000000000606,0.16322931744312355,0.14213766262913982
7.000000000000672,0.1630480832390381,0.15047502661268153
7.200000000000739,0.16329901641049444,0.1586081853452078
7.400000000000806,0.15702808697685086,0.16984364530837942
7.600000000000873,0.15416354541648838,0.17975659935436047
7.8000000000009395,0.1492263859341926,0.18914031679188129
8.000000000001005,0.14625267933500918,0.19768389591580096
8.200000000000895,0.14536987063739332,0.205506773969652
8.400000000000784,0.14260209903844875,0.21399562470089875
8.600000000000673,0.1376155762037645,0.22302447669960276
8.800000000000562,0.13486891569604548,0.23021058996809718
9.000000000000451,0.13114495745203875,0.2365598046072033
9.20000000000034,0.12832843301033492,0.2443718954163694
9.40000000000023,0.1266150648309053,0.2493056365805996
9.600000000000119,0.12051192836065294,0.25585380642094185
9.800000000000008,0.1107666972095402,0.26293120043861173
10.000999999999896,0.1078327270701941,0.27025310474386705
10.200999999999786,0.09981154328204857,0.2757258100898887
10.400999999999675,0.09075645777697446,0.2817085321231911
10.600999999999564,0.08365138079966532,0.2874372850165008
10.800999999999453,0.07338610905508772,0.2926790625940507
11.000999999999342,0.06866972951542291,0.29789098447188195
11.200999999999231,0.062213971305504226,0.3018871088480943
11.40099999999912,0.06277797173290778,0.30826344933735894
11.60099999999901,0.053170295442392546,0.30945390475405804
11.800999999998899,0.045868441833979944,0.3136471804828104
12.000999999998788,0.037957088975940474,0.3174922887228462
12.200999999998677,0.030669188835129695,0.31807673462387925
12.400999999998566,0.025052288351186527,0.3232730060878772
12.600999999998455,0.016620937160884544,0.328045479356621
12.800999999998345,0.009355690689048074,0.3281334558337126
13.000999999998234,-0.0006445003902713213,0.3277745983097742
13.200999999998123,-0.009303800430650218,0.3291379525449815
13.400999999998012,-0.017756323858869303,0.3288319826494138
13.600999999997901,-0.025889545920753713,0.32739911322032744
13.80099999999779,-0.03433527397782182,0.32379834322062057
14.00099999999768,-0.04121692613235541,0.3250715279545162
14.200999999997569,-0.049031405901750306,0.32306458048663766
14.400999999997458,-0.05664973213610807,0.3177007922824766
14.600999999997347,-0.06408969562144429,0.3123951123316778
14.800999999997236,-0.07236455154290214,0.30746894618903964
15.000999999997125,-0.08089537077994974,0.3040990775590729
15.200999999997014,-0.09079663023114236,0.3028635701800934
15.400999999996904,-0.09819427629749888,0.298459091895219
15.600999999996793,-0.10666944951559429,0.2916538765519827
15.800999999996682,-0.11333795341424127,0.28042884508145055
16.000999999996573,-0.12075896712124591,0.27348166651807204
16.200999999996817,-0.12592450802088712,0.2655973657678318
16.40099999999706,-0.129073715442323,0.2584759782705955
16.600999999997306,-0.13356103555590726,0.2515971119249316
16.80099999999755,-0.1367062581272885,0.24578216772103403
17.000999999997795,-0.13997905777181388,0.23868483296603835
17.20099999999804,-0.14143825334571253,0.2307503064660227
17.400999999998284,-0.14582911460268808,0.2264026492349053
17.60099999999853,-0.15193039783444504,0.21984387126348007
17.800999999998773,-0.1573896913498423,0.21270886259630145
18.000999999999017,-0.15871897041254623,0.20460574403096168
18.20099999999926,-0.15924202542082294,0.1945088200434156
18.400999999999506,-0.1609837626923487,0.18294433244986097
18.60099999999975,-0.1621424342072808,0.1751450448220604
18.799999999999994,-0.16479455046277153,0.16898151948886722
19.000000000000238,-0.1666855446690225,0.16101147651296313
19.200000000000482,-0.16943275765787144,0.15073396511793397
19.400000000000727,-0.16650704418412066,0.1411756433399067
19.60000000000097,-0.16803666495115166,0.1326534492559292
19.800000000001216,-0.1680563087177442,0.12360732085809054
20.00000000000146,-0.16673698013743152,0.11550670615489451
