Time (s),X (m),Y (m)
0.001,0.0007356649194092869,-0.0008930179339548115
0.20000000000000015,0.004007915297535588,-0.0034952479015258934
0.4000000000000003,0.006197600950951421,-0.003670212683844242
0.6000000000000004,0.00868666062203286,0.0034669002369423127
0.8000000000000006,0.017057196771372657,-0.000724545569939441
1.0000000000000007,0.028218906828681892,-0.007891565750303791
1.2009999999999785,0.03471056913118633,0.004287062472258965
1.4009999999999565,0.034742616338336786,0.004115501878557993
1.6009999999999345,0.04137641010067933,0.00507768647662569
1.8009999999999124,0.049023278487139964,0.0026320266398969644
2.0009999999998906,0.057504822748722866,-0.00964803265000589
2.2009999999998686,0.06251486936581141,-0.012384441855142765
2.4009999999998466,0.07065289545895612,-0.010788660796573958
2.6009999999998246,0.07819433712184469,-0.019007687579201363
2.8009999999998025,0.08200997689884174,-0.01756413682536148
3.0009999999997805,0.08879171116495319,-0.024352669812421922
3.2009999999997585,0.09447777511183036,-0.038990281596390806
3.4009999999997365,0.09702535675757148,-0.040551575022254704
3.6009999999997144,0.10252189695725154,-0.04549447210645788
3.8009999999996924,0.11606367969656421,-0.051266166602203116
4.000999999999671,0.12181747625054017,-0.05950382414303028
4.200999999999738,0.12784427854352748,-0.06103394086630813
4.400999999999804,0.13684871861059755,-0.06409563076701455
4.600999999999871,0.1441180499168201,-0.07017509486958226
4.800999999999938,0.15108283284279678,-0.07608062990785358
5.000000000000004,0.15686028865695928,-0.08400716693760225
5.200000000000071,0.16484163969486879,-0.0878846123039059
5.400000000000138,0.1696995291371157,-0.09255321742817725
5.600000000000205,0.17557625384933356,-0.10079662712626482
5.800000000000272,0.1856199839851856,-0.10390377894301928
6.000000000000338,0.19393006676145755,-0.10614167114774042
6.200000000000405,0.2000084565915267,-0.11745690451412732
6.400000000000472,0.2083611414458398,-0.11560706228267288
6.600000000000539,0.21436576942696806,-0.12238189891028355
6.800000000000606,0.21924660421596112,-0.12778451704868277
7.000000000000672,0.22438669704850497,-0.13327189176290163
7.200000000000739,0.22952354994175228,-0.1384229690071526
7.400000000000806,0.23368110995993333,-0.14852608254977445
7.600000000000873,0.23997754222274673,-0.1578884658085379
7.8000000000009395,0.24640827037993732,-0.16234959882925915
8.000000000001005,0.2516348186166566,-0.16825547826583048
8.200000000000895,0.25928033172759646,-0.17656786040611186
8.400000000000784,0.26412203877147594,-0.1857852980930505
8.600000000000673,0.27130405873124636,-0.18713298708418133
8.800000000000562,0.27801056659848367,-0.19974719770421215
9.000000000000451,0.283985593703035,-0.2042656236363537
9.20000000000034,0.28363208112579524,-0.2197591996852622
9.40000000000023,0.2911642867943236,-0.2282872006993014
9.600000000000119,0.29409115894001936,-0.23599150282636694
9.800000000000008,0.29622829280376906,-0.24333111387977796
10.000999999999896,0.29881515967726885,-0.2522204283906775
10.200999999999786,0.30390464161293007,-0.25241619887148814
10.400999999999675,0.3115171451602564,-0.2576873389252369
10.600999999999564,0.3182253372137003,-0.2640834449004345
10.800999999999453,0.3198068793570377,-0.2736571191704211
11.000999999999342,0.32666663718803723,-0.27187072337657225
11.200999999999231,0.34077440816323273,-0.2674946315389625
11.40099999999912,0.3510408740083744,-0.28076000986072264
11.60099999999901,0.35750986896244374,-0.2890648068602304
11.800999999998899,0.3642054367077407,-0.2918546663066329
12.000999999998788,0.36789697263114596,-0.3013120567351248
12.200999999998677,0.3720316534327461,-0.3112994999464112
12.400999999998566,0.37786913914939374,-0.3176961501886783
12.600999999998455,0.38562685006929803,-0.31744472210299096
12.800999999998345,0.38924876773327033,-0.3274805839962765
13.000999999998234,0.39100526745314257,-0.34303258760169264
13.200999999998123,0.392439239581573,-0.35385944308453365
13.400999999998012,0.39178901300740443,-0.36505095603911025
13.600999999997901,0.3935647123055571,-0.37307239133568854
13.80099999999779,0.39450067216202467,-0.38756349767014814
14.00099999999768,0.3931418649841286,-0.4054153209856422
14.200999999997569,0.3975112638026729,-0.4122124054594339
14.400999999997458,0.399040451587358,-0.41853177539273834
14.600999999997347,0.4035028082843051,-0.42451189697647723
14.800999999997236,0.40875784596171677,-0.4272610410940228
15.000999999997125,0.4082808705743874,-0.4385762810734472
15.200999999997014,0.4122968419197466,-0.4446399957818855
15.400999999996904,0.4179616387383808,-0.4541724870079871
15.600999999996793,0.4236250664501203,-0.4579488254808977
15.800999999996682,0.42612034889543865,-0.47146585234968663
16.000999999996573,0.4294292096141257,-0.4802493369944254
16.200999999996817,0.4354736081199164,-0.49321250242646825
16.40099999999706,0.4363591301995381,-0.5033436663512557
16.600999999997306,0.4420853772717699,-0.5016913680941267
16.80099999999755,0.44421992762143364,-0.519178092597718
17.000999999997795,0.44510915005862184,-0.5304020021240364
17.20099999999804,0.4470701037015109,-0.5477562350657071
17.400999999998284,0.4521751892270845,-0.5555126292880364
17.60099999999853,0.46193228697148236,-0.5631520915742518
17.800999999998773,0.46462866475165454,-0.5765457135888773
18.000999999999017,0.47124224289164207,-0.5832198512787496
18.20099999999926,0.48135382100324997,-0.5841613048929158
18.400999999999506,0.486889657400705,-0.5927094047518887
18.60099999999975,0.4980699038883809,-0.5996456153649107
18.799999999999994,0.5031507901974089,-0.6067778266327812
19.000000000000238,0.5088317291203889,-0.6108033459373595
19.200000000000482,0.5149869035484049,-0.6208300904200805
19.400000000000727,0.5252193053194073,-0.6228225513398605
19.60000000000097,0.5377337744521495,-0.6260315414675199
19.800000000001216,0.5455080650269366,-0.6325566601071856
20.00000000000146,0.551081638696679,-0.64494298523452
