Time (s),X (m),Y (m)
0.001,-0.0005090653149319316,0.0007291460897812449
0.20000000000000015,0.0035598022258574685,-0.0018575543187879374
0.4000000000000003,0.004882433849818554,-0.003166618082459752
0.6000000000000004,0.018934414866391615,-0.015499154785578841
0.8000000000000006,0.039501212110996116,-0.02116267384427706
1.0000000000000007,0.061616010325630785,-0.029596426867696386
1.2009999999999785,0.07748130233196403,-0.025781499242089865
1.4009999999999565,0.09576604481645293,-0.0255238553271555
1.6009999999999345,0.11554844277663924,-0.025531907935515387
1.8009999999999124,0.12457974742833736,-0.025045934628302916
2.0009999999998906,0.13605934494902513,-0.020186680156787984
2.2009999999998686,0.14672427920522432,-0.01193894595624296
2.4009999999998466,0.16447162434323798,-0.0057551278211755074
2.6009999999998246,0.19263050680174293,-0.0053015355524345786
2.8009999999998025,0.22004503349296556,-0.008247837812349675
3.0009999999997805,0.24221951141543197,-0.0077994424030358965
3.2009999999997585,0.2612480155688218,-0.0037731036414558705
3.4009999999997365,0.2762886249490289,-0.012222438995496847
3.6009999999997144,0.28709597289030786,-0.017843264963355428
3.8009999999996924,0.3061646202016307,-0.01909428824122976
4.000999999999671,0.3260313161210572,-0.01649640766304151
4.200999999999738,0.340126747380973,-0.015207548004804863
4.400999999999804,0.36179995291990524,-0.028181293358256386
4.600999999999871,0.38644272766450105,-0.022763953785194243
4.800999999999938,0.40903152398372095,-0.01725323088340149
5.000000000000004,0.4328737393666183,-0.013442884776981079
5.200000000000071,0.4558153315599843,-0.006612527115005488
5.400000000000138,0.4739786833700914,-0.0002449192852067502
5.600000000000205,0.4941296501367891,-0.00040168336741517544
5.800000000000272,0.5218318338561861,0.0005676582745749278
6.000000000000338,0.5436459339894816,-0.002288638414512979
6.200000000000405,0.5603797441115529,-0.007896073981456236
6.400000000000472,0.5849964538464492,-0.016996409414283133
6.600000000000539,0.6048506041368548,-0.016409373263900743
6.800000000000606,0.629379427833043,-0.038617280713712974
7.000000000000672,0.6509623720800909,-0.03483635794605674
7.200000000000739,0.6700076346881731,-0.031095355072788548
7.400000000000806,0.6904089226502119,-0.024272977965232336
7.600000000000873,0.7064118011308288,-0.024712136105245128
7.8000000000009395,0.717454107168163,-0.027762025978276206
8.000000000001005,0.7363476423059493,-0.03118985666661612
8.200000000000895,0.7561664689184993,-0.03732733851750937
8.400000000000784,0.7793635442592836,-0.04108599817788582
8.600000000000673,0.799440983349615,-0.050847836692060465
8.800000000000562,0.8111109235660686,-0.0715992577045624
9.000000000000451,0.8286302200013279,-0.08752267598878954
9.20000000000034,0.8432799842236974,-0.1092485298771792
9.40000000000023,0.8510309871164032,-0.13345481811425575
9.600000000000119,0.8556845336818799,-0.15968947100359418
9.800000000000008,0.8592716750927774,-0.1879614730486547
10.000999999999896,0.8626278153693938,-0.22001764524372067
10.200999999999786,0.8655075738114804,-0.24924609678596396
10.400999999999675,0.8686817292802494,-0.26707863664555015
10.600999999999564,0.8747516809679203,-0.28689704538284044
10.800999999999453,0.8827177173916363,-0.30717059302744026
11.000999999999342,0.8881116785185437,-0.3391757385302607
11.200999999999231,0.8927422256674199,-0.3701306939777438
11.40099999999912,0.8947227875527597,-0.3991020827536438
11.60099999999901,0.8963628717393515,-0.42737972757202547
11.800999999998899,0.9015070714242561,-0.4436337433220971
12.000999999998788,0.9104089057442999,-0.4625414136273438
12.200999999998677,0.9082893034679956,-0.4978986416576786
12.400999999998566,0.9122930511242161,-0.5218161235759151
12.600999999998455,0.912440139282603,-0.5496962127329045
12.800999999998345,0.9181485072836992,-0.5725441467628262
13.000999999998234,0.918416637361704,-0.5999168915846306
13.200999999998123,0.910410535113272,-0.6317525303012628
13.400999999998012,0.9028459403592838,-0.6586723620210774
13.600999999997901,0.9076451047294485,-0.6828410472596992
13.80099999999779,0.9036198043724766,-0.7025952829911414
14.00099999999768,0.8987098467753387,-0.7242296482217795
14.200999999997569,0.9005219916765147,-0.7474694385954214
14.400999999997458,0.8943351271467737,-0.7636872361112247
14.600999999997347,0.8789944003830488,-0.7800303627788209
14.800999999997236,0.8657152393305093,-0.8018362409085332
15.000999999997125,0.8602377052393788,-0.8224308305113125
15.200999999997014,0.852571666960429,-0.8337913362249961
15.400999999996904,0.8323267406091002,-0.8425890072461988
15.600999999996793,0.8052317101667765,-0.8473009403316051
15.800999999996682,0.7753983430500989,-0.8492498751867754
16.000999999996573,0.7574566943810102,-0.850485567833411
16.200999999996817,0.741565815930095,-0.8527086543999287
16.40099999999706,0.7204307629475376,-0.8561219998874143
16.600999999997306,0.6970128440100701,-0.8606530140314473
16.80099999999755,0.6699475769059071,-0.8642905502840014
17.000999999997795,0.6399712749394811,-0.8718781208534493
17.20099999999804,0.6174740473383978,-0.8758724871441966
17.400999999998284,0.5984684888391717,-0.8808071032421724
17.60099999999853,0.584476633222207,-0.8866725040287764
17.800999999998773,0.5665038353083803,-0.8902512644422965
18.000999999999017,0.5454407841975963,-0.8970502963656604
18.20099999999926,0.521467348289109,-0.8940072651942291
18.400999999999506,0.5002781460643969,-0.9028034418115988
18.60099999999975,0.4703698723166805,-0.9031209628265789
18.799999999999994,0.4419352351251665,-0.9050831411323581
19.000000000000238,0.4094053978132674,-0.8999641972302851
19.200000000000482,0.3813513584885651,-0.8988781659011892
19.400000000000727,0.34636411660096295,-0.88563225085046
19.60000000000097,0.32062286156135494,-0.8801871463493148
19.800000000001216,0.3029973769781204,-0.8870841429371235
20.00000000000146,0.2794281998874357,-0.8963618730652142
