Time (s),X (m),Y (m)
0.001,0.0008115346074009382,-0.0008446836120385868
0.20000000000000015,0.0010924918433994717,0.0020396750315742913
0.4000000000000003,-0.0021186705495928842,0.009906380802296735
0.6000000000000004,-0.0021376295071285495,0.02063601251227357
0.8000000000000006,0.003232921921844319,0.011698555381760215
1.0000000000000007,0.015718404618023242,0.01362503528138699
1.2009999999999785,0.033520415101725355,0.015550114464631332
1.4009999999999565,0.05637393181622841,0.009176622972840979
1.6009999999999345,0.06757927765464668,0.005185565074825641
1.8009999999999124,0.07861606351282455,-0.0044071900837370295
2.0009999999998906,0.09047068445361937,-0.0052608088955572235
2.2009999999998686,0.10312137843956529,-0.010155219829286046
2.4009999999998466,0.11337611303504844,-0.005872270273639057
2.6009999999998246,0.12853684718945635,-0.016349919757196588
2.8009999999998025,0.13766742081003308,-0.022175521115542315
3.0009999999997805,0.15610602529823797,-0.023709763474704323
3.2009999999997585,0.17030110499625503,-0.03378860461875165
3.4009999999997365,0.18059142205670153,-0.038872230966509935
3.6009999999997144,0.1885863037073358,-0.04287399815364996
3.8009999999996924,0.19817009077775954,-0.04914481788537436
4.000999999999671,0.21632033853170993,-0.057384000562211025
4.200999999999738,0.23675861310976662,-0.06691057563971164
4.400999999999804,0.2526020954771534,-0.08232795250256458
4.600999999999871,0.2641177794832186,-0.09729559124845169
4.800999999999938,0.27073611375100515,-0.1040423863997924
5.000000000000004,0.28244913824159895,-0.12592305182538205
5.200000000000071,0.2925417361376119,-0.14571057314586378
5.400000000000138,0.2989550909694045,-0.1680297486792787
5.600000000000205,0.30672640049891264,-0.18639707889668466
5.800000000000272,0.3077153274933166,-0.20433860510903032
6.000000000000338,0.3142426221370527,-0.22745217179493457
6.200000000000405,0.32398111356438203,-0.2381316972807749
6.400000000000472,0.34268334282751106,-0.2506827859899945
6.600000000000539,0.35669806569351287,-0.25625620807259836
6.800000000000606,0.36983806062966557,-0.2680910902935949
7.000000000000672,0.37721332167608224,-0.2767751239240109
7.200000000000739,0.39222561484099827,-0.2828378752046614
7.400000000000806,0.4063571566254403,-0.2888260044522378
7.600000000000873,0.42010481091507024,-0.2946830635334595
7.8000000000009395,0.4275161883241147,-0.31253878182803835
8.000000000001005,0.43424173494803514,-0.3300304509313282
8.200000000000895,0.4398493914370104,-0.3457966333723786
8.400000000000784,0.4472428764461798,-0.3565137632910258
8.600000000000673,0.4598643787508901,-0.3715354388487888
8.800000000000562,0.4707918452948168,-0.39332512965632876
9.000000000000451,0.4782330032703838,-0.4019853495735918
9.20000000000034,0.4932007413208262,-0.4115726176764194
9.40000000000023,0.5114029476288618,-0.4250112795223885
9.600000000000119,0.5264126489084799,-0.4393430114828154
9.800000000000008,0.5363398128813933,-0.4562880917408612
10.000999999999896,0.543864514930486,-0.4767766670939944
10.200999999999786,0.5493233014621973,-0.4867775898605475
10.400999999999675,0.5511718473883384,-0.5041347387900932
10.600999999999564,0.5619723120839502,-0.5200333435157297
10.800999999999453,0.5748745086272101,-0.5269849745523811
11.000999999999342,0.5812096125007798,-0.541760647441455
11.200999999999231,0.5827136434853148,-0.5592760505339248
11.40099999999912,0.5899408964616738,-0.5765894528730724
11.60099999999901,0.5987532568178874,-0.595920061575932
11.800999999998899,0.6083016272479493,-0.6147383930619855
12.000999999998788,0.6202297131543513,-0.6281334353241665
12.200999999998677,0.6288154502989114,-0.6499725739757225
12.400999999998566,0.634272959915831,-0.67404902720831
12.600999999998455,0.6392280559593188,-0.6961918209132986
12.800999999998345,0.647854025356272,-0.7110771564128966
13.000999999998234,0.6582429304654798,-0.7198049328455743
13.200999999998123,0.6635922373819415,-0.734590913430587
13.400999999998012,0.6605941260075678,-0.7495199158811993
13.600999999997901,0.6599460616041699,-0.7694096518572415
13.80099999999779,0.6702172020991491,-0.7862513748889247
14.00099999999768,0.6727396805690504,-0.8096251761355018
14.200999999997569,0.6821597569061061,-0.8298828783542123
14.400999999997458,0.6904604744512878,-0.8442634509772823
14.600999999997347,0.6902701810546864,-0.8610389960374644
14.800999999997236,0.6937999904040856,-0.8790843218049524
15.000999999997125,0.7033218889165532,-0.8995874611409519
15.200999999997014,0.7055200207919033,-0.9330660618322822
15.400999999996904,0.7120943804495707,-0.9567652279978944
15.600999999996793,0.7217110139481379,-0.9789633292255847
15.800999999996682,0.734364812771365,-0.989812041548555
16.000999999996573,0.7411446643549265,-0.997303676319844
16.200999999996817,0.7471420526752178,-1.0053753269736614
16.40099999999706,0.7565191641599348,-1.0178200022383646
16.600999999997306,0.7638544258159626,-1.0303449158565232
16.80099999999755,0.7695315262597191,-1.0422162139871463
17.000999999997795,0.7749866202682695,-1.0604564826547132
17.20099999999804,0.7807763478436918,-1.0856668086545187
17.400999999998284,0.7887354412843073,-1.1033504464229522
17.60099999999853,0.7859988783159323,-1.1268834655764697
17.800999999998773,0.7895099050057561,-1.1438912714512077
18.000999999999017,0.7859854329162876,-1.167044925525652
18.20099999999926,0.7888918890871447,-1.1890998964076747
18.400999999999506,0.8004843808292581,-1.2066699222064923
18.60099999999975,0.8025845627356554,-1.2184749814256675
18.799999999999994,0.8016683035945388,-1.2366904747160308
19.000000000000238,0.8030062465033958,-1.2611371513632863
19.200000000000482,0.8096145261380336,-1.2786742522625685
19.400000000000727,0.8173392546996118,-1.2918904023063333
19.60000000000097,0.8239173999711731,-1.3127341100528402
19.800000000001216,0.8364434137830111,-1.3245521567826848
20.00000000000146,0.8432629599126189,-1.3393996459282391
