Time (s),X (m),Y (m)
0.001,-4.680521708071185e-05,-0.0009960320817112695
0.20000000000000015,0.0038352314423700704,0.004439529820622799
0.4000000000000003,0.009574731256414186,0.0020068947730771092
0.6000000000000004,0.03618790963306437,0.011702451694916575
0.8000000000000006,0.07071675011496258,0.02210651585278704
1.0000000000000007,0.11101988802117294,0.023789333289746424
1.2009999999999785,0.1582218361766856,0.01982435245205059
1.4009999999999565,0.20817129496313094,0.022484119356187396
1.6009999999999345,0.25898362130688646,0.01531249923749197
1.8009999999999124,0.3040933420052102,0.010309264316605287
2.0009999999998906,0.35312403532059183,0.00460793440227137
2.2009999999998686,0.40105634759612546,-0.008460814703154431
2.4009999999998466,0.44507575924354315,-0.031020481896007767
2.6009999999998246,0.4830806996901949,-0.05872346320736491
2.8009999999998025,0.5230084509184963,-0.0836535088996237
3.0009999999997805,0.5414629349329769,-0.12073101288243915
3.2009999999997585,0.5548472002841038,-0.1676887813469616
3.4009999999997365,0.5635911361426493,-0.21499796067702773
3.6009999999997144,0.5830489366826701,-0.2663600175824126
3.8009999999996924,0.6073545413601594,-0.32307215660347477
4.000999999999671,0.6396498027876939,-0.3814408138655398
4.200999999999738,0.6620032748463651,-0.4434428740731645
4.400999999999804,0.6744501209213881,-0.5031192087944889
4.600999999999871,0.6728412289633775,-0.5530031583240279
4.800999999999938,0.6756432962416756,-0.6049575212924354
5.000000000000004,0.675334158272693,-0.6594152133990067
5.200000000000071,0.6534784202096948,-0.7088173501597843
5.400000000000138,0.6155326768926282,-0.7553902038152968
5.600000000000205,0.5741282436754516,-0.7840293760930902
5.800000000000272,0.5204225603022378,-0.8185132216764939
6.000000000000338,0.45746660215938073,-0.8466815849732383
6.200000000000405,0.39318946575236996,-0.8656973170304708
6.400000000000472,0.33123394662320654,-0.87973780589759
6.600000000000539,0.2638039335295461,-0.8979411097440059
6.800000000000606,0.1959958868675843,-0.9145320553564363
7.000000000000672,0.13826287096553488,-0.9079996412849596
7.200000000000739,0.07996315682805738,-0.9184356657721386
7.400000000000806,0.021634220415705775,-0.932464374565535
7.600000000000873,-0.03436362775901022,-0.9463802208818831
7.8000000000009395,-0.08893236335641262,-0.9608003187027706
8.000000000001005,-0.14324160739217928,-0.9659531332562424
8.200000000000895,-0.1928561369896345,-0.9613341809303906
8.400000000000784,-0.23783048951208147,-0.954011208369595
8.600000000000673,-0.2816015168861988,-0.9347209094045994
8.800000000000562,-0.3287943318740491,-0.8994055811872659
9.000000000000451,-0.35224699207441634,-0.8513951612448856
9.20000000000034,-0.37505414074541166,-0.794632537509161
9.40000000000023,-0.4119431726518501,-0.7315388198258064
9.600000000000119,-0.4402420868030027,-0.660120309720108
9.800000000000008,-0.4623205775177235,-0.5880748532700473
10.000999999999896,-0.49203815796956335,-0.5147440736459176
10.200999999999786,-0.5197046605107336,-0.4402783746706939
10.400999999999675,-0.5476826316904433,-0.3578825224634936
10.600999999999564,-0.5556325905560413,-0.2766547851259239
10.800999999999453,-0.5433415911750695,-0.20857523799061248
11.000999999999342,-0.5180459953847466,-0.14104683468453694
11.200999999999231,-0.489776808509396,-0.10616701949993435
11.40099999999912,-0.4606662242425436,-0.05791684248042491
11.60099999999901,-0.4255754675038548,-0.019962457142014743
11.800999999998899,-0.38814908885171734,0.026802420463459938
12.000999999998788,-0.3423705269918693,0.0570581093370841
12.200999999998677,-0.2867813454537919,0.07863311715470872
12.400999999998566,-0.2306139893693025,0.09601246562526043
12.600999999998455,-0.1676999915715733,0.10739181118799487
12.800999999998345,-0.09651709185013062,0.122405002070191
13.000999999998234,-0.028704719855959536,0.13814058057794487
13.200999999998123,0.03256959840416997,0.15492101820636978
13.400999999998012,0.09472028106243109,0.186336365694909
13.600999999997901,0.15572360249117334,0.20689927368620295
13.80099999999779,0.2155122506401796,0.24503144090350568
14.00099999999768,0.27000403931763156,0.2866508607550947
14.200999999997569,0.33344051619414045,0.31901103866785735
14.400999999997458,0.3952477187173585,0.3460816126453922
14.600999999997347,0.46475450696033943,0.3935540811041558
14.800999999997236,0.5353401444110855,0.4265442889428813
15.000999999997125,0.6074932146756769,0.4476757757181029
15.200999999997014,0.6810669817075432,0.48667790816611073
15.400999999996904,0.7588832198105228,0.5198712839518786
15.600999999996793,0.8310067637082079,0.5388584511971712
15.800999999996682,0.8998992857243007,0.5661924210641984
16.000999999996573,0.9682864092481785,0.5965133593356267
16.200999999996817,1.036391211453559,0.6219458564377692
16.40099999999706,1.0993816442829212,0.6333437813622981
16.600999999997306,1.16974851220206,0.6502434921595481
16.80099999999755,1.242686262044726,0.6659692916746839
17.000999999997795,1.3106546493903515,0.6643257667241147
17.20099999999804,1.3829575917109371,0.6673283111380884
17.400999999998284,1.4548967247998197,0.6612637975578062
17.60099999999853,1.5289213697595365,0.6549121872377621
17.800999999998773,1.5978350857979877,0.6512238329567702
18.000999999999017,1.6612898823451971,0.619915589800789
18.20099999999926,1.6929680533778309,0.5846809862475065
18.400999999999506,1.7037128352553792,0.5447376343666775
18.60099999999975,1.6868161915367577,0.49347902083086465
18.799999999999994,1.6512157315878784,0.47049829464996956
19.000000000000238,1.5994037804614034,0.45851151578072
19.200000000000482,1.535160995030373,0.4397652412389627
19.400000000000727,1.4677573608193828,0.4260239239555362
19.60000000000097,1.3966660818326222,0.40975420780556276
19.800000000001216,1.3302855720443465,0.379565239440947
20.00000000000146,1.2651113372644769,0.3394709437985905
