Time (s),X (m),Y (m)
0.001,-4.680521708071185e-05,0.00099603208171127
0.20000000000000015,0.002968703918707865,-0.0025698317699066214
0.4000000000000003,0.010747795073111974,-0.003147565738821728
0.6000000000000004,0.02644305892684211,-0.016595690037699805
0.8000000000000006,0.053873496526214766,-0.039612110907594256
1.0000000000000007,0.05576679707711742,-0.07001324512812665
1.2009999999999785,0.037063240017171144,-0.10979581710035818
1.4009999999999565,0.021864273633011702,-0.1532916168612989
1.6009999999999345,-0.006899543220158498,-0.19334189709479332
1.8009999999999124,-0.05660875355029067,-0.22550880911028248
2.0009999999998906,-0.11538375412040769,-0.25563201535803187
2.2009999999998686,-0.1653785088946748,-0.25499865098877317
2.4009999999998466,-0.21782826333039346,-0.22896372363624742
2.6009999999998246,-0.270339895849699,-0.18863400187855892
2.8009999999998025,-0.3284451543367806,-0.1482726604153352
3.0009999999997805,-0.3621785883063366,-0.1011484172448074
3.2009999999997585,-0.3519257685287532,-0.05143262959654848
3.4009999999997365,-0.32537929829589735,0.004183243521457983
3.6009999999997144,-0.2870083588278281,0.06141181719676536
3.8009999999996924,-0.24715373185949896,0.1220745621351074
4.000999999999671,-0.20416985694509018,0.1565959792325128
4.200999999999738,-0.16125114392505455,0.14843624155395355
4.400999999999804,-0.11565616917274157,0.10216672016070123
4.600999999999871,-0.07245277640567464,0.055162552706051485
4.800999999999938,-0.014682885596532741,0.006143055327933543
5.000000000000004,0.04614560159858987,-0.0502291361703789
5.200000000000071,0.1051924500927928,-0.09710730096750093
5.400000000000138,0.16407554172955796,-0.14838007650728013
5.600000000000205,0.21192879690166683,-0.20651984010007204
5.800000000000272,0.2505494377415668,-0.26813005620612457
6.000000000000338,0.2548199891397564,-0.32816474766892134
6.200000000000405,0.24406626412782298,-0.3997374915091328
6.400000000000472,0.211546219879916,-0.46046867516727974
6.600000000000539,0.16486147341308569,-0.51132485650374
6.800000000000606,0.11548270001899039,-0.5489848510075869
7.000000000000672,0.05912492451719574,-0.5468413231596719
7.200000000000739,-0.00496413255807951,-0.5200009079751969
7.400000000000806,-0.07184912881896349,-0.4830196359354221
7.600000000000873,-0.10447537054861274,-0.4412909491653416
7.8000000000009395,-0.10018876533577732,-0.388975505573693
8.000000000001005,-0.09245225344323453,-0.32654495372811515
8.200000000000895,-0.06625838589017753,-0.2639797397876304
8.400000000000784,-0.018774166586852842,-0.21124906733518461
8.600000000000673,0.03973066597220398,-0.17277825366879332
8.800000000000562,0.10467297183095994,-0.1413725421216482
9.000000000000451,0.17195916722788204,-0.14466846697825964
9.20000000000034,0.23578474166763422,-0.16986886121314523
9.40000000000023,0.3104793174931394,-0.20217872994593328
9.600000000000119,0.3680673741679357,-0.2500108890407028
9.800000000000008,0.4154242625081529,-0.31286212011131415
10.000999999999896,0.47251802315674696,-0.3713829544153149
10.200999999999786,0.5183185314927437,-0.43402326403302127
10.400999999999675,0.5545910919363005,-0.5017745364867947
10.600999999999564,0.5666651901558621,-0.5684134709002238
10.800999999999453,0.5577070633366961,-0.635724634204473
11.000999999999342,0.5164775316068344,-0.6868748293490236
11.200999999999231,0.45827714702985234,-0.7296559463718896
11.40099999999912,0.39516042061876816,-0.7592948267869283
11.60099999999901,0.3275050611589624,-0.7659953860243933
11.800999999998899,0.2742779017660956,-0.7568931075789758
12.000999999998788,0.24833728051735054,-0.7236745782851968
12.200999999998677,0.24788610782501663,-0.6757774404727261
12.400999999998566,0.2633616656102665,-0.6264312895259703
12.600999999998455,0.2984578498486631,-0.5959332692709638
12.800999999998345,0.3402359440618369,-0.5788757261511337
13.000999999998234,0.389386497234376,-0.5707731184796591
13.200999999998123,0.4351817151489484,-0.5868705129914353
13.400999999998012,0.442246527683817,-0.6201035637159138
13.600999999997901,0.4324850956926437,-0.6692987717386685
13.80099999999779,0.3978106242936263,-0.7221300041003866
14.00099999999768,0.35432869231812897,-0.7791820711390243
14.200999999997569,0.2994459411822451,-0.818257400512608
14.400999999997458,0.23701244629276938,-0.838379741676973
14.600999999997347,0.17298425728666797,-0.8340035142208433
14.800999999997236,0.10423227329795043,-0.8027535119427699
15.000999999997125,0.039487963490718196,-0.7685223701701173
15.200999999997014,-0.0023818986571327847,-0.724109425821758
15.400999999996904,-0.019514039919856594,-0.6703850126633807
15.600999999996793,-0.03425634436105352,-0.602517253997895
15.800999999996682,-0.021464008129241322,-0.5427814821707404
16.000999999996573,0.011141125485401632,-0.488016951688684
16.200999999996817,0.04820109941854185,-0.43909932287973624
16.40099999999706,0.09664306942568338,-0.40458575536831737
16.600999999997306,0.15440101083457358,-0.38448876159820916
16.80099999999755,0.21513277884274107,-0.36079514662497264
17.000999999997795,0.28402552532098785,-0.346537114923697
17.20099999999804,0.35544857500678295,-0.3514565647660122
17.400999999998284,0.43004054589903723,-0.3628768598191043
17.60099999999853,0.5021735190968065,-0.3896861633628336
17.800999999998773,0.574603626026653,-0.4167458048442361
18.000999999999017,0.6408923587551947,-0.4599566361548649
18.20099999999926,0.7046239049583445,-0.509941026221156
18.400999999999506,0.7631254821662714,-0.5680042964748082
18.60099999999975,0.8201562198354344,-0.6267790669696257
18.799999999999994,0.8689912826243048,-0.688828247260663
19.000000000000238,0.9041952760893384,-0.7546722246365322
19.200000000000482,0.9196835355919218,-0.8272738004488593
19.400000000000727,0.92172109457796,-0.9040805358302448
19.60000000000097,0.9263509375005908,-0.9857705104799199
19.800000000001216,0.9204452789640568,-1.0663039864709871
20.00000000000146,0.8964764062597117,-1.1299737593937944
