Time (s),X (m),Y (m)
0.001,0.0002200807748493132,-0.0010311682891199468
0.20000000000000015,0.0013303230255521253,-0.0010287613732894553
0.4000000000000003,0.002238366474996152,-0.01017938837817953
0.6000000000000004,0.003456841032125021,-0.008518854402329168
0.8000000000000006,0.0048040664581172655,-0.009174305157742712
1.0000000000000007,0.006617761773733106,-0.010501143632627084
1.2009999999999785,0.00821073787011663,-0.01073804423727165
1.4009999999999565,0.009999237326373707,-0.012281636157203898
1.6009999999999345,0.011663657502558055,-0.012600494937482104
1.8009999999999124,0.013146279686761832,-0.011499011490637074
2.0009999999998906,0.014621486920778033,-0.012509452636670802
2.2009999999998686,0.014965076990006767,-0.013483499100042935
2.4009999999998466,0.014945350023365422,-0.014078264336153189
2.6009999999998246,0.01487832896230571,-0.014443381665877992
2.8009999999998025,0.014782078664299064,-0.014570751723870824
3.0009999999997805,0.014695937750396746,-0.014709984536696943
3.2009999999997585,0.014609396757204768,-0.014868977542595946
3.4009999999997365,0.014543265081014188,-0.01506028695280471
3.6009999999997144,0.014492570681887985,-0.015260796978721807
3.8009999999996924,0.014448482591110952,-0.015468372915905122
4.000999999999671,0.014406248309301671,-0.015704640335330172
4.200999999999738,0.014380533451023877,-0.015951311797019453
4.400999999999804,0.014337317565692358,-0.01617195526266303
4.600999999999871,0.014304274394670125,-0.0164337459789947
4.800999999999938,0.014281414162922682,-0.016708049481125746
5.000000000000004,0.014254614922074558,-0.016950971841334258
5.200000000000071,0.014241283663734037,-0.017226968144805142
5.400000000000138,0.014227959088350254,-0.01749380585777022
5.600000000000205,0.014219980123918018,-0.017767043812600133
5.800000000000272,0.014208762808203872,-0.018043008601914698
6.000000000000338,0.014190382088198802,-0.01829542081487829
6.200000000000405,0.014178042534479848,-0.018531690194225976
6.400000000000472,0.014175751967364323,-0.018818383446222133
6.600000000000539,0.014174000035898799,-0.01908371990735933
6.800000000000606,0.014180325692195472,-0.019335677211822846
7.000000000000672,0.014189480144534857,-0.019587599099802108
7.200000000000739,0.014199176124726003,-0.019847335992338254
7.400000000000806,0.014212212888313891,-0.02010691698013791
7.600000000000873,0.014227244667056214,-0.02036273130781752
7.8000000000009395,0.014250344014739754,-0.02063117677769324
8.000000000001005,0.014272167083819412,-0.020877799473268448
8.200000000000895,0.014303785081136325,-0.021146339421807797
8.400000000000784,0.014341803748589768,-0.02142049017749574
8.600000000000673,0.01438150328753478,-0.021677354326538466
8.800000000000562,0.014430981055937854,-0.02196788069130576
9.000000000000451,0.014483783968574323,-0.02224757747266992
9.20000000000034,0.014543054310664796,-0.0225307527227359
9.40000000000023,0.014603692862572506,-0.022816406846605873
9.600000000000119,0.014669262657121106,-0.023106430500008036
9.800000000000008,0.014735945201009243,-0.023384141376523327
10.000999999999896,0.014820646889104994,-0.023695284485310702
10.200999999999786,0.01489949666058668,-0.023980109620509473
10.400999999999675,0.01498173722259537,-0.024265366449335534
10.600999999999564,0.015070521816625455,-0.024554211471167865
10.800999999999453,0.015155417650624305,-0.02483137082780061
11.000999999999342,0.015242903043698994,-0.025105598629306926
11.200999999999231,0.015343631295251172,-0.025377304884078848
11.40099999999912,0.015438951250141381,-0.02564944592184068
11.60099999999901,0.015538536040075919,-0.02593058263399336
11.800999999998899,0.015635275166992597,-0.026183436715680783
12.000999999998788,0.015734909810494503,-0.026430159148886856
12.200999999998677,0.015841190509930117,-0.02668146450810668
12.400999999998566,0.015958770469154372,-0.026959375224405776
12.600999999998455,0.016079519716500925,-0.027233029327312197
12.800999999998345,0.016203301106525275,-0.02749437204365928
13.000999999998234,0.016334660573680188,-0.027752904353244696
13.200999999998123,0.0164666074252433,-0.02801136074658704
13.400999999998012,0.016602360429495453,-0.028263258632649113
13.600999999997901,0.01674000564577593,-0.028505677856218024
13.80099999999779,0.016884567503301227,-0.02876780326810115
14.00099999999768,0.017026624933744638,-0.02900931148113524
14.200999999997569,0.01717379925802333,-0.029258557538400256
14.400999999997458,0.0173139662165087,-0.029476621182428143
14.600999999997347,0.017458590759399862,-0.029711161068814464
14.800999999997236,0.0176050246126709,-0.029926924446382536
15.000999999997125,0.01774976494208053,-0.0301378015343951
15.200999999997014,0.01790022836151897,-0.030361160465568363
15.400999999996904,0.018054920585217755,-0.030579714104168536
15.600999999996793,0.01821378045285455,-0.030799447753804308
15.800999999996682,0.018378631684571278,-0.031021977335954652
16.000999999996573,0.018537921162201557,-0.031233889694287052
16.200999999996817,0.018703402287236656,-0.0314462510553709
16.40099999999706,0.018868076575692252,-0.031640801098090046
16.600999999997306,0.019029325294335077,-0.03182595972108105
16.80099999999755,0.019194648407926555,-0.032021034855916834
17.000999999997795,0.019372938674019836,-0.0322374357864886
17.20099999999804,0.019555373574520776,-0.03244531416854423
17.400999999998284,0.019734750619502837,-0.032633656072301544
17.60099999999853,0.019917641862678574,-0.03283161842901277
17.800999999998773,0.020101371147897104,-0.033026180562416026
18.000999999999017,0.02028985574025424,-0.03321576138578376
18.20099999999926,0.020475777282192312,-0.03339923569881509
18.400999999999506,0.02066223415420717,-0.03357226725834543
18.60099999999975,0.02085191110728578,-0.03375087955047472
18.799999999999994,0.02102565060681682,-0.033907897097217234
19.000000000000238,0.021219747555395355,-0.03408993204416935
19.200000000000482,0.02141778898261766,-0.03427336602292462
19.400000000000727,0.0216117060134999,-0.034453379399957094
19.60000000000097,0.021812376020886436,-0.034628959973039414
19.800000000001216,0.022017432959039053,-0.03481006395781651
20.00000000000146,0.02221539042588266,-0.03498428969204022
