Time (s),X (m),Y (m)
0.001,-0.00013259955118837574,0.0009689812320744445
0.20000000000000015,0.0003786782221724053,0.005137959073095352
0.4000000000000003,0.0028147011771602936,0.002390745612428137
0.6000000000000004,0.003023055167598091,0.008292890254266798
0.8000000000000006,0.0058696256702270655,0.007124983447509135
1.0000000000000007,0.011446155382445157,0.004550842735226438
1.2009999999999785,0.016322295031656595,0.005455779110645032
1.4009999999999565,0.016121831809042236,0.009247598389203585
1.6009999999999345,0.01781606036912723,0.01492201586505531
1.8009999999999124,0.022607733133076086,0.01280185471574691
2.0009999999998906,0.027832775410415435,0.012666109369831887
2.2009999999998686,0.03427914601079647,0.012673605014731333
2.4009999999998466,0.04154727065262297,0.0116358852935412
2.6009999999998246,0.03979882776813893,0.020166083738806566
2.8009999999998025,0.03368796201452929,0.034077411527772015
3.0009999999997805,0.04378326602419546,0.03693293911958567
3.2009999999997585,0.05062413932787802,0.034137994299675525
3.4009999999997365,0.05712887464004408,0.03323869208671382
3.6009999999997144,0.06450084249499201,0.033365359698145775
3.8009999999996924,0.07076474943598565,0.03428177881315173
4.000999999999671,0.07824468613526728,0.03382070561709829
4.200999999999738,0.08676855514264793,0.03495092812230926
4.400999999999804,0.09313472941664254,0.03507377952206505
4.600999999999871,0.09993655850391192,0.03734200737740732
4.800999999999938,0.10846762471315287,0.038175965305801134
5.000000000000004,0.11731757398300591,0.03889408449502652
5.200000000000071,0.1294755936502129,0.040192175080056416
5.400000000000138,0.1400461820988897,0.040017480055047884
5.600000000000205,0.14939944577429448,0.04065409606484699
5.800000000000272,0.158579575380047,0.04191775847203697
6.000000000000338,0.1670480626957672,0.04493709832361807
6.200000000000405,0.17983481715006258,0.04668749400088142
6.400000000000472,0.1870038675050038,0.05031495830435585
6.600000000000539,0.19485166345728588,0.05401142097893731
6.800000000000606,0.2017791153806048,0.05808615962944872
7.000000000000672,0.2095628269381737,0.06182672766525156
7.200000000000739,0.21603104272204576,0.06667463753111295
7.400000000000806,0.2283377853286326,0.07038322717131087
7.600000000000873,0.2340879096595254,0.07555987598994197
7.8000000000009395,0.24139846392408454,0.0807035806130586
8.000000000001005,0.249547273134934,0.08574394534824342
8.200000000000895,0.25724665993802587,0.09011566512755975
8.400000000000784,0.26232995185214686,0.09514477216142056
8.600000000000673,0.2692933436772614,0.10107045672467833
8.800000000000562,0.2809199929795753,0.10567831119134097
9.000000000000451,0.2888245241476098,0.11004470431515173
9.20000000000034,0.2955268232153649,0.115349376859739
9.40000000000023,0.30022995370810396,0.12064268598647931
9.600000000000119,0.2999938078921293,0.12713958422816973
9.800000000000008,0.3066449658704796,0.13298311366777976
10.000999999999896,0.3100482963157437,0.1388694134633368
10.200999999999786,0.3169652201437514,0.14574717585672595
10.400999999999675,0.32010307044029773,0.1519005376662376
10.600999999999564,0.3248856404435646,0.15834335519755377
10.800999999999453,0.33007101374275405,0.1643713997777423
11.000999999999342,0.33586045802757636,0.17053700217094334
11.200999999999231,0.342262706701433,0.17712269493500785
11.40099999999912,0.34427787787196473,0.1832876072355164
11.60099999999901,0.3478088371393713,0.19026570286975078
11.800999999998899,0.35360032316542067,0.1975513343605312
12.000999999998788,0.3593736586485996,0.20402389365971194
12.200999999998677,0.36496745945176556,0.2104040835628823
12.400999999998566,0.3686280718946135,0.2184292691786287
12.600999999998455,0.372869879312261,0.22694777744806713
12.800999999998345,0.377406094058586,0.23381460235881027
13.000999999998234,0.3808817684849751,0.2410299901567058
13.200999999998123,0.38430759491537797,0.24814170553120038
13.400999999998012,0.3804684040299765,0.2551899002423478
13.600999999997901,0.38259875097215673,0.26169610184464237
13.80099999999779,0.38626770677653527,0.26857605193642065
14.00099999999768,0.3877024565808429,0.2757106400265918
14.200999999997569,0.39115836210748994,0.28447180811883105
14.400999999997458,0.38964171989679497,0.2914048113132921
14.600999999997347,0.3939923431087582,0.29946759023183755
14.800999999997236,0.39486553829868193,0.3080961647607348
15.000999999997125,0.39774174541592805,0.3163288839114324
15.200999999997014,0.39851962399576846,0.324145660174699
15.400999999996904,0.4056238079484601,0.3338856157561817
15.600999999996793,0.40372753034196823,0.343980659402779
15.800999999996682,0.4083210611678752,0.35388520992814404
16.000999999996573,0.40731806286897265,0.36279545559338583
16.200999999996817,0.4094211799479066,0.37245208288625326
16.40099999999706,0.40938928837915695,0.3821254061773352
16.600999999997306,0.4107222097932407,0.39056273602230435
16.80099999999755,0.41029563923345386,0.4005673209026602
17.000999999997795,0.410703306137478,0.41099091579665176
17.20099999999804,0.41071475677962205,0.4206522578389052
17.400999999998284,0.4165251153084638,0.43290804518413384
17.60099999999853,0.4184972642043214,0.44424879416640367
17.800999999998773,0.4183942587636307,0.4545758608961562
18.000999999999017,0.42202279331193243,0.46724561324142033
18.20099999999926,0.42467514432059683,0.48118607471084834
18.400999999999506,0.42384620052329297,0.4905976986699335
18.60099999999975,0.42549251917244973,0.50644791497473
18.799999999999994,0.4299481550111092,0.5185102336854376
19.000000000000238,0.4278941647408698,0.5302886490172087
19.200000000000482,0.42421127639892986,0.5374190430222165
19.400000000000727,0.42590863463451206,0.5484870544282492
19.60000000000097,0.4242130158653093,0.5586887908219961
19.800000000001216,0.42180013244838077,0.5687015513796
20.00000000000146,0.4248864671277936,0.5815508754089507
