Time (s),X (m),Y (m)
0.001,0.0008115346074009382,0.0008446836120385872
0.20000000000000015,0.004541947451953702,0.003336291072396507
0.4000000000000003,0.010430376124450955,0.005526478249088846
0.6000000000000004,0.0160732633137963,0.003978076006516679
0.8000000000000006,0.02121293655324634,0.00967657630415869
1.0000000000000007,0.027975865292595412,0.01315172100292798
1.2009999999999785,0.040581424918418624,0.018641377490969162
1.4009999999999565,0.049130622651959645,0.012591587874855946
1.6009999999999345,0.06136955604251981,0.015925274429050076
1.8009999999999124,0.0731631843926962,0.027613812675253754
2.0009999999998906,0.08424086134221657,0.03739184810678077
2.2009999999998686,0.09512030893298694,0.043202900624709495
2.4009999999998466,0.10397246344981613,0.04808205988203106
2.6009999999998246,0.11301685192589477,0.05236639499174302
2.8009999999998025,0.12398490487852118,0.058919507502535384
3.0009999999997805,0.13465621780409934,0.06799441479596255
3.2009999999997585,0.14345076099280077,0.07707852673003114
3.4009999999997365,0.14978348785363632,0.08536318037913522
3.6009999999997144,0.1582928895040088,0.09319254628448158
3.8009999999996924,0.16621360251707643,0.10007877751300621
4.000999999999671,0.17389532579524825,0.10321027421904774
4.200999999999738,0.18133399907804254,0.11101172419313912
4.400999999999804,0.18756202383097614,0.11737031052345631
4.600999999999871,0.1924137135786772,0.12234076841370278
4.800999999999938,0.1993705855953665,0.1314902273022862
5.000000000000004,0.20764127982915825,0.13576342499440844
5.200000000000071,0.21342425159578207,0.14446677295829083
5.400000000000138,0.2184221564572028,0.15724021721838274
5.600000000000205,0.22314918325298494,0.16479993619003086
5.800000000000272,0.23308301045407448,0.1722108592670721
6.000000000000338,0.23993152705955403,0.1830138507918623
6.200000000000405,0.24668692627134076,0.18483163074205866
6.400000000000472,0.2541473865440674,0.18935913277358354
6.600000000000539,0.2597513006410125,0.19756283186043602
6.800000000000606,0.2657779220848884,0.20374674608721283
7.000000000000672,0.27222046497834124,0.20773855786492235
7.200000000000739,0.2771912056775217,0.21684376990089152
7.400000000000806,0.28222049897601037,0.223766940825105
7.600000000000873,0.28468633153386086,0.2315852135194588
7.8000000000009395,0.28815179653696205,0.24467799997630518
8.000000000001005,0.29223532456348966,0.2534702624370165
8.200000000000895,0.29576683240316687,0.2722981891830464
8.400000000000784,0.2990074635431975,0.2848784935568756
8.600000000000673,0.3038793422037367,0.29124320816852334
8.800000000000562,0.30454514839543695,0.3035810252760472
9.000000000000451,0.30501347836138537,0.3169997295463259
9.20000000000034,0.3072579204110493,0.32735438481136814
9.40000000000023,0.3094380824014307,0.3379559653505133
9.600000000000119,0.309214885245355,0.35079980223896345
9.800000000000008,0.3130364404441316,0.36212664614361295
10.000999999999896,0.3183497405452433,0.36286346111913065
10.200999999999786,0.32135715927120106,0.37142059980978565
10.400999999999675,0.3246009565133406,0.37454397113120874
10.600999999999564,0.3301190208354326,0.3822762707827469
10.800999999999453,0.32933969873620117,0.39279054717512374
11.000999999999342,0.32767018877152576,0.4064192546325984
11.200999999999231,0.3302155946499595,0.4176254742218585
11.40099999999912,0.32851485729208385,0.43229528717612986
11.60099999999901,0.3236285287207492,0.4455608086709887
11.800999999998899,0.32683157195204277,0.4575169650581838
12.000999999998788,0.3304088264037375,0.4671748110563296
12.200999999998677,0.3238891759839234,0.4786177161648745
12.400999999998566,0.31948596140567553,0.4930553939747044
12.600999999998455,0.31906299734926585,0.5039061751987558
12.800999999998345,0.3119318543596414,0.5138675608897538
13.000999999998234,0.30114191912086774,0.5277165811617962
13.200999999998123,0.2963458158677416,0.5403645092571079
13.400999999998012,0.2926036236008234,0.5558220414038345
13.600999999997901,0.28647824247150383,0.5643063008922105
13.80099999999779,0.28106872243555825,0.576244672452901
14.00099999999768,0.2760352254018458,0.5873855526077593
14.200999999997569,0.2700026333580384,0.5989945779556715
14.400999999997458,0.26685147850636354,0.6106994871274207
14.600999999997347,0.2583016576920514,0.620830762563079
14.800999999997236,0.24841144442502575,0.630496722767422
15.000999999997125,0.24433960953415998,0.641510198850243
15.200999999997014,0.24181589087145378,0.6531737585089948
15.400999999996904,0.23307145413359545,0.6655336990549723
15.600999999996793,0.2229014191418265,0.6783562375731013
15.800999999996682,0.2197686595696887,0.6907824254682268
16.000999999996573,0.21028751018631006,0.7049531473630076
16.200999999996817,0.20656244852909203,0.7155635093176952
16.40099999999706,0.199920085731545,0.7243654030932045
16.600999999997306,0.193754147130829,0.7349413922893061
16.80099999999755,0.18156547403867793,0.7440114354342855
17.000999999997795,0.1693034724285792,0.7507320853198184
17.20099999999804,0.15364352602088233,0.758095471256594
17.400999999998284,0.13832454672122624,0.7656716730768347
17.60099999999853,0.12305523857093777,0.7725478604004701
17.800999999998773,0.10573209382042413,0.7775495907882051
18.000999999999017,0.09448310308419391,0.7805460324899819
18.20099999999926,0.08212568913217445,0.7830233946715184
18.400999999999506,0.07087222166835862,0.783595282986407
18.60099999999975,0.060074298275333296,0.78452560282526
18.799999999999994,0.05529346625255744,0.7882391000961625
19.000000000000238,0.04634633465321756,0.7911533019454795
19.200000000000482,0.03803979954239897,0.7903771660229968
19.400000000000727,0.027179981851428028,0.7904866917332756
19.60000000000097,0.018630850470907942,0.7908734000215638
19.800000000001216,0.008256400684150417,0.7931785704592724
20.00000000000146,-0.003778970680385027,0.7910560536086371
