Time (s),X (m),Y (m)
0.001,0.0003099530129853942,-0.0010272443824616275
0.20000000000000015,0.0019293541210803596,0.002258160699739809
0.4000000000000003,0.010551433763422133,0.004971844302707048
0.6000000000000004,0.034163967208723445,-0.012740613937701123
0.8000000000000006,0.08763090505895219,-0.027517719535669446
1.0000000000000007,0.15583267393446548,-0.0507284371342396
1.2009999999999785,0.18833942771416762,-0.07897190605930716
1.4009999999999565,0.1932141036629478,-0.11281182125305982
1.6009999999999345,0.18768902639823054,-0.1226638364848225
1.8009999999999124,0.1949876836922215,-0.11007343153062261
2.0009999999998906,0.21435514731968874,-0.06875529815498499
2.2009999999998686,0.2490982845206308,-0.03278649319556383
2.4009999999998466,0.2979939465558196,-0.02255022058542375
2.6009999999998246,0.3455240050845558,-0.037957570956934764
2.8009999999998025,0.4055311553999759,-0.06125807965677164
3.0009999999997805,0.4611451174735828,-0.08908940678971022
3.2009999999997585,0.49971875970144203,-0.13478167862134918
3.4009999999997365,0.5160244894086097,-0.19705867292622237
3.6009999999997144,0.5102449706011575,-0.2655759953521855
3.8009999999996924,0.5017919864516031,-0.3413515672596473
4.000999999999671,0.4677713255584876,-0.41209608854632657
4.200999999999738,0.4322367447333931,-0.46313351520843116
4.400999999999804,0.38034177364009536,-0.4892353684811394
4.600999999999871,0.31582798204477414,-0.5010354927401168
4.800999999999938,0.2584463405596733,-0.49045875810923933
5.000000000000004,0.2083087578424497,-0.45921972775020453
5.200000000000071,0.17317911780017187,-0.41590755651242717
5.400000000000138,0.15976660135079904,-0.36377236938089513
5.600000000000205,0.16154205470241584,-0.2973759764784152
5.800000000000272,0.18302492475455356,-0.24118174287978986
6.000000000000338,0.23308643224803693,-0.19241529714382868
6.200000000000405,0.3080465535496137,-0.16012791873620796
6.400000000000472,0.37903549008647136,-0.14781087763669978
6.600000000000539,0.413597720682278,-0.16458567213652042
6.800000000000606,0.42499778643072683,-0.20874387736017969
7.000000000000672,0.4171717208889336,-0.2712312134596255
7.200000000000739,0.393011485180915,-0.3440121189969332
7.400000000000806,0.3595820416311967,-0.41717245745617726
7.600000000000873,0.32849277479507866,-0.49841962914807636
7.8000000000009395,0.28470007111134193,-0.5520635556728627
8.000000000001005,0.2514499314454594,-0.5680816788263473
8.200000000000895,0.23778339587931754,-0.5631543240141125
8.400000000000784,0.23593518393600332,-0.5310918057689862
8.600000000000673,0.24793057363903537,-0.47846368050240007
8.800000000000562,0.27554342564549533,-0.4281631385769171
9.000000000000451,0.32539311589005815,-0.3766976950420371
9.20000000000034,0.3955691194272846,-0.3490849497931258
9.40000000000023,0.484325441833365,-0.3407288989936917
9.600000000000119,0.5643603559575034,-0.3482481016307481
9.800000000000008,0.6074538627468625,-0.3803281473466954
10.000999999999896,0.618802888380441,-0.4339828716906684
10.200999999999786,0.6061798746443632,-0.4870098159336706
10.400999999999675,0.571016089133742,-0.5250616210148678
10.600999999999564,0.5219077984287847,-0.5457451715564754
10.800999999999453,0.49085967265122105,-0.5372669695329011
11.000999999999342,0.4867877563501183,-0.527810549748499
11.200999999999231,0.5075447133745696,-0.5195052287345452
11.40099999999912,0.5424889538250124,-0.5069673809578136
11.60099999999901,0.5952730727168488,-0.5091557826458825
11.800999999998899,0.6279068929931055,-0.5332063611305724
12.000999999998788,0.6344607169357299,-0.5797669378210885
12.200999999998677,0.6162335792065373,-0.6035770803327462
12.400999999998566,0.5882684732546096,-0.6100825932811248
12.600999999998455,0.569828855647073,-0.592869107710632
12.800999999998345,0.5766878386815288,-0.5641737636477441
13.000999999998234,0.5909259234299598,-0.5216187339576531
13.200999999998123,0.6228081201829553,-0.49426445314332823
13.400999999998012,0.6519363849033667,-0.494577534628359
13.600999999997901,0.6588999095246578,-0.5091679088884721
13.80099999999779,0.6415028185837695,-0.5144486602261331
14.00099999999768,0.6132502289091797,-0.5239465215650625
14.200999999997569,0.5712680466601697,-0.5325959959846239
14.400999999997458,0.5141607622113039,-0.5251903905380376
14.600999999997347,0.4569753977117291,-0.5012991858314122
14.800999999997236,0.40414262980896404,-0.46073799399228027
15.000999999997125,0.38252491732974636,-0.41494903966189794
15.200999999997014,0.3892206480997991,-0.3621282771890704
15.400999999996904,0.412923190655905,-0.2968171493504321
15.600999999996793,0.45206067653404947,-0.22958054326007699
15.800999999996682,0.509127804160052,-0.15442152159329742
16.000999999996573,0.5810415390846311,-0.08814703591693517
16.200999999996817,0.6415611183265653,-0.04770710454751212
16.40099999999706,0.6805365216947372,-0.049182121762663934
16.600999999997306,0.6963068861716508,-0.0608143275686554
16.80099999999755,0.6935984513979752,-0.045435127383752584
17.000999999997795,0.6834804655802397,-0.011321398699297758
17.20099999999804,0.681753199267532,0.038734004045315115
17.400999999998284,0.6897887575304655,0.10486632365669274
17.60099999999853,0.6908788892850461,0.18003322991876258
17.800999999998773,0.6789916331111223,0.2640160326984886
18.000999999999017,0.673825111255301,0.36226702161249963
18.20099999999926,0.6868882168074336,0.4528660929225364
18.400999999999506,0.720791170707488,0.5339978631757565
18.60099999999975,0.767340957640838,0.6168980183771271
18.799999999999994,0.8297377429630062,0.6901041246029566
19.000000000000238,0.9006976165823081,0.7475794216789673
19.200000000000482,0.9641031897091356,0.7751819629998259
19.400000000000727,1.0060567063985673,0.7712699254817209
19.60000000000097,1.0133862004551837,0.7375232143690631
19.800000000001216,1.014423829640254,0.6803768125812228
20.00000000000146,1.0106160952093481,0.6143619940936181
