Time (s),X (m),Y (m)
0.001,0.0012473251573109415,-8.987223813608099e-05
0.20000000000000015,-0.004268605127474282,0.0009129119734434843
0.4000000000000003,0.0011249657742758818,0.0040707887123900225
0.6000000000000004,0.01641500967688821,0.002088419953204449
0.8000000000000006,0.03823828096747401,-0.004369836838189281
1.0000000000000007,0.05720960998280841,-0.010838274020460236
1.2009999999999785,0.06676712018262217,-0.014515324664059286
1.4009999999999565,0.08288908805624556,-0.016452327618211665
1.6009999999999345,0.11061538598567744,-0.02118289964834082
1.8009999999999124,0.1591674485793413,-0.037632406919667453
2.0009999999998906,0.21222494421185198,-0.0604587976107326
2.2009999999998686,0.2625669988504169,-0.08715254136541864
2.4009999999998466,0.30977713444344906,-0.13848709673253304
2.6009999999998246,0.35356635596277947,-0.19765325612402515
2.8009999999998025,0.38808822588669617,-0.24744669801357835
3.0009999999997805,0.4010621326081463,-0.297537393323596
3.2009999999997585,0.40440510085105097,-0.34560110083895573
3.4009999999997365,0.38849462204295293,-0.3982013585768025
3.6009999999997144,0.36601278866068293,-0.43506091910412836
3.8009999999996924,0.338327860772693,-0.4511444085046648
4.000999999999671,0.30595945398806473,-0.4604072342121877
4.200999999999738,0.27290066594744317,-0.44655904479148856
4.400999999999804,0.24669835698200857,-0.41254517762119924
4.600999999999871,0.23328839986988795,-0.35719063004883633
4.800999999999938,0.23252006100071218,-0.2938337837764328
5.000000000000004,0.24728218638816937,-0.23118250170919946
5.200000000000071,0.26810175265656144,-0.1708860526902306
5.400000000000138,0.30228319771293,-0.11104222276705679
5.600000000000205,0.3513732652746313,-0.06458454766730452
5.800000000000272,0.39720879652651253,-0.043166957486243294
6.000000000000338,0.4456552671001523,-0.044296513201226594
6.200000000000405,0.49831955282584167,-0.06737495374036422
6.400000000000472,0.5385890617920913,-0.10280691144975716
6.600000000000539,0.5517900703897605,-0.1475857545884026
6.800000000000606,0.5464013958373913,-0.19594994637834662
7.000000000000672,0.5368869408410577,-0.23798432157924573
7.200000000000739,0.5251737946290964,-0.2841096356671554
7.400000000000806,0.5003421995740986,-0.32190032660067586
7.600000000000873,0.46174475865734704,-0.3374782208872922
7.8000000000009395,0.4167253056823311,-0.33332920124306603
8.000000000001005,0.3705296116224272,-0.32422991721968397
8.200000000000895,0.3156088267800031,-0.3003777551537947
8.400000000000784,0.25007917610096303,-0.2633937623518455
8.600000000000673,0.19550537082141858,-0.21647701513286025
8.800000000000562,0.16758737649015182,-0.17075522070470436
9.000000000000451,0.15844865489155366,-0.11841053093641521
9.20000000000034,0.16191848920207028,-0.05383403207336879
9.40000000000023,0.1810953985774344,0.032052281191257706
9.600000000000119,0.20776219629694032,0.11375940345444609
9.800000000000008,0.24981071931410048,0.18842843757448804
10.000999999999896,0.3018210621373915,0.24507077821357173
10.200999999999786,0.35726991115821344,0.26764595060448265
10.400999999999675,0.4116789463754356,0.26442075648011737
10.600999999999564,0.4635014433987005,0.24409215770287868
10.800999999999453,0.5081631006621111,0.22237641479603487
11.000999999999342,0.5199169156518173,0.18452610151118742
11.200999999999231,0.5081139353054679,0.14185407696360158
11.40099999999912,0.4808952926642041,0.09079018438586596
11.60099999999901,0.43940336388683704,0.05320633293764723
11.800999999998899,0.3900523274290461,0.03888927254013472
12.000999999998788,0.3387473104767392,0.03636284224697453
12.200999999998677,0.27991435344136295,0.048496462202577376
12.400999999998566,0.21892369976164086,0.08368427312964172
12.600999999998455,0.18238522052592696,0.1340187117653428
12.800999999998345,0.1728743323408264,0.1888163966220727
13.000999999998234,0.17830704780852658,0.24991442050540735
13.200999999998123,0.1877530561476831,0.30409837194371303
13.400999999998012,0.20501855175754513,0.36029856830734597
13.600999999997901,0.23009882394968198,0.4214664749984026
13.80099999999779,0.2702029544672165,0.49355124848904425
14.00099999999768,0.30256306937437194,0.5556198119082403
14.200999999997569,0.3261940644703784,0.608970048537626
14.400999999997458,0.3439628558177942,0.6561650485259494
14.600999999997347,0.37643828599212786,0.6826902558414191
14.800999999997236,0.4238029241621942,0.6895459672864698
15.000999999997125,0.4872259062358655,0.6788956028955959
15.200999999997014,0.5486659714153419,0.6579329091360276
15.400999999996904,0.6201123774880354,0.6237049375751069
15.600999999996793,0.6913994160876522,0.5862179368893886
15.800999999996682,0.7658380924766425,0.5443035717969081
16.000999999996573,0.8413503504563167,0.4934770638709521
16.200999999996817,0.9174342904611458,0.43585312394342907
16.40099999999706,0.9805404196937252,0.36553635483968977
16.600999999997306,1.0188666371025288,0.2806105157603581
16.80099999999755,1.034593218139385,0.19655997860907382
17.000999999997795,1.0240964821039473,0.12202700236665914
17.20099999999804,0.9896423938829205,0.0687679025989056
17.400999999998284,0.9482766593002437,0.03657570628203539
17.60099999999853,0.9017034992323278,0.025728822045567642
17.800999999998773,0.8398551674066572,0.03450305380705116
18.000999999999017,0.7693868140840902,0.05697243541090141
18.20099999999926,0.7025247540745729,0.08482566819760244
18.400999999999506,0.6245956927028802,0.12078306890088417
18.60099999999975,0.5547976399461328,0.15366992092542336
18.799999999999994,0.4852573123821379,0.18714267614574054
19.000000000000238,0.4242914539332832,0.23381929098540336
19.200000000000482,0.3843521238980899,0.28873160522071073
19.400000000000727,0.36811217592228773,0.346808437428272
19.60000000000097,0.3733477568465332,0.40438387259413594
19.800000000001216,0.39418412412746706,0.46636246403219167
20.00000000000146,0.4279848133301487,0.5281994915485273
