Time (s),X (m),Y (m)
0.001,4.1020280575708355e-05,0.0010155025257856582
0.20000000000000015,0.0034550629005049285,-5.777513462763518e-05
0.4000000000000003,0.015470800881271628,-0.005437092117793435
0.6000000000000004,0.038271400521067936,-0.0034815685768135878
0.8000000000000006,0.07784442816036165,0.009533128029474666
1.0000000000000007,0.12086025121112325,0.007009642227026325
1.2009999999999785,0.17127453732254555,-0.01600785800287799
1.4009999999999565,0.24105004621687587,-0.04014105026231384
1.6009999999999345,0.30564655528526397,-0.06521587082364251
1.8009999999999124,0.34775242156511277,-0.09898942964285015
2.0009999999998906,0.3405061002536629,-0.1411726388672635
2.2009999999998686,0.30657736845972045,-0.1879968698345693
2.4009999999998466,0.26858450738759954,-0.2390069814917842
2.6009999999998246,0.22310112199639748,-0.2687198543274043
2.8009999999998025,0.17238966439268352,-0.2690085441040772
3.0009999999997805,0.11429776211584643,-0.24650116943959538
3.2009999999997585,0.06508458373893639,-0.20998574387199007
3.4009999999997365,0.04059840262218538,-0.16000995591171008
3.6009999999997144,0.0380782791874215,-0.10099569798916394
3.8009999999996924,0.05792363980232248,-0.050374008091335604
4.000999999999671,0.095021926786793,-0.012105101428152855
4.200999999999738,0.138038364675788,-0.015192461990636992
4.400999999999804,0.18921431802992011,-0.03048866949120891
4.600999999999871,0.25074383798866506,-0.05191323924491622
4.800999999999938,0.286099069343143,-0.08739534889082866
5.000000000000004,0.2898093091440678,-0.1405847349605514
5.200000000000071,0.2810102277734636,-0.20391829845989498
5.400000000000138,0.2722286831748868,-0.27190692162153757
5.600000000000205,0.2487008382924109,-0.3404839712087013
5.800000000000272,0.21105983758990862,-0.40708216657490937
6.000000000000338,0.16377411716596393,-0.4537954101417005
6.200000000000405,0.10452038353995204,-0.4973813306305405
6.400000000000472,0.041240257006955564,-0.538838143886707
6.600000000000539,-0.02106899220058295,-0.5689749530806368
6.800000000000606,-0.08066080835762868,-0.5502517144052679
7.000000000000672,-0.15305947210879617,-0.5220699549755712
7.200000000000739,-0.20833038612380622,-0.47532655189131867
7.400000000000806,-0.2269411687217658,-0.4196946038055734
7.600000000000873,-0.22082723625353123,-0.3537504697396665
7.8000000000009395,-0.2035186750244765,-0.28508073804310163
8.000000000001005,-0.1706090440673696,-0.2260335492953559
8.200000000000895,-0.12188866773994561,-0.18373331558830122
8.400000000000784,-0.05923805679488584,-0.16355633109518636
8.600000000000673,0.013026782703776598,-0.1650748074917528
8.800000000000562,0.0871026406124676,-0.17457183410901447
9.000000000000451,0.1316159685218912,-0.203638974128596
9.20000000000034,0.1684444697999235,-0.24340617504328138
9.40000000000023,0.20909143301718053,-0.2963801124869921
9.600000000000119,0.2333369552715747,-0.35686797515932966
9.800000000000008,0.2509044270679246,-0.4312600086186987
10.000999999999896,0.25264969190053554,-0.5149950776524361
10.200999999999786,0.24044249409706198,-0.5929989716619779
10.400999999999675,0.20807316401103676,-0.6305365135277451
10.600999999999564,0.1595782924435456,-0.6258381970892255
10.800999999999453,0.10349065321388592,-0.595484708617006
11.000999999999342,0.04949479911160469,-0.5581661285438957
11.200999999999231,0.00192706571542335,-0.5090355473757296
11.40099999999912,-0.01497123984280506,-0.4413676644275671
11.60099999999901,-0.012376078406509497,-0.3641146626330351
11.800999999998899,-0.0036692815235765436,-0.28063364974772337
12.000999999998788,0.02639249709523814,-0.20522693586707486
12.200999999998677,0.06237678922582143,-0.14412355213233288
12.400999999998566,0.11179959679330663,-0.1303671069484947
12.600999999998455,0.16969269584685187,-0.1504428716741767
12.800999999998345,0.23534178060855826,-0.17403235901967132
13.000999999998234,0.2800754633306099,-0.21206119690887093
13.200999999998123,0.28755899342684926,-0.26164174801012474
13.400999999998012,0.286640650604529,-0.32469284460274456
13.600999999997901,0.268483483247955,-0.3891895385730657
13.80099999999779,0.2344815226246811,-0.4206268054198314
14.00099999999768,0.186342344865477,-0.4297690413169888
14.200999999997569,0.12783147029539738,-0.43047977148881067
14.400999999997458,0.0737768055878794,-0.40857143236955434
14.600999999997347,0.02113353083846547,-0.3775169961245643
14.800999999997236,-0.005590792366754284,-0.32996428681745427
15.000999999997125,0.006346397161993495,-0.2736199773286949
15.200999999997014,0.029177137382012084,-0.20588021980652357
15.400999999996904,0.057483979921306404,-0.1356429788201553
15.600999999996793,0.0961915259955109,-0.08808384965145115
15.800999999996682,0.1490969576041944,-0.07568652313590152
16.000999999996573,0.20227525543897296,-0.09054111389391657
16.200999999996817,0.24604947093575316,-0.11921780951116541
16.40099999999706,0.25835951160280257,-0.1577514529653815
16.600999999997306,0.24944663346451468,-0.18870684445316174
16.80099999999755,0.22153054375873693,-0.19949418016261825
17.000999999997795,0.1832869926937772,-0.18041064010979974
17.20099999999804,0.13900585155935646,-0.143153369463454
17.400999999998284,0.07980010040265312,-0.1029445017903512
17.60099999999853,0.028548477849606218,-0.0557810068090239
17.800999999998773,0.0028317264612326494,0.00047725706400731835
18.000999999999017,-0.0019452350442631366,0.06267062240940442
18.20099999999926,0.017230686938113,0.1076027614505122
18.400999999999506,0.05164286018378437,0.11202706007866624
18.60099999999975,0.08207366402992783,0.0800369040259877
18.799999999999994,0.11050707142399724,0.028955898406695685
19.000000000000238,0.124728245050312,-0.033145216769559074
19.200000000000482,0.10429689134555803,-0.10485694205577904
19.400000000000727,0.08225054477283608,-0.1802585778893422
19.60000000000097,0.05597216848826532,-0.25718740593316847
19.800000000001216,0.01791336036171821,-0.3243824291066232
20.00000000000146,-0.03164646706562622,-0.38755062291057396
