Time (s),X (m),Y (m)
0.001,0.0011546366250239817,0.000435790549910003
0.20000000000000015,-0.0015507383125927662,-0.0012730073316771363
0.4000000000000003,0.0012759738949211785,-0.0006496825583189994
0.6000000000000004,0.007617113517783755,-0.00044253991145723644
0.8000000000000006,0.008721357653825304,-4.866373771257467e-05
1.0000000000000007,0.013434006739660874,0.0011183658875137809
1.2009999999999785,0.01570530539088701,-0.000701659591362715
1.4009999999999565,0.021007653079442985,0.0017212085382578614
1.6009999999999345,0.02349181245071559,0.0029625221921222187
1.8009999999999124,0.02869261599933292,0.005464448528193004
2.0009999999998906,0.033639090930283805,0.007830040493802117
2.2009999999998686,0.03912590526189025,0.010175638391416974
2.4009999999998466,0.04493527495121221,0.013484458793837596
2.6009999999998246,0.050426826912748475,0.017073315989701927
2.8009999999998025,0.05594040401289935,0.01982939043771107
3.0009999999997805,0.06220498278134417,0.024140308436252055
3.2009999999997585,0.06871504351366088,0.02842587247011138
3.4009999999997365,0.07403273771622254,0.03106694477040298
3.6009999999997144,0.07915210297617609,0.03557646901084158
3.8009999999996924,0.08560729463123122,0.04022276807018178
4.000999999999671,0.09190627393854633,0.04525377415899307
4.200999999999738,0.09799910630744661,0.05134724978573742
4.400999999999804,0.10324560088978026,0.05669009733550991
4.600999999999871,0.10826515335291015,0.06208302111524444
4.800999999999938,0.11346348305405407,0.06791098996631292
5.000000000000004,0.11840520056231259,0.0738601112019606
5.200000000000071,0.12232202542283255,0.07823236021849218
5.400000000000138,0.1265542012116053,0.084705479914405
5.600000000000205,0.12989054308485917,0.08931672320326248
5.800000000000272,0.13338707993518437,0.09515855798611716
6.000000000000338,0.13640881910338398,0.10079294467969663
6.200000000000405,0.13791915518619155,0.10464190772693932
6.400000000000472,0.13882699624051162,0.10760503163717645
6.600000000000539,0.14083556743030445,0.11297974770866527
6.800000000000606,0.1418952008852202,0.11771555099457356
7.000000000000672,0.14187463743588777,0.1212083973257094
7.200000000000739,0.14201756887243536,0.12487435981909187
7.400000000000806,0.14169494845028302,0.12875942975737034
7.600000000000873,0.14140279480662785,0.13327627647780893
7.8000000000009395,0.140694547249462,0.1371674965261859
8.000000000001005,0.13963023791134013,0.14107983441137564
8.200000000000895,0.13868143382424533,0.1449398330783449
8.400000000000784,0.1374012783540419,0.14927063979221847
8.600000000000673,0.13603426499974708,0.1534858837389091
8.800000000000562,0.13508093814921887,0.1585243837952125
9.000000000000451,0.13320616124591536,0.1638711286356506
9.20000000000034,0.13085824834584533,0.16963903272318392
9.40000000000023,0.12799021783292205,0.17446708486772958
9.600000000000119,0.1254348041300139,0.17882431843878932
9.800000000000008,0.12159387218747432,0.18487353125137368
10.000999999999896,0.11852018296435736,0.1903456536535093
10.200999999999786,0.11476988142195221,0.1964469363527541
10.400999999999675,0.1115466429437685,0.20088117732477848
10.600999999999564,0.1078260440345773,0.20533301059770898
10.800999999999453,0.10379130454320791,0.20923106736452332
11.000999999999342,0.09973925309878424,0.21307578652747453
11.200999999999231,0.09538522032784875,0.21752653988148096
11.40099999999912,0.09186461725424275,0.22100410383369776
11.60099999999901,0.08664748893181817,0.22528226569662474
11.800999999998899,0.08083468209754707,0.2299759992160088
12.000999999998788,0.07511718921956537,0.234440692807141
12.200999999998677,0.06947702937896015,0.23870170433021307
12.400999999998566,0.06474834538105381,0.24226424957107418
12.600999999998455,0.05999630554793186,0.2447575851295415
12.800999999998345,0.05601513142822142,0.24680873141553503
13.000999999998234,0.051976084460757604,0.24858451954288696
13.200999999998123,0.047881700686142,0.25034596207805826
13.400999999998012,0.04121993823896326,0.2528602981043535
13.600999999997901,0.035640591260455406,0.2545832659320602
13.80099999999779,0.031219720412730512,0.2550268799524772
14.00099999999768,0.026696441789311947,0.2552047925522396
14.200999999997569,0.02169188440218442,0.25554259743964347
14.400999999997458,0.017529244414333237,0.25509357220964857
14.600999999997347,0.013051457888721115,0.25439896904302534
14.800999999997236,0.009302055216927414,0.2532710414218304
15.000999999997125,0.002723252748693023,0.2523449260480504
15.200999999997014,-0.0018548845196506608,0.25106938112953814
15.400999999996904,-0.006038722355756463,0.24924031812481304
15.600999999996793,-0.010742088555700396,0.2473084281540639
15.800999999996682,-0.015953748431973336,0.2446625018389929
16.000999999996573,-0.02034955861504232,0.24210752244289765
16.200999999996817,-0.025688924253504056,0.23933888533930178
16.40099999999706,-0.030471613685893104,0.23646027586000065
16.600999999997306,-0.0355598482688837,0.2335606509078962
16.80099999999755,-0.04233180821191009,0.22962050984258808
17.000999999997795,-0.048852476299623984,0.22553518547866266
17.20099999999804,-0.05523196525444706,0.22090098927800683
17.400999999998284,-0.06029779379190313,0.21724385856385628
17.60099999999853,-0.06561274554014655,0.21267565795181867
17.800999999998773,-0.07144275028019192,0.2072380109076074
18.000999999999017,-0.07593282771547157,0.20292949046831618
18.20099999999926,-0.0803240965285996,0.19768169855009268
18.400999999999506,-0.08370895010868701,0.19332448502037528
18.60099999999975,-0.08759843857694426,0.1891621412273893
18.799999999999994,-0.09117187237918321,0.18443270799272898
19.000000000000238,-0.09372103924869658,0.1807957379643714
19.200000000000482,-0.09671104589498454,0.17643270641756303
19.400000000000727,-0.09987972053981951,0.17170283295887348
19.60000000000097,-0.10308765061970425,0.16524393458743977
19.800000000001216,-0.10558451094733709,0.16015176452144814
20.00000000000146,-0.10746945287401723,0.15574725519788324
