Time (s),X (m),Y (m)
0.001,-0.0008071636076123137,8.987223813608099e-05
0.20000000000000015,0.0010400937887312055,8.141979189207001e-05
0.4000000000000003,-0.004459361084474779,0.0005228210834003498
0.6000000000000004,0.0010021767861908707,-0.0007978976092581463
0.8000000000000006,0.004805795960142612,0.0013904272942534864
1.0000000000000007,0.013689980890560805,0.0029777096725977802
1.2009999999999785,0.018231437702384695,0.004565846144960613
1.4009999999999565,0.02112306518647921,0.0016619403721807252
1.6009999999999345,0.025272747823786863,-0.000258580720550876
1.8009999999999124,0.03931882243286067,-0.004064640486714341
2.0009999999998906,0.04517761143182001,-0.007173351594316086
2.2009999999998686,0.05289942329228502,-0.011748691316930108
2.4009999999998466,0.06010924728566634,-0.013278883435415854
2.6009999999998246,0.07002210987106462,-0.016168254266261645
2.8009999999998025,0.0773981569445587,-0.01931687214499132
3.0009999999997805,0.09659160999062721,-0.02786214174041945
3.2009999999997585,0.11448382107179993,-0.03781890722415378
3.4009999999997365,0.12822432839903466,-0.04510162451806698
3.6009999999997144,0.1453547582242043,-0.05346387765907909
3.8009999999996924,0.16071873333263162,-0.05955068503486518
4.000999999999671,0.17993458710819754,-0.06882554955284617
4.200999999999738,0.1962763576755654,-0.07907076307015626
4.400999999999804,0.20800392102018464,-0.0827887587128594
4.600999999999871,0.22372627445994833,-0.08869661290875876
4.800999999999938,0.2364500514875554,-0.09425281813315983
5.000000000000004,0.2441983290646967,-0.09947882225265682
5.200000000000071,0.2546951003477216,-0.10814115138304611
5.400000000000138,0.26994778897508037,-0.11380627361345036
5.600000000000205,0.2813744363836963,-0.11949385213192255
5.800000000000272,0.29255315675869364,-0.12528157383642852
6.000000000000338,0.30312396111640816,-0.13271170339564453
6.200000000000405,0.310345311446769,-0.13411914755523927
6.400000000000472,0.32667639948153687,-0.14083387409747553
6.600000000000539,0.35159848838254465,-0.14926131928776304
6.800000000000606,0.37417556315785494,-0.16132470331762808
7.000000000000672,0.3896504966733953,-0.17058241767314666
7.200000000000739,0.4107459370699519,-0.17887847787842717
7.400000000000806,0.4247180681142402,-0.18731402604249278
7.600000000000873,0.43949351049526336,-0.19396614211349825
7.8000000000009395,0.4546866841581514,-0.19970041576505362
8.000000000001005,0.46161351952179525,-0.19896089375893267
8.200000000000895,0.47953886383712574,-0.2069334110939918
8.400000000000784,0.4991751386454922,-0.21612966437848627
8.600000000000673,0.5104327561657948,-0.2237684975234448
8.800000000000562,0.521726993942399,-0.22862649535927718
9.000000000000451,0.5326174817824574,-0.23608562746127532
9.20000000000034,0.5415566959356846,-0.2418368852040485
9.40000000000023,0.5580131749527023,-0.252293388819936
9.600000000000119,0.5780617167255382,-0.26060168038962367
9.800000000000008,0.5919953211917878,-0.2675218107114891
10.000999999999896,0.6006538431757904,-0.27101360678706454
10.200999999999786,0.6160243875906003,-0.27431298230452744
10.400999999999675,0.6311183108473367,-0.28563803291395956
10.600999999999564,0.6526466701910596,-0.29293023320128786
10.800999999999453,0.6648978586799874,-0.2989555203470673
11.000999999999342,0.6802180970722584,-0.30926248802041956
11.200999999999231,0.6949220289482017,-0.31702187066340687
11.40099999999912,0.7124847112711333,-0.3250961856312688
11.60099999999901,0.7269612976984238,-0.3334317465669769
11.800999999998899,0.7424343443979167,-0.3419836885343924
12.000999999998788,0.7605220934210837,-0.35281802875438606
12.200999999998677,0.7798278960291005,-0.36582958854283265
12.400999999998566,0.7937605679342511,-0.37146702093330997
12.600999999998455,0.8093092866629287,-0.38006228239988166
12.800999999998345,0.828835268838067,-0.3914142062580927
13.000999999998234,0.8432140169532123,-0.40061699496527803
13.200999999998123,0.8551995750983236,-0.4097254042520627
13.400999999998012,0.8715112425385796,-0.42104790583617496
13.600999999997901,0.8852366233423031,-0.4296735644235458
13.80099999999779,0.9023946371917854,-0.44026200235107993
14.00099999999768,0.9244214719596188,-0.45443905940385865
14.200999999997569,0.9436759054034979,-0.46563948397420896
14.400999999997458,0.9636021227969138,-0.4764273129318088
14.600999999997347,0.9755544485102521,-0.4827163740783434
14.800999999997236,0.9914883912778941,-0.49193339751292225
15.000999999997125,1.010230639945179,-0.5065646204414502
15.200999999997014,1.023101050594415,-0.5210286460798403
15.400999999996904,1.0372555076754222,-0.5299698815894709
15.600999999996793,1.049691330186568,-0.5486250249691079
15.800999999996682,1.0583740724359585,-0.5625962905515938
16.000999999996573,1.0680188695675519,-0.573963473889155
16.200999999996817,1.0738291803301012,-0.5906392044577105
16.40099999999706,1.0779426970227675,-0.6058490981038483
16.600999999997306,1.0790593810288283,-0.6201383856521617
16.80099999999755,1.076937160303358,-0.6368789304362439
17.000999999997795,1.076406161894944,-0.65527107251675
17.20099999999804,1.0737825721877696,-0.666119343546307
17.400999999998284,1.0742323064362638,-0.679693024068184
17.60099999999853,1.0757678711123388,-0.6979990261155812
17.800999999998773,1.0726868921322756,-0.7249474645417383
18.000999999999017,1.0669906585789135,-0.7488161570391132
18.20099999999926,1.063928430013113,-0.7721331148636431
18.400999999999506,1.0587980877358165,-0.7952809602598261
18.60099999999975,1.0536405685693417,-0.8149189539758609
18.799999999999994,1.0478165097066015,-0.8299206132330634
19.000000000000238,1.0428539611878769,-0.841879394167266
19.200000000000482,1.0363086970337803,-0.8508366098718885
19.400000000000727,1.0302867711502668,-0.8729668793141532
19.60000000000097,1.023063458829303,-0.8931998439385073
19.800000000001216,1.0105845596103065,-0.9203661150164884
20.00000000000146,1.001219025365628,-0.9353964195346549
