Time (s),X (m),Y (m)
0.001,0.00048696676677933824,-0.0009960320817112695
0.20000000000000015,0.0013171221376231232,0.005466780814348214
0.4000000000000003,0.0036750677444259785,0.008513789844613526
0.6000000000000004,0.012731156136253391,0.007382313584436233
0.8000000000000006,0.031634164310934326,0.008984959461075736
1.0000000000000007,0.05701055401690786,0.012361643426611876
1.2009999999999785,0.08368142298700003,0.015738730630179578
1.4009999999999565,0.10816908924058824,0.007474785882363281
1.6009999999999345,0.132628044083181,-0.015526447007738649
1.8009999999999124,0.1472328382363234,-0.03900103182392385
2.0009999999998906,0.160154246079598,-0.06363069755827572
2.2009999999998686,0.1830839339534293,-0.08254564312989188
2.4009999999998466,0.2067516790439291,-0.10128871074461954
2.6009999999998246,0.22774841633516787,-0.11905209475112045
2.8009999999998025,0.23625775386285258,-0.14769741312121173
3.0009999999997805,0.2438312253878866,-0.18564832106261347
3.2009999999997585,0.2671511005963006,-0.21294377953565577
3.4009999999997365,0.3039105199322328,-0.22736801871170703
3.6009999999997144,0.33742764496732375,-0.24077604582927678
3.8009999999996924,0.3711207371406379,-0.25505766776952477
4.000999999999671,0.38774784238039744,-0.286464702601958
4.200999999999738,0.39773099281105967,-0.3245295140441465
4.400999999999804,0.41722976990650723,-0.35749821094302975
4.600999999999871,0.4370915196884917,-0.3902730713051066
4.800999999999938,0.4628243952183167,-0.4107136423476275
5.000000000000004,0.4876688148114817,-0.427838679934547
5.200000000000071,0.5060456816027555,-0.4550464343916771
5.400000000000138,0.5240140452279859,-0.48988140063414565
5.600000000000205,0.5468961517416441,-0.5206214071080317
5.800000000000272,0.5843094458746627,-0.5391481891173379
6.000000000000338,0.6167873069554412,-0.5561648798157999
6.200000000000405,0.6339008751832848,-0.5886244838915274
6.400000000000472,0.6469617717944652,-0.6180074224927427
6.600000000000539,0.6625038020966256,-0.6478315656432304
6.800000000000606,0.6800396138334238,-0.6826422833101057
7.000000000000672,0.7027437493254513,-0.7161706489896631
7.200000000000739,0.7300275712522158,-0.7456254442040047
7.400000000000806,0.7505192588171209,-0.7747693732200733
7.600000000000873,0.7667720470599815,-0.7938671887514085
7.8000000000009395,0.7759487185342183,-0.8248187052940948
8.000000000001005,0.7948839664013978,-0.8579146083353989
8.200000000000895,0.8071235205423047,-0.8992407981005176
8.400000000000784,0.8173532524079982,-0.9400124948444956
8.600000000000673,0.8242559055174294,-0.9813806270232492
8.800000000000562,0.8209500370042985,-1.019152800288035
9.000000000000451,0.8085270226958505,-1.05589590697946
9.20000000000034,0.7910743055529934,-1.0923172862335004
9.40000000000023,0.7678885822738803,-1.1249075302326046
9.600000000000119,0.7513553376868098,-1.156200068685805
9.800000000000008,0.7334470073562556,-1.1945927095903506
10.000999999999896,0.704599930219812,-1.2270386725720335
10.200999999999786,0.6721803567078489,-1.2563750144653518
10.400999999999675,0.6381314696251035,-1.2932565252526866
10.600999999999564,0.6046669725440309,-1.3222773171416475
10.800999999999453,0.5687426716301818,-1.3476904194589472
11.000999999999342,0.5487727012075437,-1.3773646215127342
11.200999999999231,0.5182686539607824,-1.4005290746063357
11.40099999999912,0.4834739355262589,-1.426300346564644
11.60099999999901,0.45451431821711213,-1.4512242460512588
11.800999999998899,0.42592047019918133,-1.485027989519677
12.000999999998788,0.40678027288842533,-1.522555321965426
12.200999999998677,0.376568496915633,-1.5512765846568415
12.400999999998566,0.34634689962909887,-1.5766228739004
12.600999999998455,0.31384972894347724,-1.5921232662445746
12.800999999998345,0.2844298162694601,-1.612067084178371
13.000999999998234,0.25556034233304953,-1.6208095244744962
13.200999999998123,0.2263626089951615,-1.62943380710726
13.400999999998012,0.19401395712572087,-1.6406852683916695
13.600999999997901,0.1605943523347897,-1.6554711225584615
13.80099999999779,0.12258183046356166,-1.6792792383063542
14.00099999999768,0.08755876636865335,-1.7039264482851069
14.200999999997569,0.05500623148550967,-1.7301897612103687
14.400999999997458,0.0210770162816925,-1.7512479590440668
14.600999999997347,-0.01081321391285331,-1.7623034444611656
14.800999999997236,-0.04394089260525245,-1.7597120922527352
15.000999999997125,-0.0819276929169156,-1.7716285291506548
15.200999999997014,-0.11891169857145652,-1.7645125772496368
15.400999999996904,-0.15291778454140817,-1.7708206801375015
15.600999999996793,-0.18687842189206524,-1.7542286482887304
15.800999999996682,-0.22523007273696805,-1.7285896072598939
16.000999999996573,-0.25193271682083707,-1.693960836566842
16.200999999996817,-0.2711808977220368,-1.6573708366552717
16.40099999999706,-0.29680636273517996,-1.6250573259980348
16.600999999997306,-0.332329754254555,-1.600926633731379
16.80099999999755,-0.3560297728605645,-1.5744013187535826
17.000999999997795,-0.3849773926565905,-1.5464014640249342
17.20099999999804,-0.41286560705793,-1.5185805956983538
17.400999999998284,-0.44356972039184406,-1.4942166476530456
17.60099999999853,-0.4738488706326551,-1.4634408192730577
17.800999999998773,-0.4893028156939223,-1.4246582467703497
18.000999999999017,-0.5127406129997538,-1.3906606456920707
18.20099999999926,-0.5298339507729558,-1.3524445673488301
18.400999999999506,-0.543283271476651,-1.3191733501631016
18.60099999999975,-0.5418521100519453,-1.2823835631529406
18.799999999999994,-0.5341712143124288,-1.2433808806818025
19.000000000000238,-0.5158278110942126,-1.2062669859873747
19.200000000000482,-0.5054631622194838,-1.1713521101154625
19.400000000000727,-0.47610712196324506,-1.1501017875415689
19.60000000000097,-0.4494450974450193,-1.1255975450762394
19.800000000001216,-0.4166029472007838,-1.0967104395720733
20.00000000000146,-0.37066589975646097,-1.0739490617893832
