Time (s),X (m),Y (m)
0.001,0.0003991412691229187,-0.0010155025257856578
0.20000000000000015,0.0015942915809974685,0.002455890225775709
0.4000000000000003,0.012376361214553908,0.012676499917586556
0.6000000000000004,0.030304642660686703,0.013613712909256885
0.8000000000000006,0.0559965468288886,-0.016209661304219337
1.0000000000000007,0.08626035247361012,-0.05650328017011279
1.2009999999999785,0.12397714227752848,-0.08113039107675415
1.4009999999999565,0.16262157640335664,-0.1118616457923651
1.6009999999999345,0.20305328738807985,-0.14639420508412637
1.8009999999999124,0.24574796117791872,-0.1852991643905014
2.0009999999998906,0.24421980447173547,-0.2287052028325652
2.2009999999998686,0.224704067466489,-0.2785020069500463
2.4009999999998466,0.2029892145413852,-0.3254642330065634
2.6009999999998246,0.1806660515152794,-0.3681666279293184
2.8009999999998025,0.15113815049840468,-0.3832715705324422
3.0009999999997805,0.11258764173060827,-0.3769788361038291
3.2009999999997585,0.06773069368382027,-0.35362708958360717
3.4009999999997365,0.026081119870855766,-0.32696753930413913
3.6009999999997144,-0.0055738307539567435,-0.29374170867834803
3.8009999999996924,-0.009867873044065596,-0.25398867389962837
4.000999999999671,-0.005397627818276894,-0.20091165681095277
4.200999999999738,0.00768336245992828,-0.14630733794020043
4.400999999999804,0.03152423150737311,-0.0951767090078795
4.600999999999871,0.07530564619729092,-0.05901952833163257
4.800999999999938,0.12271461588536982,-0.02792839480722482
5.000000000000004,0.17082090922635465,-0.008187835778651828
5.200000000000071,0.22615825661659086,-0.004907520353835298
5.400000000000138,0.284638421629417,-0.014410428435515796
5.600000000000205,0.3446308900015591,-0.023620147396885276
5.800000000000272,0.3987940104901373,-0.04312994133027482
6.000000000000338,0.43679931926598525,-0.07805769179798168
6.200000000000405,0.4427394292503074,-0.1221051334470217
6.400000000000472,0.43376736192207443,-0.17220721741452524
6.600000000000539,0.4115549194024557,-0.20543156525280012
6.800000000000606,0.3801498513682291,-0.2012775288183147
7.000000000000672,0.33737844191127603,-0.18233777489939826
7.200000000000739,0.28983660925401505,-0.15183839645831226
7.400000000000806,0.24364878457195377,-0.11220531859629311
7.600000000000873,0.1963328243313652,-0.06889473780855958
7.8000000000009395,0.15395662582763187,-0.016070172763055852
8.000000000001005,0.1487096359715471,0.04371848895670041
8.200000000000895,0.16807548071394657,0.10461361805710755
8.400000000000784,0.20366516899298734,0.1602950969002211
8.600000000000673,0.2410249681747232,0.21269525424264743
8.800000000000562,0.28905084875381465,0.22870021739586593
9.000000000000451,0.3459915358417029,0.2313114052816633
9.20000000000034,0.40205937609810555,0.21719617995201623
9.40000000000023,0.4583804786230994,0.1900191435691053
9.600000000000119,0.5094560114044254,0.15425450200080645
9.800000000000008,0.5404510710991958,0.11153998153786104
10.000999999999896,0.5541330028981137,0.060771909571568763
10.200999999999786,0.5422287557328056,0.010240237848036305
10.400999999999675,0.5182789312704199,-0.024506061192557185
10.600999999999564,0.4813052892938239,-0.026351869544756535
10.800999999999453,0.4327693599905705,-0.018531679014664904
11.000999999999342,0.3916372781483553,0.01067258782668302
11.200999999999231,0.35735794048370806,0.04726477715010129
11.40099999999912,0.337558890902449,0.09581926627190078
11.60099999999901,0.3538891171459381,0.1479611072401018
11.800999999998899,0.3846236310804862,0.20482788276124292
12.000999999998788,0.4180405509924884,0.26705129547497003
12.200999999998677,0.45391061929725207,0.3202018539617722
12.400999999998566,0.4979387143891839,0.3513257908152017
12.600999999998455,0.5510675464414053,0.3726394284811408
12.800999999998345,0.6121014116715897,0.37147669334184386
13.000999999998234,0.6756688359956039,0.3618784532875724
13.200999999998123,0.7293889582481894,0.34229184959433084
13.400999999998012,0.755863681876502,0.3152176302091437
13.600999999997901,0.7613825366147112,0.27640860167001313
13.80099999999779,0.7584724910901465,0.22429351891667104
14.00099999999768,0.7335191159952058,0.18757292751643342
14.200999999997569,0.7016856752344619,0.1613915698874063
14.400999999997458,0.653024291244277,0.12876971612859583
14.600999999997347,0.598781194106237,0.1284424301601278
14.800999999997236,0.5469573222341914,0.14606463034098782
15.000999999997125,0.49592710458884176,0.16831416750391828
15.200999999997014,0.46465616334535503,0.19844181506215233
15.400999999996904,0.4593868261160349,0.24057629670252803
15.600999999996793,0.4698755472073834,0.2856882921839679
15.800999999996682,0.49052588996629115,0.33918519058612273
16.000999999996573,0.5257098441186522,0.38326616043687356
16.200999999996817,0.567914733951869,0.4182661102383037
16.40099999999706,0.6141322148824598,0.4513384739377562
16.600999999997306,0.6636025189654824,0.457210554903394
16.80099999999755,0.7194706899828571,0.4468206116302552
17.000999999997795,0.7865822593359361,0.4325409545741076
17.20099999999804,0.8452027996945685,0.39981522894555765
17.400999999998284,0.8947024846539068,0.3581222816106427
17.60099999999853,0.9321679069691443,0.31266625142445204
17.800999999998773,0.9433239712161313,0.2647875015619928
18.000999999999017,0.9321149059055377,0.2226077359848715
18.20099999999926,0.9072940325221815,0.18366738035801913
18.400999999999506,0.8712321467234966,0.15162630803616087
18.60099999999975,0.8198387117750908,0.14493467845109492
18.799999999999994,0.7598208393259462,0.15988363888625343
19.000000000000238,0.7014216593678381,0.1800741593830042
19.200000000000482,0.6478775513897549,0.20999690108545022
19.400000000000727,0.6028321046419715,0.24932588768443187
19.60000000000097,0.5497866960827973,0.28311957555515654
19.800000000001216,0.4979497909451943,0.317647455296487
20.00000000000146,0.456162082704786,0.3615122358108401
