Time (s),X (m),Y (m)
0.001,-0.0005698399629515257,-0.0006628221997479689
0.20000000000000015,0.0005908693608313514,-0.0004205204750361811
0.4000000000000003,1.8432776912526993e-05,-0.0033003673586466907
0.6000000000000004,0.0022011544008188237,-0.00504096626652894
0.8000000000000006,0.006353313661956679,-0.0044005455670746195
1.0000000000000007,0.002299409155438096,-0.01072591231354686
1.2009999999999785,0.010375769312945584,-0.006984450936332029
1.4009999999999565,0.02463356956951156,0.0037385331929830658
1.6009999999999345,0.03889704103468372,0.010767197204099195
1.8009999999999124,0.04718163743665949,0.011673271727165955
2.0009999999998906,0.05881962656517103,0.010209679331893932
2.2009999999998686,0.06882606354356678,0.01563098227771763
2.4009999999998466,0.07937662181787702,0.01871951302211902
2.6009999999998246,0.09208155711454294,0.022421360629661068
2.8009999999998025,0.10266558588321303,0.021124762686736655
3.0009999999997805,0.11264333213060766,0.03000997259136177
3.2009999999997585,0.12059540328392873,0.03572594076935919
3.4009999999997365,0.12961759308641202,0.04395891053623949
3.6009999999997144,0.1421274025419407,0.051417156252208225
3.8009999999996924,0.1508583460865027,0.054403085570203055
4.000999999999671,0.1583512066131154,0.059192464267108225
4.200999999999738,0.17052231804584161,0.0680214059678698
4.400999999999804,0.18177776258194317,0.06355861331854695
4.600999999999871,0.19256415493290396,0.06507955905118393
4.800999999999938,0.20209821493584262,0.07149460274170885
5.000000000000004,0.2136374327822322,0.08007841259831287
5.200000000000071,0.22510600319600696,0.08807720931371385
5.400000000000138,0.2367256486039885,0.09385580225429596
5.600000000000205,0.2478480042191953,0.10415082642521074
5.800000000000272,0.25901615772690634,0.11440938176020335
6.000000000000338,0.26589253806999336,0.1179873929134145
6.200000000000405,0.27384353405378337,0.13111561645497322
6.400000000000472,0.28310322307582353,0.14113829422824667
6.600000000000539,0.29009389709845435,0.1503489910292102
6.800000000000606,0.30282625205986635,0.15786343538838912
7.000000000000672,0.31220932553558234,0.163802100103443
7.200000000000739,0.3190512378078759,0.17093289592328212
7.400000000000806,0.32367245660569993,0.1764857552319473
7.600000000000873,0.3268024393173556,0.19644999915698336
7.8000000000009395,0.3355697911582918,0.2109626293277932
8.000000000001005,0.33914959258388705,0.22337083905610347
8.200000000000895,0.346100748481053,0.23182815156275066
8.400000000000784,0.3509176515529157,0.24440544029478023
8.600000000000673,0.3553348711962707,0.2585039207786182
8.800000000000562,0.3643530366788843,0.27076053200489786
9.000000000000451,0.36734325119556643,0.28094362954345126
9.20000000000034,0.3723964152223243,0.29339354905310894
9.40000000000023,0.3796077017366702,0.30400905853534155
9.600000000000119,0.3864486576903907,0.3140725512611592
9.800000000000008,0.3927205781350426,0.32678454283507197
10.000999999999896,0.39871491011733234,0.33265299973051443
10.200999999999786,0.40287010332588175,0.3453637605690322
10.400999999999675,0.40846273398115807,0.3569039842823933
10.600999999999564,0.41272577123050613,0.36504236055765577
10.800999999999453,0.41730561743508626,0.375553466664543
11.000999999999342,0.42424534759271737,0.38758554505721676
11.200999999999231,0.42982814659129054,0.4017372302011748
11.40099999999912,0.435593718077154,0.4165617874191359
11.60099999999901,0.43921279788645134,0.4253703610225497
11.800999999998899,0.4404353511013676,0.4402114326480495
12.000999999998788,0.44484245642890613,0.458508950008726
12.200999999998677,0.4505135707149619,0.47613693530068124
12.400999999998566,0.45695250118807273,0.4874607105680192
12.600999999998455,0.45843121191099706,0.5040773498025354
12.800999999998345,0.4642291162361101,0.5108219470186475
13.000999999998234,0.4698082840024933,0.527392550185859
13.200999999998123,0.4745993592693961,0.5377624032276729
13.400999999998012,0.4834937133181932,0.5506548185309632
13.600999999997901,0.4954537548432032,0.5638698940437419
13.80099999999779,0.5028182022707985,0.5776926534213702
14.00099999999768,0.5057956554705357,0.591329294347984
14.200999999997569,0.5156536482465658,0.6034109480740774
14.400999999997458,0.5222557430294004,0.6180165974103333
14.600999999997347,0.5249925718212676,0.6331302229526993
14.800999999997236,0.5277504588262513,0.6453542488491975
15.000999999997125,0.5322616101537445,0.6601505359456148
15.200999999997014,0.5341829985737925,0.6713360440621539
15.400999999996904,0.5360575570058588,0.6887368642638013
15.600999999996793,0.5392720671002462,0.7083694021726683
15.800999999996682,0.54048506305557,0.7213413479065437
16.000999999996573,0.5426163051965459,0.7364490494723792
16.200999999996817,0.5454035813203955,0.7520428525144628
16.40099999999706,0.5501312413889718,0.7616838789043722
16.600999999997306,0.5510765714355971,0.7801503432922422
16.80099999999755,0.5565578191036067,0.7941934440415032
17.000999999997795,0.5624864521032317,0.8000132412321822
17.20099999999804,0.567668452225938,0.8117489436936907
17.400999999998284,0.5690405945867884,0.8238772640060402
17.60099999999853,0.5737200338395423,0.837978088948927
17.800999999998773,0.5724715029687046,0.8506631508235865
18.000999999999017,0.5723933753084963,0.8629685597522374
18.20099999999926,0.5734154008204784,0.868592858334232
18.400999999999506,0.5762378516052298,0.8793585966285448
18.60099999999975,0.5753002555515223,0.8929477856154016
18.799999999999994,0.5753454713999866,0.9135228349849579
19.000000000000238,0.5763232264892518,0.9246934562197389
19.200000000000482,0.5759360083027085,0.9387931988359473
19.400000000000727,0.5790648475369601,0.9494501067064471
19.60000000000097,0.5787316067690232,0.9649004038082067
19.800000000001216,0.5835387119644567,0.9775693206662578
20.00000000000146,0.5875495292050535,0.9873807417055092
