Time (s),X (m),Y (m)
0.001,0.0011546366250239817,-0.00043579054991000363
0.20000000000000015,0.0011188814465406941,0.0011115213094776877
0.4000000000000003,0.010562243777008894,0.009111941624162675
0.6000000000000004,0.024039560767804273,0.02237753911562429
0.8000000000000006,0.0447802490847499,0.03141757638913906
1.0000000000000007,0.07298375722837654,0.02895326729138239
1.2009999999999785,0.11735446453718042,0.007777051129093834
1.4009999999999565,0.1579661231009845,-0.014478752743965208
1.6009999999999345,0.19274978826252578,-0.02839354907939672
1.8009999999999124,0.21238191495865766,-0.054442557653907035
2.0009999999998906,0.22066758982441317,-0.09397459314288381
2.2009999999998686,0.22518842618096427,-0.14075708892786054
2.4009999999998466,0.22521710101473089,-0.1925370674770825
2.6009999999998246,0.22062917784530955,-0.23939835137102564
2.8009999999998025,0.2009347873091377,-0.2899123519851297
3.0009999999997805,0.1804602984608719,-0.34379385045282856
3.2009999999997585,0.12896555142658542,-0.38922987493008204
3.4009999999997365,0.06201097366948717,-0.4120171371593981
3.6009999999997144,-0.0033652249166031185,-0.41901893170532767
3.8009999999996924,-0.05126041035076993,-0.4100966804486724
4.000999999999671,-0.07683505322900357,-0.38841019123601384
4.200999999999738,-0.09115584389297829,-0.36063175835040556
4.400999999999804,-0.08430973810167948,-0.3239679240514238
4.600999999999871,-0.060743940134441655,-0.28907798031319415
4.800999999999938,-0.026350245018221162,-0.27238459092317535
5.000000000000004,0.013928719446507894,-0.2713875343705982
5.200000000000071,0.04820939180824929,-0.30116451244979775
5.400000000000138,0.07246830222398895,-0.34163166433438696
5.600000000000205,0.0714784501006074,-0.3842458311443604
5.800000000000272,0.05578054993496994,-0.4264626075788973
6.000000000000338,0.035085440831743524,-0.4735157221003486
6.200000000000405,-0.0011145045043221722,-0.5216714037756678
6.400000000000472,-0.042762103356847485,-0.5573374470945659
6.600000000000539,-0.09701051606903571,-0.5718215333187239
6.800000000000606,-0.15565101223728212,-0.5591786752244183
7.000000000000672,-0.21841817701279317,-0.5366767631966646
7.200000000000739,-0.2805757551257772,-0.5073951696418384
7.400000000000806,-0.3189452761573356,-0.4566579057954208
7.600000000000873,-0.3333324331320389,-0.4004195194383784
7.8000000000009395,-0.32963074151866933,-0.3485741081379439
8.000000000001005,-0.2961869911459597,-0.31625156874177063
8.200000000000895,-0.2485427162441315,-0.30698881147259816
8.400000000000784,-0.20624292624106658,-0.30179531845799584
8.600000000000673,-0.16113345772673515,-0.30580918644451244
8.800000000000562,-0.10842621578688426,-0.3324806727268388
9.000000000000451,-0.0601644650245171,-0.37928324491670923
9.20000000000034,-0.027420159660402222,-0.425920438440958
9.40000000000023,-0.010050374024315979,-0.47088709156353864
9.600000000000119,-0.01882969142973934,-0.5150975148296935
9.800000000000008,-0.051941921796463376,-0.5455715292295421
10.000999999999896,-0.09869651520485012,-0.563806102400863
10.200999999999786,-0.14372989515008558,-0.5775849491144929
10.400999999999675,-0.19846763391145877,-0.5819206375898289
10.600999999999564,-0.2582986448706835,-0.5750198932578023
10.800999999999453,-0.32717329036435255,-0.5577233519778209
11.000999999999342,-0.38591046789943545,-0.5473746592628617
11.200999999999231,-0.4386803074991218,-0.5440095182735707
11.40099999999912,-0.4986067170488515,-0.5182047999304059
11.60099999999901,-0.5490303136101151,-0.47234403707161754
11.800999999998899,-0.5617704404770298,-0.4237088232961578
12.000999999998788,-0.5462734818895388,-0.38446438811906153
12.200999999998677,-0.5141512436359857,-0.362194141425783
12.400999999998566,-0.4788330307150816,-0.35111133003544887
12.600999999998455,-0.433396262417649,-0.35543851678486127
12.800999999998345,-0.39145855317471134,-0.382745392233702
13.000999999998234,-0.3605206172180926,-0.4150536262152543
13.200999999998123,-0.341624364433203,-0.45181101391712036
13.400999999998012,-0.33263874674131644,-0.49604046544201047
13.600999999997901,-0.3418611813948094,-0.5458829260109449
13.80099999999779,-0.36928227998614016,-0.5900453442984239
14.00099999999768,-0.41397589049995953,-0.6151281430867541
14.200999999997569,-0.45636021800601595,-0.6164484262063283
14.400999999997458,-0.4925793729455028,-0.5887631670047586
14.600999999997347,-0.5137089290811485,-0.5349953815092764
14.800999999997236,-0.5207897515544984,-0.4926909434315237
15.000999999997125,-0.5090956966595416,-0.4490303156594869
15.200999999997014,-0.4767768988662956,-0.40534078745759117
15.400999999996904,-0.4273522516457856,-0.3772738899745368
15.600999999996793,-0.37064419048750574,-0.3779909440802286
15.800999999996682,-0.3139074702755018,-0.3990274796123428
16.000999999996573,-0.2697039173626584,-0.4252656199048505
16.200999999996817,-0.2430248964552945,-0.45847803654114305
16.40099999999706,-0.23870403491568723,-0.50477641049658
16.600999999997306,-0.24236132247134243,-0.5610629631162618
16.80099999999755,-0.25446542960163154,-0.6199393341247623
17.000999999997795,-0.2664719704643146,-0.6761271417689244
17.20099999999804,-0.2925997134149151,-0.733370455721503
17.400999999998284,-0.3296121331473262,-0.7739158900875175
17.60099999999853,-0.3776507412735325,-0.7928424980441346
17.800999999998773,-0.44079827762080653,-0.7899072501427445
18.000999999999017,-0.5046596030547438,-0.760196865480178
18.20099999999926,-0.5487831295466071,-0.721268738060699
18.400999999999506,-0.555856808411629,-0.6669639243659561
18.60099999999975,-0.5315039916454484,-0.6117222599147482
18.799999999999994,-0.5011746801118492,-0.5577755432988395
19.000000000000238,-0.43782348952895495,-0.5229695806627747
19.200000000000482,-0.37239055690547246,-0.5018958659191967
19.400000000000727,-0.3112264454638496,-0.4951537680771096
19.60000000000097,-0.2374662751656235,-0.503708301458506
19.800000000001216,-0.1564329792435517,-0.5275595539337585
20.00000000000146,-0.07721871673641324,-0.5678636270683312
