Time (s),X (m),Y (m)
0.001,-4.680521708071185e-05,-0.0009960320817112695
0.20000000000000015,0.0025601300841543817,0.0024645270921360013
0.4000000000000003,0.014523303946746589,0.006640321405504626
0.6000000000000004,0.0335243979001295,0.0020149916722415413
0.8000000000000006,0.07533267254065246,0.003955169138474597
1.0000000000000007,0.11478018383001133,0.005728937342010781
1.2009999999999785,0.15527588678133342,0.0015119737074160045
1.4009999999999565,0.18602042220052847,-0.008664307554872512
1.6009999999999345,0.20584815116371116,-0.032229443222009276
1.8009999999999124,0.22480104834430759,-0.06828628290631844
2.0009999999998906,0.2440193518103556,-0.10889172659637321
2.2009999999998686,0.2604001515091205,-0.15456340180862818
2.4009999999998466,0.2680508659054819,-0.202673342336084
2.6009999999998246,0.2657453521698812,-0.2450168371371412
2.8009999999998025,0.25986348333262244,-0.3088827738996751
3.0009999999997805,0.26306246725805404,-0.3988863856736318
3.2009999999997585,0.26326837423589866,-0.487128461872175
3.4009999999997365,0.24750106842816075,-0.5454612760507945
3.6009999999997144,0.21471794271598355,-0.5815099589988192
3.8009999999996924,0.1679816137718169,-0.6063399041945134
4.000999999999671,0.10587694031050293,-0.6365148533827105
4.200999999999738,0.04088898888333037,-0.6545580166797268
4.400999999999804,-0.024046913182154746,-0.6708254375889325
4.600999999999871,-0.09907062381664439,-0.691292770408084
4.800999999999938,-0.17769704603310763,-0.7269860376110807
5.000000000000004,-0.2549832510885249,-0.7563060403346636
5.200000000000071,-0.34126596297661127,-0.8036819012771786
5.400000000000138,-0.4327281628790209,-0.8567326976543984
5.600000000000205,-0.5270350146214609,-0.9013193448381498
5.800000000000272,-0.6141352314343707,-0.9318384121672836
6.000000000000338,-0.7003675699725347,-0.9596578412741186
6.200000000000405,-0.7856883601952301,-1.0126638018288316
6.400000000000472,-0.864172428265842,-1.0625766270330685
6.600000000000539,-0.9471470736984946,-1.1143093006027753
6.800000000000606,-1.0354641165116691,-1.152754607484528
7.000000000000672,-1.1220401011712047,-1.1875544299366803
7.200000000000739,-1.2067447565430145,-1.2191107723990042
7.400000000000806,-1.2950775629954567,-1.2413706178854842
7.600000000000873,-1.3841105168759136,-1.2595104665050556
7.8000000000009395,-1.4605447233994768,-1.2965521680610186
8.000000000001005,-1.5300954222962024,-1.3448259739573971
8.200000000000895,-1.6051560044797273,-1.386457185499529
8.400000000000784,-1.695857366242911,-1.428487014796745
8.600000000000673,-1.7789635121704683,-1.4467613784465123
8.800000000000562,-1.8307498161927882,-1.4260877892959956
9.000000000000451,-1.8937396347985427,-1.3684577192050529
9.20000000000034,-1.9516169268940553,-1.3017765725156216
9.40000000000023,-2.0121756556638606,-1.2357119134801258
9.600000000000119,-2.079777810341336,-1.1684130355539362
9.800000000000008,-2.124452253901748,-1.0923333790205112
10.000999999999896,-2.167587217183788,-1.0136168591429775
10.200999999999786,-2.2142259283701575,-0.9264863535482681
10.400999999999675,-2.2490563922748166,-0.841069874056013
10.600999999999564,-2.2752860860907673,-0.7499127584487452
10.800999999999453,-2.2870663561694364,-0.6737854923916016
11.000999999999342,-2.2907306968642267,-0.5762537222209192
11.200999999999231,-2.2787988662663445,-0.4871869203052959
11.40099999999912,-2.245457490527512,-0.4221479969858155
11.60099999999901,-2.192080815815543,-0.3785654956236273
11.800999999998899,-2.10650351930328,-0.35021987836471324
12.000999999998788,-2.022075796910198,-0.33974729838747536
12.200999999998677,-1.9701277377069601,-0.3490231491721667
12.400999999998566,-1.9224201286173868,-0.3605682566854366
12.600999999998455,-1.8815023922258867,-0.38843387030307625
12.800999999998345,-1.8374458676717629,-0.4324535480161572
13.000999999998234,-1.7824070223311683,-0.4821452015735782
13.200999999998123,-1.7270252140099989,-0.5450185781436692
13.400999999998012,-1.6772734322645524,-0.6314362352356873
13.600999999997901,-1.6327906436322681,-0.7203002914314862
13.80099999999779,-1.572101658327335,-0.8145477218344471
14.00099999999768,-1.5254495933284322,-0.901416979276158
14.200999999997569,-1.4957902343972092,-0.9920099490311006
14.400999999997458,-1.4977934374067732,-1.080281100209368
14.600999999997347,-1.5318168938084655,-1.1455605431554836
14.800999999997236,-1.5894275593335223,-1.1922743883757638
15.000999999997125,-1.66687131255095,-1.2263391685927743
15.200999999997014,-1.751636391274004,-1.2801155616573432
15.400999999996904,-1.8367663299918768,-1.3236996293416048
15.600999999996793,-1.9201750535004973,-1.370129336556291
15.800999999996682,-2.005429549942702,-1.416602224106207
16.000999999996573,-2.076142448219312,-1.4751632328780804
16.200999999996817,-2.1386633399313406,-1.54221071865833
16.40099999999706,-2.2020521262701203,-1.6081333092611476
16.600999999997306,-2.2699408716693945,-1.6670969646961296
16.80099999999755,-2.3448860784627463,-1.7225660989304197
17.000999999997795,-2.416123759178611,-1.7709969096680445
17.20099999999804,-2.477063762213972,-1.834424362145851
17.400999999998284,-2.549212312878231,-1.8974938055089716
17.60099999999853,-2.626983075134076,-1.9523882755829165
17.800999999998773,-2.7161472350812343,-2.0004156237923305
18.000999999999017,-2.800332722549466,-2.036477157992875
18.20099999999926,-2.879828224352418,-2.0919797473926143
18.400999999999506,-2.9649532526775415,-2.17057420379752
18.60099999999975,-3.0568190582455097,-2.2420611250693234
18.799999999999994,-3.1561745405051354,-2.3219662710094005
19.000000000000238,-3.251943422114893,-2.4058669720892394
19.200000000000482,-3.34828992775063,-2.469853933359313
19.400000000000727,-3.448925495228927,-2.512651256097152
19.60000000000097,-3.5536093539904576,-2.547026700523427
19.800000000001216,-3.6477634111871815,-2.56326561766576
20.00000000000146,-3.7439860648361534,-2.5715122775434147
