Time (s),X (m),Y (m)
0.001,0.0012161128565605834,-0.00026688599193002474
0.20000000000000015,0.0021121186629118128,-9.864522968241201e-05
0.4000000000000003,0.012763730166770381,-0.0023621458516535207
0.6000000000000004,0.014139780367111441,-0.002251472505440213
0.8000000000000006,0.016566461960664997,-0.0022081150512296157
1.0000000000000007,0.019052233210556994,-0.0023555731651576685
1.2009999999999785,0.02155052914217874,-0.003096792490873549
1.4009999999999565,0.023538447775529523,-0.0036268874171913037
1.6009999999999345,0.024606212965133854,-0.003897806695430929
1.8009999999999124,0.025686249252037472,-0.004192539608199475
2.0009999999998906,0.02672534923451937,-0.004475115640613644
2.2009999999998686,0.027913834545072437,-0.004809506392575763
2.4009999999998466,0.0289542255603397,-0.0050847568483086605
2.6009999999998246,0.03017391180906783,-0.0054023784148814384
2.8009999999998025,0.03124563316153054,-0.005689119012284943
3.0009999999997805,0.03252975827687489,-0.006021538920060069
3.2009999999997585,0.033785521260316156,-0.00634812215791879
3.4009999999997365,0.0351254186974775,-0.0066601294967816495
3.6009999999997144,0.036638037845825776,-0.007018678525172851
3.8009999999996924,0.03807436739190776,-0.007298324351705059
4.000999999999671,0.039423841043455414,-0.007624120058092753
4.200999999999738,0.041000792377215996,-0.007944981365915938
4.400999999999804,0.04269726939925602,-0.008341405417086585
4.600999999999871,0.044401687491790305,-0.008619418094189445
4.800999999999938,0.04624023622898651,-0.008994186775929057
5.000000000000004,0.048198911893137915,-0.009327564087256731
5.200000000000071,0.05018145521928562,-0.009631360891523182
5.400000000000138,0.052165317707112975,-0.009871101182244308
5.600000000000205,0.05449605662454887,-0.010249025070631055
5.800000000000272,0.05700424971015067,-0.010658971133077576
6.000000000000338,0.059294353930061085,-0.01096627848365713
6.200000000000405,0.06208897563341963,-0.011400513232801798
6.400000000000472,0.06458766895209866,-0.011667566350620025
6.600000000000539,0.06732496720754574,-0.011973906428733045
6.800000000000606,0.07010843532608364,-0.01230770373592182
7.000000000000672,0.07309034424398268,-0.012665053386326074
7.200000000000739,0.07606355496973836,-0.012970379890343718
7.400000000000806,0.0790314776644638,-0.013252893578256443
7.600000000000873,0.08210885345833785,-0.013533119547101471
7.8000000000009395,0.08523216540593727,-0.01376758053486655
8.000000000001005,0.08839112276555477,-0.013951221973518441
8.200000000000895,0.09169227697508871,-0.014151066426952403
8.400000000000784,0.09495046375291753,-0.014302793266810863
8.600000000000673,0.09828666283028942,-0.014441755720208357
8.800000000000562,0.10164617244110914,-0.014538318469218468
9.000000000000451,0.1049889527993032,-0.01460551228811332
9.20000000000034,0.10827963484561824,-0.014610780140682405
9.40000000000023,0.11151407995573863,-0.014584377874286453
9.600000000000119,0.11486090121331721,-0.014554040725673872
9.800000000000008,0.11819870388535676,-0.01443999917231969
10.000999999999896,0.12143897264368261,-0.014288485840754137
10.200999999999786,0.12468466445132427,-0.01405168296161125
10.400999999999675,0.1279036768171694,-0.013828834380113756
10.600999999999564,0.13103649119579835,-0.01355074142774607
10.800999999999453,0.13428378452361384,-0.013164718065775637
11.000999999999342,0.13748441617459836,-0.012774329466029874
11.200999999999231,0.14085337021531824,-0.01232185685310532
11.40099999999912,0.14419929740612158,-0.011775465578510334
11.60099999999901,0.14758894432391834,-0.011150599915676688
11.800999999998899,0.15087643528455658,-0.010536192131534717
12.000999999998788,0.1544117503201419,-0.009796883343964323
12.200999999998677,0.1579249289568344,-0.009069576010182198
12.400999999998566,0.16146125493427074,-0.00817881284477661
12.600999999998455,0.16530979856942365,-0.007137577164024098
12.800999999998345,0.16931625261228697,-0.005756415881048197
13.000999999998234,0.17337495258272176,-0.0034067685097283022
13.200999999998123,0.1791727155128156,0.002596719073917263
13.400999999998012,0.18626700306975622,0.010540521321471602
13.600999999997901,0.19381214282910106,0.018799265368881223
13.80099999999779,0.20118678325093942,0.027190496563765345
14.00099999999768,0.20801626897718012,0.035452125681940824
14.200999999997569,0.21492284718161764,0.04412404764490718
14.400999999997458,0.22157981645523708,0.0532127789539915
14.600999999997347,0.2276085120005249,0.06228879567481085
14.800999999997236,0.2334647271480866,0.07175475644892365
15.000999999997125,0.23912860021465193,0.08144516759530439
15.200999999997014,0.24429127874679302,0.09137485804673168
15.400999999996904,0.24879203214188078,0.1013534480220051
15.600999999996793,0.25285174302624114,0.11127323632102319
15.800999999996682,0.2566408626602417,0.12143535394466155
16.000999999996573,0.260330326319027,0.13165917475970124
16.200999999996817,0.2631639062532753,0.14138328707202721
16.40099999999706,0.26601297012338043,0.15171470267360992
16.600999999997306,0.2680506431058419,0.1611670036618923
16.80099999999755,0.27034290192152133,0.1710909146997362
17.000999999997795,0.27183746189081287,0.18040047933679607
17.20099999999804,0.27333552268058103,0.18977324790321262
17.400999999998284,0.274386142309561,0.19913923492452124
17.60099999999853,0.2748375309239794,0.2077095209206988
17.800999999998773,0.27549574058351284,0.21713397335899987
18.000999999999017,0.27542773969003276,0.22556177724938314
18.20099999999926,0.27522114637745515,0.2336153105905446
18.400999999999506,0.2747419066208808,0.241600168714984
18.60099999999975,0.2738765933796047,0.24915233676145773
18.799999999999994,0.27251880420222435,0.25589177023300724
19.000000000000238,0.27083053200284524,0.2624035008266269
19.200000000000482,0.26887358549006624,0.26852390553472105
19.400000000000727,0.2667990337474915,0.2744571023593392
19.60000000000097,0.2650822666387714,0.28134934127422584
19.800000000001216,0.2650708744799211,0.287721786420941
20.00000000000146,0.266121184050551,0.2932085058606487
