Time (s),X (m),Y (m)
0.001,-0.0007489004572251305,0.00035268032603768894
0.20000000000000015,0.0078578867315908,-0.003748355906814545
0.4000000000000003,0.008399567454043532,-0.0014722582296150788
0.6000000000000004,0.00390848133116825,0.002786695423366107
0.8000000000000006,-0.0008624364158856528,0.008587007119434314
1.0000000000000007,0.0054002873149131755,0.0053814677463629255
1.2009999999999785,0.016061484809081223,-0.0044780975673109225
1.4009999999999565,0.027430142384725402,-0.01617835032501526
1.6009999999999345,0.04875165338283986,-0.013819374314939775
1.8009999999999124,0.07504097749773876,-0.019615790601307644
2.0009999999998906,0.10135773891219108,-0.027077308534895036
2.2009999999998686,0.12585740906629728,-0.03285117403900766
2.4009999999998466,0.158468244044386,-0.04528136680959793
2.6009999999998246,0.19349974641630296,-0.06430505525511988
2.8009999999998025,0.22674436929697822,-0.0808642248701755
3.0009999999997805,0.2481861673757842,-0.09603896306458537
3.2009999999997585,0.26032454537458855,-0.09622814880712642
3.4009999999997365,0.2713210017637738,-0.09176349126110471
3.6009999999997144,0.2855432733889333,-0.10066745093056513
3.8009999999996924,0.311851335059063,-0.1119657985526176
4.000999999999671,0.3327002131580531,-0.11907807455535933
4.200999999999738,0.35797324293754823,-0.1233390359215624
4.400999999999804,0.39125600766924606,-0.1313791694620879
4.600999999999871,0.4270035847115438,-0.14631638750952206
4.800999999999938,0.46458989465692213,-0.156740654679147
5.000000000000004,0.49604463423641865,-0.16387007124291925
5.200000000000071,0.5162771201567905,-0.16655971462769115
5.400000000000138,0.5386277809728625,-0.1753039184107199
5.600000000000205,0.571255817384723,-0.19067536681689157
5.800000000000272,0.6030933443753828,-0.20053440328991556
6.000000000000338,0.6395366362945464,-0.22001471958612226
6.200000000000405,0.6682951897769205,-0.22762926831203112
6.400000000000472,0.6961448601465502,-0.23593330956488753
6.600000000000539,0.7191994844046729,-0.2546766869125374
6.800000000000606,0.7434214324310455,-0.2859281508303553
7.000000000000672,0.7657580539993397,-0.30394117620894534
7.200000000000739,0.7813656082408905,-0.3300534934242264
7.400000000000806,0.7860356757076034,-0.36722953254474416
7.600000000000873,0.7862571269685404,-0.3997864075640524
7.8000000000009395,0.7784268778546877,-0.42659702228851426
8.000000000001005,0.764961507964588,-0.4575287209474682
8.200000000000895,0.7485335708339111,-0.49824170702931975
8.400000000000784,0.7383687531563736,-0.53073736414632
8.600000000000673,0.7323122364098135,-0.5592532169282672
8.800000000000562,0.7236897307588724,-0.5874463344789328
9.000000000000451,0.7104170104576585,-0.6171870113713778
9.20000000000034,0.6942041359487455,-0.6518455630267976
9.40000000000023,0.6744549236134456,-0.686590060174779
9.600000000000119,0.6587170071699815,-0.7200875320273549
9.800000000000008,0.6499668761208562,-0.7496724048093878
10.000999999999896,0.6317130312541975,-0.7828564619798973
10.200999999999786,0.6038753516696391,-0.8118277341074994
10.400999999999675,0.5704575088630586,-0.8279931469797907
10.600999999999564,0.5344030253209825,-0.8277528361613083
10.800999999999453,0.4926028132432491,-0.8162958116759488
11.000999999999342,0.44763078029881365,-0.7924547976636088
11.200999999999231,0.41348112886482974,-0.7622347181094036
11.40099999999912,0.3931069681302708,-0.7291201796498328
11.60099999999901,0.37575677253437,-0.6907250118638358
11.800999999998899,0.3750407980056416,-0.6464512317832777
12.000999999998788,0.38322585140187493,-0.6025460783015154
12.200999999998677,0.40480113194544076,-0.5576670245694169
12.400999999998566,0.4321133948056827,-0.5138522318421427
12.600999999998455,0.4578533718611116,-0.4776860651945514
12.800999999998345,0.48081671647616925,-0.4420698323039477
13.000999999998234,0.5026985489439519,-0.4027393966564781
13.200999999998123,0.5293659641324866,-0.3577847003626145
13.400999999998012,0.5613747521563115,-0.3143719299838332
13.600999999997901,0.5924218648123757,-0.282988397093585
13.80099999999779,0.6230708819055313,-0.27086530485451327
14.00099999999768,0.653560489384963,-0.2702914374976488
14.200999999997569,0.6891277226616244,-0.27992977322956863
14.400999999997458,0.7280614892517049,-0.2863325349342043
14.600999999997347,0.7611354566857055,-0.29148780553979275
14.800999999997236,0.7867406295835156,-0.30080394113955133
15.000999999997125,0.8208547573611374,-0.31615694526958066
15.200999999997014,0.8608358229232538,-0.32938786845726165
15.400999999996904,0.9115692020670187,-0.34630540469330773
15.600999999996793,0.954696519981471,-0.35806495253841225
15.800999999996682,0.9855407335061086,-0.3665347833184602
16.000999999996573,1.0137716225996476,-0.37503495118681923
16.200999999996817,1.0602114025357845,-0.3844056103241371
16.40099999999706,1.1026678722661,-0.39441015829942516
16.600999999997306,1.1338929876937511,-0.40326736552244713
16.80099999999755,1.1710299482780318,-0.41803789801966346
17.000999999997795,1.2095551967607057,-0.43634731618889744
17.20099999999804,1.2465193384056807,-0.44173726536276586
17.400999999998284,1.278235420728564,-0.4513895107990886
17.60099999999853,1.3195651601479812,-0.46521788733283886
17.800999999998773,1.362856775553308,-0.4812506836674617
18.000999999999017,1.4057101564054726,-0.5114035455846241
18.20099999999926,1.449546045242847,-0.5445507467536885
18.400999999999506,1.4945672356136548,-0.5703957055239415
18.60099999999975,1.5390843719982124,-0.590292040142952
18.799999999999994,1.5808220525943932,-0.6160619341530924
19.000000000000238,1.617565879308787,-0.643266020000448
19.200000000000482,1.6441121102698706,-0.6868911923869006
19.400000000000727,1.662181971387921,-0.7344542807417217
19.60000000000097,1.6759471008567899,-0.771849919392925
19.800000000001216,1.6859993354408302,-0.8137645816923327
20.00000000000146,1.679983817838626,-0.8591408911500361
