Time (s),X (m),Y (m)
0.001,0.0008829029745972832,-0.0007899207378008392
0.20000000000000015,-0.0006195189437218242,0.0033298744486531286
0.4000000000000003,-0.00016433975273918218,0.004812360508822586
0.6000000000000004,0.0013404268154228163,0.008111025631903794
0.8000000000000006,0.003259480912078732,0.008415373822401396
1.0000000000000007,0.009028904594544591,0.007636587561320501
1.2009999999999785,0.008332750312017809,0.008341443134713378
1.4009999999999565,0.014041866939207356,0.006881537225742121
1.6009999999999345,0.020296576426084737,0.0047152371634588365
1.8009999999999124,0.024453144499819564,0.003925814572248787
2.0009999999998906,0.029283622476805552,0.0017223295576842745
2.2009999999998686,0.03514891740725981,-0.00034839767733575017
2.4009999999998466,0.040954487565160125,-0.0015191004709187177
2.6009999999998246,0.04640030780453565,-0.0022962315554138513
2.8009999999998025,0.05190841106399058,-0.003874686972432761
3.0009999999997805,0.05679491123249371,-0.005183547731018799
3.2009999999997585,0.06247508026556825,-0.006126434022781481
3.4009999999997365,0.06868399464712693,-0.007043921883293464
3.6009999999997144,0.07408385039766277,-0.007783428375893255
3.8009999999996924,0.07988467471317238,-0.009169729333634118
4.000999999999671,0.08510187336492626,-0.010744534783185534
4.200999999999738,0.09005066596749615,-0.010544670550122355
4.400999999999804,0.09424933099995923,-0.010007896036746565
4.600999999999871,0.09952438734376501,-0.010437234124329543
4.800999999999938,0.10557200177055379,-0.011308404658473629
5.000000000000004,0.11253824113003288,-0.012166952745382393
5.200000000000071,0.11922591605251619,-0.012412030348373682
5.400000000000138,0.12559609397112223,-0.013056211194770542
5.600000000000205,0.13106523607695358,-0.01262612716223144
5.800000000000272,0.13673848564184576,-0.012905344011026798
6.000000000000338,0.14049092662051185,-0.011452401074361742
6.200000000000405,0.14655955091454317,-0.012345827080479486
6.400000000000472,0.1506637417511091,-0.012307742929887873
6.600000000000539,0.15457473529411098,-0.010331189596784278
6.800000000000606,0.15884881740017687,-0.009345012304187956
7.000000000000672,0.16429913992460232,-0.008702318747662327
7.200000000000739,0.16813234142603814,-0.006712527664985137
7.400000000000806,0.16966719613713127,-0.004253450518012478
7.600000000000873,0.17498920193423725,-0.0026955994236140804
7.8000000000009395,0.17911432495890042,-0.0005632273550628194
8.000000000001005,0.18296416008008964,0.001747723336879333
8.200000000000895,0.1877463894539892,0.0044917283492669794
8.400000000000784,0.1916197681662833,0.008289928739449321
8.600000000000673,0.1959040702551511,0.012440018334598832
8.800000000000562,0.19859255735599518,0.01523026727230134
9.000000000000451,0.20246158631690833,0.018624492068405375
9.20000000000034,0.20423086754509098,0.022791969985658213
9.40000000000023,0.20871846241752134,0.026129783539940287
9.600000000000119,0.21051866191603044,0.0311626292490527
9.800000000000008,0.21166924319643315,0.03643183284468428
10.000999999999896,0.21417003305933446,0.0404816249069018
10.200999999999786,0.21710941628613312,0.04479734074684601
10.400999999999675,0.21917898639019867,0.04961097836688933
10.600999999999564,0.2206394754291524,0.0546945646933525
10.800999999999453,0.22296055787497426,0.058335761617179675
11.000999999999342,0.22402931763225167,0.06424261057107745
11.200999999999231,0.2250191832721783,0.06897641298982364
11.40099999999912,0.22690943636419358,0.07451912012178988
11.60099999999901,0.22878857341465378,0.08008403241381962
11.800999999998899,0.22967503204068765,0.08643687930265033
12.000999999998788,0.2293166775011398,0.09193408464665985
12.200999999998677,0.23108020176777996,0.09717578638413076
12.400999999998566,0.23014790976223512,0.10222564575613273
12.600999999998455,0.2309792801276917,0.10795951906167611
12.800999999998345,0.23150335394866955,0.11423812107584318
13.000999999998234,0.2312659019127178,0.12034142183999737
13.200999999998123,0.23028479092263315,0.1252114621818551
13.400999999998012,0.23069963325596912,0.13074618154384607
13.600999999997901,0.23139713817153124,0.13636551592373958
13.80099999999779,0.23076318956410716,0.14188924273500306
14.00099999999768,0.23051946567604767,0.1454180973917238
14.200999999997569,0.2296557864338808,0.15029603342037748
14.400999999997458,0.22994044833514465,0.15612731140063768
14.600999999997347,0.22889298894427287,0.16047317511744738
14.800999999997236,0.22743856918270408,0.16512877604838347
15.000999999997125,0.22591453264515543,0.169267397999265
15.200999999997014,0.224464817874156,0.1732593112148172
15.400999999996904,0.22203550693011828,0.17698866968379273
15.600999999996793,0.22013177686653196,0.17999438316734828
15.800999999996682,0.21747529729959542,0.18334523911502307
16.000999999996573,0.2146366818764429,0.18721407216699618
16.200999999996817,0.21206235680618707,0.1906494046459839
16.40099999999706,0.20883388315338086,0.19277609120371478
16.600999999997306,0.20538818436254375,0.1957049406592005
16.80099999999755,0.2016974250929262,0.19940640899506873
17.000999999997795,0.1984855213650502,0.20238055896300697
17.20099999999804,0.19466268107469525,0.20452120526379758
17.400999999998284,0.19052015665823102,0.20791678822548718
17.60099999999853,0.18558554037631134,0.20928219713111926
17.800999999998773,0.18053899169705592,0.21221912865152562
18.000999999999017,0.17593697879988965,0.21417290159224905
18.20099999999926,0.1707257777668768,0.2153239992589224
18.400999999999506,0.16462191354260203,0.21748523918151855
18.60099999999975,0.15849730835855003,0.21884539047858598
18.799999999999994,0.15253038068158892,0.22142505425056325
19.000000000000238,0.1465544144695689,0.22233095762423427
19.200000000000482,0.1407038091529392,0.22438713603180668
19.400000000000727,0.13516144332735475,0.22359579317078332
19.60000000000097,0.12883875961591965,0.22441741313065333
19.800000000001216,0.12349890210582692,0.2247910510209498
20.00000000000146,0.11769558161652954,0.22556564430187817
