Time (s),X (m),Y (m)
0.001,-0.0004427414248986554,0.0007899207378008392
0.20000000000000015,0.0030577998425091934,-0.0006673558361603081
0.4000000000000003,0.01794592792558352,-0.00838814542874441
0.6000000000000004,0.04886016510165082,0.002412777761955426
0.8000000000000006,0.0920704422980234,0.023868023079228782
1.0000000000000007,0.12653094677962773,0.0517331216911887
1.2009999999999785,0.16582091116990547,0.08258332270334316
1.4009999999999565,0.21054478368289772,0.0968933431704291
1.6009999999999345,0.2597280319161486,0.0860417038992491
1.8009999999999124,0.29906485409676753,0.061534370938373883
2.0009999999998906,0.3260230591259592,0.022744518692967834
2.2009999999998686,0.3277284017027576,-0.024490038002063296
2.4009999999998466,0.2969068046426819,-0.07256194112782659
2.6009999999998246,0.24718548296387077,-0.11154651992358583
2.8009999999998025,0.20162514057077788,-0.1573678279791371
3.0009999999997805,0.1584184029964434,-0.1999161859141324
3.2009999999997585,0.11248534045179936,-0.2105146283140072
3.4009999999997365,0.07172980218243695,-0.19723479309639058
3.6009999999997144,0.035196669490363125,-0.16943648617582993
3.8009999999996924,0.002528747475694583,-0.12589599198588183
4.000999999999671,-0.03127933240339325,-0.08390926624570216
4.200999999999738,-0.06358333911367721,-0.03591633269115324
4.400999999999804,-0.09425914945185532,-0.0003597858483877326
4.600999999999871,-0.11285128638040558,0.044227200426397724
4.800999999999938,-0.11696496622929323,0.09823019528384462
5.000000000000004,-0.1151982736691285,0.15640845958948363
5.200000000000071,-0.11120976049625594,0.21174197725842592
5.400000000000138,-0.0847730568597426,0.25497819610598343
5.600000000000205,-0.03771378482164476,0.28446709534634473
5.800000000000272,0.013107028385851668,0.30617586599855123
6.000000000000338,0.07432678827977336,0.2985830791897699
6.200000000000405,0.1379981642822989,0.2553787497686472
6.400000000000472,0.19618310767135722,0.2167453136856072
6.600000000000539,0.23626237574326933,0.1667101547785797
6.800000000000606,0.25146684910837924,0.10989372861300836
7.000000000000672,0.24272437376665537,0.056014071592468795
7.200000000000739,0.2179517531775853,0.013738714500763033
7.400000000000806,0.18660466473991694,-0.02057117163120271
7.600000000000873,0.1460161143416347,-0.027527699905138602
7.8000000000009395,0.10692317828733014,-0.016508172085690907
8.000000000001005,0.07404218445930334,0.016219950938144115
8.200000000000895,0.04375615074461039,0.05711295710224667
8.400000000000784,0.038656925257458424,0.10459730116056495
8.600000000000673,0.05155490904510245,0.14842421051412383
8.800000000000562,0.08803820427967737,0.1702432975719758
9.000000000000451,0.13018179971829716,0.1724957571425721
9.20000000000034,0.17946753251596564,0.16151693653575216
9.40000000000023,0.2125930566252275,0.13258008484421824
9.600000000000119,0.21056390142677125,0.0876459041427402
9.800000000000008,0.19272740149766582,0.03860583993744056
10.000999999999896,0.15631063178390892,-0.0025816459024183324
10.200999999999786,0.09993703300346492,-0.0319835724606666
10.400999999999675,0.025894730863603225,-0.05110304963148356
10.600999999999564,-0.05802721612180825,-0.05536168365392638
10.800999999999453,-0.14312838981671372,-0.04669352282470647
11.000999999999342,-0.22146726760247806,-0.03451948055977935
11.200999999999231,-0.2934488051560123,-0.028158622005282106
11.40099999999912,-0.3627562950041658,-0.012613509374068535
11.60099999999901,-0.4363553140541945,0.016257561884188497
11.800999999998899,-0.5030311816845933,0.05992260677362157
12.000999999998788,-0.5484184708797842,0.11731125472765314
12.200999999998677,-0.5802285813965973,0.18296943808174393
12.400999999998566,-0.5854168492638755,0.2502299980179497
12.600999999998455,-0.587173852741412,0.3127890097334433
12.800999999998345,-0.5676833891175748,0.3617997720152165
13.000999999998234,-0.5372322629263022,0.3803471225206862
13.200999999998123,-0.5076408456129541,0.36567801641297376
13.400999999998012,-0.4852242299452803,0.3313756375069372
13.600999999997901,-0.4701321383006707,0.2863219842735432
13.80099999999779,-0.45911729811345803,0.23154727629141042
14.00099999999768,-0.4366944902894055,0.18070067101808518
14.200999999997569,-0.41832769115027624,0.12278907283701705
14.400999999997458,-0.4325881351575248,0.06258382861555002
14.600999999997347,-0.4609383636224318,0.010151329108673402
14.800999999997236,-0.5004437822200922,-0.023840254580067867
15.000999999997125,-0.5466994035930025,-0.04382371903486994
15.200999999997014,-0.5919578408809955,-0.03612113541824463
15.400999999996904,-0.6203513875466933,0.003449436116494462
15.600999999996793,-0.6346257042515231,0.05295288326280082
15.800999999996682,-0.6232189260554575,0.10903584243828905
16.000999999996573,-0.5838954208178461,0.1560330969852393
16.200999999996817,-0.5329188038710002,0.193365989527519
16.40099999999706,-0.4760005495421989,0.205692466221142
16.600999999997306,-0.42412757940857215,0.1897016101540951
16.80099999999755,-0.3969922089604848,0.15056197956520753
17.000999999997795,-0.4042321094784175,0.0996756411891592
17.20099999999804,-0.43260158952835337,0.0506452598683301
17.400999999998284,-0.47895771900266504,0.01590124056463981
17.60099999999853,-0.5390680250974131,0.012703334857330337
17.800999999998773,-0.5991708516065155,0.02859031642096652
18.000999999999017,-0.6503573129940845,0.0649856245155704
18.20099999999926,-0.6978012666021417,0.08752205249243972
18.400999999999506,-0.7340387700050058,0.13038940475259791
18.60099999999975,-0.765217083267664,0.180248376471597
18.799999999999994,-0.7886888328233859,0.23341589794695375
19.000000000000238,-0.7849614281659747,0.28983967121098425
19.200000000000482,-0.7501076292556514,0.3392321601669906
19.400000000000727,-0.6867864179962343,0.36488417285575847
19.60000000000097,-0.6119226359433405,0.3726956743265123
19.800000000001216,-0.5382326966939084,0.36638961994360403
20.00000000000146,-0.4750598953672905,0.34547033326496823
