Time (s),X (m),Y (m)
0.001,0.0012161128565605834,-0.00026688599193002474
0.20000000000000015,-0.0006379940820187955,0.0006463445937704045
0.4000000000000003,0.005415240617758194,0.00042933527184012087
0.6000000000000004,0.00885181239708209,-0.00215886554072089
0.8000000000000006,0.01485192211589409,-0.007761536490285931
1.0000000000000007,0.032320795840462956,-0.016484247913720527
1.2009999999999785,0.04783373100418004,-0.020590920054624817
1.4009999999999565,0.05271061884059321,-0.022896010868761297
1.6009999999999345,0.05675172824334365,-0.023363757231725905
1.8009999999999124,0.07459775869600198,-0.03225977300775097
2.0009999999998906,0.09028558434399397,-0.038946261094034464
2.2009999999998686,0.1146956329609955,-0.04704980484984109
2.4009999999998466,0.13222630270272806,-0.05354843298664259
2.6009999999998246,0.15127950800897302,-0.06309702144028936
2.8009999999998025,0.1697375605546767,-0.07179346286754147
3.0009999999997805,0.1882442863025502,-0.08648413739790184
3.2009999999997585,0.20579873682864686,-0.1001958086081007
3.4009999999997365,0.22128187596007584,-0.10368867427779656
3.6009999999997144,0.23846186633967023,-0.12115289962822014
3.8009999999996924,0.25082092042796605,-0.13374291198897836
4.000999999999671,0.2585968440337399,-0.14764348602348784
4.200999999999738,0.27032784827270007,-0.1620206265123858
4.400999999999804,0.27707098165903543,-0.1873458644528202
4.600999999999871,0.28294420772587364,-0.20839568193375838
4.800999999999938,0.2879320423476814,-0.2299870855792063
5.000000000000004,0.28422389599263537,-0.2496136430933788
5.200000000000071,0.2798650828440178,-0.26795131239551734
5.400000000000138,0.2745336504440414,-0.28560183862678884
5.600000000000205,0.26871365462368596,-0.3064206897851825
5.800000000000272,0.26424358965108513,-0.32300664353347136
6.000000000000338,0.25088566454444416,-0.3468811216600908
6.200000000000405,0.24005931382958637,-0.37290904968647687
6.400000000000472,0.2276168070216128,-0.3928636980925748
6.600000000000539,0.21604751638716888,-0.41226065256855443
6.800000000000606,0.20233287047321347,-0.43721294612196493
7.000000000000672,0.1841039045765341,-0.465568527361495
7.200000000000739,0.16511756390333931,-0.49710078602045366
7.400000000000806,0.1526999993342581,-0.5305321747865155
7.600000000000873,0.13993148174758815,-0.5613141568015398
7.8000000000009395,0.11668469074724523,-0.5923425753195499
8.000000000001005,0.09390747196927854,-0.6203498776395625
8.200000000000895,0.07890360663940504,-0.6442935049553323
8.400000000000784,0.061661746634429096,-0.6665352294374601
8.600000000000673,0.05073541642338501,-0.6878779809567777
8.800000000000562,0.04382132753474557,-0.7053116688288011
9.000000000000451,0.024351849952196806,-0.7201742085661893
9.20000000000034,-0.010550951860124853,-0.7288427427704888
9.40000000000023,-0.03731941490323309,-0.7353386251195897
9.600000000000119,-0.056373941385473636,-0.7443598817376526
9.800000000000008,-0.07061551295009473,-0.7495332938220074
10.000999999999896,-0.09165961764916977,-0.7509978403057758
10.200999999999786,-0.12571361453739766,-0.7434642623892211
10.400999999999675,-0.14767372869049056,-0.7363080421250493
10.600999999999564,-0.1650103439980902,-0.731118615844166
10.800999999999453,-0.19357591390521073,-0.718439760886859
11.000999999999342,-0.21738942905189873,-0.7136828248760709
11.200999999999231,-0.2451633861818638,-0.7035054711563224
11.40099999999912,-0.2710921252060298,-0.694017301595561
11.60099999999901,-0.2948045925286236,-0.6819305293591565
11.800999999998899,-0.32634944965708895,-0.6683951927440805
12.000999999998788,-0.3588010942679091,-0.6435791906670718
12.200999999998677,-0.3900216477083197,-0.6220321976953332
12.400999999998566,-0.41541282789383654,-0.6095577874581519
12.600999999998455,-0.44137220450067727,-0.5914113357732839
12.800999999998345,-0.4714589402400309,-0.5723884427227344
13.000999999998234,-0.4989014403200844,-0.5509923972204621
13.200999999998123,-0.514477342680245,-0.5288877532669559
13.400999999998012,-0.5267162200217377,-0.5008456425093368
13.600999999997901,-0.5417026464343263,-0.483171934098288
13.80099999999779,-0.5535197160728217,-0.45848973439323715
14.00099999999768,-0.5543798266584163,-0.42542772674614115
14.200999999997569,-0.5533326692465311,-0.39240513559254353
14.400999999997458,-0.5434044474457006,-0.3563956953043234
14.600999999997347,-0.5298852258679514,-0.32210940064862487
14.800999999997236,-0.5168060897328315,-0.281520795139623
15.000999999997125,-0.5039526621472459,-0.25013789971296624
15.200999999997014,-0.4966929277406032,-0.2210396684785198
15.400999999996904,-0.48638634814035175,-0.19049846002376286
15.600999999996793,-0.48080644215883583,-0.16180996862088037
15.800999999996682,-0.4733307146131674,-0.1303469725285419
16.000999999996573,-0.46322674590082136,-0.10826236422756158
16.200999999996817,-0.4524057191922525,-0.07701839018348162
16.40099999999706,-0.43616689623714006,-0.03944009099915145
16.600999999997306,-0.41708067444626584,-0.005484200694165824
16.80099999999755,-0.40035284125096676,0.02901227944473858
17.000999999997795,-0.3789601151134644,0.0680222179342982
17.20099999999804,-0.360008522380918,0.10496350613683604
17.400999999998284,-0.33708857085289756,0.13511780614659719
17.60099999999853,-0.3156995191581603,0.15787628967206352
17.800999999998773,-0.28939144478919154,0.17748140572238977
18.000999999999017,-0.2765909566510685,0.19190731458501478
18.20099999999926,-0.2634203048285137,0.20055913806537473
18.400999999999506,-0.24275290321711593,0.21708784605319417
18.60099999999975,-0.21659457570325227,0.23505238494732023
18.799999999999994,-0.1885885801714842,0.2513913758931467
19.000000000000238,-0.17117869506677177,0.2600036204811476
19.200000000000482,-0.14377400883589453,0.2652799545163595
19.400000000000727,-0.11918320039937307,0.26149359788643917
19.60000000000097,-0.10169469949073054,0.2610371651763743
19.800000000001216,-0.07444411864333116,0.259748921093834
20.00000000000146,-0.046373532050901736,0.25200249665597185
