Time (s),X (m),Y (m)
0.001,-0.0008071636076123137,8.987223813608099e-05
0.20000000000000015,0.002647948423264088,-0.000627558736998607
0.4000000000000003,0.01032160900768128,-0.0017548854790134644
0.6000000000000004,0.015943399808573688,-0.006652387885541392
0.8000000000000006,0.015247451590358532,-0.008291813901343377
1.0000000000000007,0.02452752098816745,-0.008428886907039948
1.2009999999999785,0.034474324295233005,-0.009409480570583162
1.4009999999999565,0.048686940194824835,-0.007174897602901059
1.6009999999999345,0.0649613790156844,-0.009228127892912937
1.8009999999999124,0.07877408483263958,-0.01376268757687882
2.0009999999998906,0.0961903439477702,-0.017754679011530418
2.2009999999998686,0.11308176033318498,-0.021049078115869178
2.4009999999998466,0.13561490028138315,-0.023272558825721556
2.6009999999998246,0.15171052695888948,-0.029327868470994282
2.8009999999998025,0.15606541406860033,-0.03590849180282144
3.0009999999997805,0.17071112368308466,-0.039569379476195626
3.2009999999997585,0.1890406756752886,-0.051281174132433306
3.4009999999997365,0.20123805639011738,-0.0583620012641837
3.6009999999997144,0.21639992777631453,-0.06406197996942464
3.8009999999996924,0.23327834096501446,-0.07587586370753746
4.000999999999671,0.245316110304138,-0.0842374114909361
4.200999999999738,0.2614570295631833,-0.0880406239453001
4.400999999999804,0.2724793263888292,-0.09642692624296051
4.600999999999871,0.2824783072020052,-0.10333913453538618
4.800999999999938,0.2898654614801298,-0.1075501257978994
5.000000000000004,0.30279505010094676,-0.11550505232467455
5.200000000000071,0.3193055243389702,-0.12533414543848262
5.400000000000138,0.33187711488808674,-0.13560445626322085
5.600000000000205,0.344527446043251,-0.14396538634139566
5.800000000000272,0.3591181509609759,-0.14633479919993864
6.000000000000338,0.3797168001828812,-0.15235851994367836
6.200000000000405,0.39325444562351475,-0.15779459959590866
6.400000000000472,0.41826326939461184,-0.16899306218082047
6.600000000000539,0.43951029875994896,-0.1789906648510755
6.800000000000606,0.4616673560943993,-0.1900863242366098
7.000000000000672,0.47684160390562425,-0.1980521818498343
7.200000000000739,0.5000351261749371,-0.20831614559273687
7.400000000000806,0.5219618129028815,-0.21563974572170666
7.600000000000873,0.5401046971568569,-0.2282561505804009
7.8000000000009395,0.5608346330954335,-0.23977285081126626
8.000000000001005,0.5802773354110481,-0.2491809339283841
8.200000000000895,0.5976516042699014,-0.26286591613706745
8.400000000000784,0.6231707111090152,-0.2822334037597223
8.600000000000673,0.6422023210202293,-0.2960343031822459
8.800000000000562,0.6600063886774084,-0.30661350897711726
9.000000000000451,0.6742677146571598,-0.3196535655281957
9.20000000000034,0.6970142524318135,-0.33445711920328336
9.40000000000023,0.7215025564376042,-0.3468707019875897
9.600000000000119,0.7501996832822964,-0.36471902743468454
9.800000000000008,0.776360395610171,-0.3816834376526466
10.000999999999896,0.8005499663083144,-0.39567591253724504
10.200999999999786,0.8187150910969966,-0.405668449133355
10.400999999999675,0.8417039611345805,-0.42209698991064176
10.600999999999564,0.8627925296518932,-0.4317324383997593
10.800999999999453,0.8789619998883973,-0.4457749434582641
11.000999999999342,0.8907133422012611,-0.4547896808870582
11.200999999999231,0.905621362245928,-0.4632828119979485
11.40099999999912,0.9274773647206489,-0.47566482434426494
11.60099999999901,0.9478673499424375,-0.49127219664144467
11.800999999998899,0.9740586791861696,-0.5061652572577662
12.000999999998788,0.9963730793009143,-0.5182214848357604
12.200999999998677,1.0179789965230466,-0.5302475380603625
12.400999999998566,1.0426334852348054,-0.546917271132864
12.600999999998455,1.0652498489318791,-0.5594688405233498
12.800999999998345,1.0887934560453234,-0.5738170922118655
13.000999999998234,1.1095490180291614,-0.5762232691724872
13.200999999998123,1.1244905520885733,-0.5924612166015606
13.400999999998012,1.1442226452234887,-0.6174707020123172
13.600999999997901,1.1613747370339396,-0.6320656680270504
13.80099999999779,1.174609878410801,-0.65270338611257
14.00099999999768,1.1865921088981484,-0.673344329976393
14.200999999997569,1.199773379218613,-0.6946841448399063
14.400999999997458,1.2105183270686626,-0.7184277878939274
14.600999999997347,1.217231676226041,-0.7469484974075082
14.800999999997236,1.2161614581948446,-0.7707132154415267
15.000999999997125,1.2142149938314766,-0.7948904180076394
15.200999999997014,1.2085565424434257,-0.8212937613689657
15.400999999996904,1.1965683345529,-0.8506399198361808
15.600999999996793,1.183234010558804,-0.881861203858862
15.800999999996682,1.16939106808382,-0.9053819066971711
16.000999999996573,1.1555732673657404,-0.9297849192278373
16.200999999996817,1.141557259032448,-0.9587197541127885
16.40099999999706,1.133711445714785,-0.9828515674602128
16.600999999997306,1.1281927583479627,-0.9971401642102009
16.80099999999755,1.1207887480497651,-1.0098428389109104
17.000999999997795,1.1088701018202254,-1.0342518363046305
17.20099999999804,1.0963614939972577,-1.0566950967295545
17.400999999998284,1.079066805197541,-1.0838539384176953
17.60099999999853,1.0665397588654093,-1.1097487415226814
17.800999999998773,1.059148064784783,-1.1273705525229951
18.000999999999017,1.0503576091827813,-1.1383461900477372
18.20099999999926,1.0399693739073643,-1.1503015173224478
18.400999999999506,1.0293243493602053,-1.1666697804450057
18.60099999999975,1.0162822073155149,-1.1862495029305047
18.799999999999994,1.0073360470701862,-1.210140197705369
19.000000000000238,0.9929060651452296,-1.2318987120377907
19.200000000000482,0.9762584253563562,-1.2528292587489671
19.400000000000727,0.9578491333120381,-1.27547949043236
19.60000000000097,0.9358540932093744,-1.3049913292525483
19.800000000001216,0.9102496698957316,-1.3304901795629667
20.00000000000146,0.886659751830168,-1.3566022357621652
