Time (s),X (m),Y (m)
0.001,-0.0008071636076123137,-8.987223813608066e-05
0.20000000000000015,0.005175401376735381,-7.375772967356031e-05
0.4000000000000003,0.005006447599378527,0.0010852890177024638
0.6000000000000004,0.009523905033806198,0.00480392660109604
0.8000000000000006,0.01000613173013459,0.0051983602493720655
1.0000000000000007,0.0235195784968262,0.009855461936440678
1.2009999999999785,0.03865515084279308,0.01202754868963037
1.4009999999999565,0.05660508831333354,0.01073929676747771
1.6009999999999345,0.06408724425103195,0.011579469973020898
1.8009999999999124,0.06779484042563753,0.005703886664364473
2.0009999999998906,0.06925622610291435,-0.003803436331859496
2.2009999999998686,0.0962156926919175,-0.009623606245650413
2.4009999999998466,0.11309460270709874,-0.011398374894957944
2.6009999999998246,0.13582721586094149,-0.014072600661365656
2.8009999999998025,0.1482909358975679,-0.017307020215725985
3.0009999999997805,0.17015181379814376,-0.015785635408687555
3.2009999999997585,0.19036202789216403,-0.02050881090957691
3.4009999999997365,0.2023307065629934,-0.02635669428230637
3.6009999999997144,0.22741341300417334,-0.033560053257679266
3.8009999999996924,0.25530457865024436,-0.041678010252699405
4.000999999999671,0.27350232491599197,-0.05061371744850596
4.200999999999738,0.2899187811942336,-0.06204022639982696
4.400999999999804,0.3001463464547993,-0.06724943900236692
4.600999999999871,0.3156016572812214,-0.07116860731847108
4.800999999999938,0.330080643328071,-0.0809411669383837
5.000000000000004,0.35099687014681796,-0.09790625561609263
5.200000000000071,0.37234846489199436,-0.11626620094438764
5.400000000000138,0.3971765468960064,-0.13312747077951445
5.600000000000205,0.4238141362116081,-0.142475354450973
5.800000000000272,0.43690082075537434,-0.15077570181031527
6.000000000000338,0.46358101525747425,-0.16107110024462934
6.200000000000405,0.49537304131255117,-0.18236841641199647
6.400000000000472,0.5124978706864919,-0.19962825200895323
6.600000000000539,0.5341949276718948,-0.2204806895780318
6.800000000000606,0.5651024484764933,-0.24515437167594215
7.000000000000672,0.6073393428579745,-0.26723256148086283
7.200000000000739,0.6363965618983725,-0.28332211362312715
7.400000000000806,0.6620292351589806,-0.2956301934223098
7.600000000000873,0.6915971729459862,-0.3130220469058099
7.8000000000009395,0.7241316801498983,-0.33284929625940635
8.000000000001005,0.7506214063051174,-0.34846998016970643
8.200000000000895,0.7745007186509514,-0.3614018654166767
8.400000000000784,0.7916636587397522,-0.37035462633979394
8.600000000000673,0.8169475419147425,-0.3792589710582153
8.800000000000562,0.8451466811588405,-0.39174705512720226
9.000000000000451,0.875777179646676,-0.404172518058815
9.20000000000034,0.9186390042773969,-0.4207005428663328
9.40000000000023,0.9591100616408665,-0.4429982683338926
9.600000000000119,0.9945828427119594,-0.46602958519535914
9.800000000000008,1.0286509969972841,-0.49345803138084016
10.000999999999896,1.0609794464690627,-0.5237200218835304
10.200999999999786,1.0802641487330673,-0.5460297977772279
10.400999999999675,1.0945549981475413,-0.562158318924748
10.600999999999564,1.1040301580176681,-0.581106914985475
10.800999999999453,1.1169384610404893,-0.5998359827781041
11.000999999999342,1.1383938886067468,-0.6319347048844235
11.200999999999231,1.1526349832140192,-0.6552160936753606
11.40099999999912,1.1627564314285161,-0.6713221643964645
11.60099999999901,1.1678405862720036,-0.6907528412420042
11.800999999998899,1.167205259578995,-0.7257728431160296
12.000999999998788,1.1576219117500945,-0.7627205013303688
12.200999999998677,1.1485160102488323,-0.798314903380131
12.400999999998566,1.1394392079338285,-0.824282978831788
12.600999999998455,1.121590874576488,-0.8670979862257918
12.800999999998345,1.0986847616238806,-0.9057455639372995
13.000999999998234,1.0733695111065624,-0.9449965863532603
13.200999999998123,1.045600890559784,-0.9792738515332096
13.400999999998012,1.0117111101235043,-0.9941678739629191
13.600999999997901,0.9773532234580329,-0.9901094771692008
13.80099999999779,0.9454788576693414,-0.9726327914714967
14.00099999999768,0.9115839887441959,-0.9481838373692655
14.200999999997569,0.8848456613302325,-0.9202461102703369
14.400999999997458,0.8643641063767278,-0.8939541530892612
14.600999999997347,0.852958322339097,-0.8745793488610797
14.800999999997236,0.8478879483248447,-0.8466887559612235
15.000999999997125,0.848836088151332,-0.827432117319786
15.200999999997014,0.8503692806022757,-0.7933097025230644
15.400999999996904,0.854621346377502,-0.7671304466206763
15.600999999996793,0.855580345264621,-0.7423586526782405
15.800999999996682,0.8654090640332531,-0.7138535954214432
16.000999999996573,0.8792182278738762,-0.6820925662663971
16.200999999996817,0.8965953603194949,-0.6420161930740219
16.40099999999706,0.9135856770796312,-0.5981585594933508
16.600999999997306,0.9333713276637718,-0.5665983466823424
16.80099999999755,0.9448697715814428,-0.5410060033892095
17.000999999997795,0.9659666273677938,-0.5057440202556158
17.20099999999804,0.985649363195356,-0.4740713622733273
17.400999999998284,1.0001869682349551,-0.4467256187913118
17.60099999999853,1.0130017486946958,-0.41624355309989747
17.800999999998773,1.0283369355448662,-0.37780649653368187
18.000999999999017,1.0437750837812942,-0.34923393794549634
18.20099999999926,1.0733641242521497,-0.3103865384972818
18.400999999999506,1.0977573843084798,-0.27745498382573647
18.60099999999975,1.1204499456018602,-0.24729139733322267
18.799999999999994,1.138090606491068,-0.21600827012477306
19.000000000000238,1.1608106200304005,-0.17770972818110428
19.200000000000482,1.1950517534718428,-0.13284169696444942
19.400000000000727,1.2230305563403927,-0.09568361790470753
19.60000000000097,1.239399076803593,-0.06213762548762785
19.800000000001216,1.2615654907037115,-0.025465934481502566
20.00000000000146,1.2851040258792954,0.00943048240828358
