Time (s),X (m),Y (m)
0.001,0.0011546366250239817,0.000435790549910003
0.20000000000000015,-6.51282413754225e-05,-0.0005133612372414946
0.4000000000000003,0.0017741784326619956,-0.0005884366382168577
0.6000000000000004,0.00451202327186773,-7.725199205894244e-05
0.8000000000000006,0.006645925651971397,0.000127188376313816
1.0000000000000007,0.007892000091355138,-9.06339686592593e-06
1.2009999999999785,0.009762373611849343,0.0005158737679121573
1.4009999999999565,0.011460654942834344,0.0009731122762820614
1.6009999999999345,0.01331465460307081,0.0018428148568185845
1.8009999999999124,0.014767669258527131,0.0023672987458679133
2.0009999999998906,0.01670525945245288,0.0031292411476184236
2.2009999999998686,0.018227624768521668,0.00438219495420603
2.4009999999998466,0.020526635141140545,0.006417507346133862
2.6009999999998246,0.02230920830144612,0.007505305895618327
2.8009999999998025,0.023741413527036504,0.008083823636155046
3.0009999999997805,0.025029868606968632,0.008670454056201466
3.2009999999997585,0.02637215713472999,0.00933358980001537
3.4009999999997365,0.027662334627784006,0.010071734080891346
3.6009999999997144,0.02907395844821262,0.010898601853757229
3.8009999999996924,0.030375822867419532,0.01169265198475382
4.000999999999671,0.03175029718429023,0.012560457804827178
4.200999999999738,0.033083720865005384,0.013448429576767522
4.400999999999804,0.03439421159955149,0.014360897395247022
4.600999999999871,0.03572017095477885,0.015299546895893027
4.800999999999938,0.03701689456604287,0.01624826032550285
5.000000000000004,0.038233956870751235,0.017176023935492384
5.200000000000071,0.03958694705623727,0.018200252830850784
5.400000000000138,0.04081862672285164,0.01918999532006044
5.600000000000205,0.042157825789007515,0.02024077942330221
5.800000000000272,0.043417929468877084,0.021275191348470154
6.000000000000338,0.044758943575790966,0.022379310439381406
6.200000000000405,0.046050642164321844,0.023468001675485177
6.400000000000472,0.04720918755887165,0.024478468309971232
6.600000000000539,0.04840653572797362,0.025545806475205116
6.800000000000606,0.049691273656335466,0.026703815515899922
7.000000000000672,0.05086744950702464,0.027806214951631755
7.200000000000739,0.05212258122154013,0.028984060898138812
7.400000000000806,0.05328225314679126,0.030100279830528577
7.600000000000873,0.0544353970693863,0.03201287842121972
7.8000000000009395,0.05561365792071584,0.03419336757265721
8.000000000001005,0.056214970360938143,0.03619961628213715
8.200000000000895,0.05616021558019181,0.036937745018904816
8.400000000000784,0.0559818610286411,0.0376445163435238
8.600000000000673,0.05631563909885911,0.03924646133740444
8.800000000000562,0.05707904566425119,0.04200444754161741
9.000000000000451,0.058083805766435216,0.045003799704635715
9.20000000000034,0.05856745533395343,0.04747934547154778
9.40000000000023,0.05878691520871989,0.0490947542496572
9.600000000000119,0.05903448658777106,0.05095346185236659
9.800000000000008,0.059468613918920714,0.05335426364524662
10.000999999999896,0.0593365457429014,0.054757890501426765
10.200999999999786,0.05952889294086668,0.05685131194393389
10.400999999999675,0.05927509303609971,0.05824346405864165
10.600999999999564,0.05912482606012313,0.059840758516402894
10.800999999999453,0.05878069544235636,0.060811928612195705
11.000999999999342,0.05844028988746523,0.06224738892722246
11.200999999999231,0.05796066238740395,0.06298789251125403
11.40099999999912,0.05755744370277276,0.06291086652261008
11.60099999999901,0.05743003514817271,0.061373806911314596
11.800999999998899,0.05720150943818528,0.06038333176558302
12.000999999998788,0.057116968883926554,0.058657591754094
12.200999999998677,0.05738114510741807,0.0578594332089494
12.400999999998566,0.05754210216301752,0.056813245043453725
12.600999999998455,0.05770436835987481,0.05567765838704652
12.800999999998345,0.05769875671897668,0.05449328014750551
13.000999999998234,0.05769000345042438,0.053293116968036944
13.200999999998123,0.05782639871808413,0.05174689034817519
13.400999999998012,0.05751097245205171,0.05116148029614455
13.600999999997901,0.05701440770215075,0.05080132491268237
13.80099999999779,0.055768889192415495,0.05150530283066188
14.00099999999768,0.05388344001172479,0.052739747762116554
14.200999999997569,0.05314620171257614,0.052841804690687465
14.400999999997458,0.052074964201209877,0.05297083215325521
14.600999999997347,0.050514584998928816,0.05382757700915324
14.800999999997236,0.048709768154122784,0.054773399635895136
15.000999999997125,0.04727256065618467,0.0553700208606672
15.200999999997014,0.04617966835349617,0.0556585446359757
15.400999999996904,0.04486994439103797,0.05618639493653822
15.600999999996793,0.04300251575554203,0.0568325469437069
15.800999999996682,0.040894134998058856,0.057797886738625646
16.000999999996573,0.03967862913163499,0.05797034414363048
16.200999999996817,0.038174748391243046,0.05848437486149692
16.40099999999706,0.0364205666575074,0.058835082335275214
16.600999999997306,0.034734598987089256,0.05922801533344037
16.80099999999755,0.03247831310245485,0.05977776191472938
17.000999999997795,0.03152630388661718,0.059868701954849474
17.20099999999804,0.029848500110491515,0.06007722149475597
17.400999999998284,0.027604222157176263,0.06058210812036774
17.60099999999853,0.02616046221904598,0.060718954443519976
17.800999999998773,0.025959647482241253,0.06062159788595549
18.000999999999017,0.02675112474802058,0.060751298853611954
18.20099999999926,0.0270165997917342,0.06096533405395068
18.400999999999506,0.028029535216239028,0.06094864981678615
18.60099999999975,0.027361431691786085,0.061819529212225124
18.799999999999994,0.026535021003019136,0.06166243541558569
19.000000000000238,0.023932241688887322,0.06155376809677701
19.200000000000482,0.022143073967937795,0.06122027009305731
19.400000000000727,0.02012806221566809,0.060811754705360176
19.60000000000097,0.017643790887472303,0.06037471586787797
19.800000000001216,0.015659792139153805,0.05990329379884568
20.00000000000146,0.013557841989231413,0.059214275265729116
