Time (s),X (m),Y (m)
0.001,-0.00021570977506068912,0.0009345558501746678
0.20000000000000015,-0.00038898337719683797,0.002868696560871937
0.4000000000000003,0.0011648317443889468,0.004830053566671252
0.6000000000000004,0.004533247658532334,0.002179559237885383
0.8000000000000006,0.008598752338286123,0.0033467378439420922
1.0000000000000007,0.013393407293764361,0.005633871158964709
1.2009999999999785,0.020504453026219092,0.00528012064471234
1.4009999999999565,0.03204712752796075,0.002791429348637904
1.6009999999999345,0.03851309026817371,-0.0011989423131112508
1.8009999999999124,0.0456759076771969,-0.010946857505534046
2.0009999999998906,0.05394676746346289,-0.020242093757117482
2.2009999999998686,0.0610410283909597,-0.025348962496775616
2.4009999999998466,0.07024182263886364,-0.026784193829518826
2.6009999999998246,0.0758434427639459,-0.034976083517079495
2.8009999999998025,0.07967503892514181,-0.025020666231183604
3.0009999999997805,0.0858386491280514,-0.02107781425994346
3.2009999999997585,0.09314066521655079,-0.023939066823661075
3.4009999999997365,0.103589111627685,-0.024944173463483595
3.6009999999997144,0.11536806740348822,-0.02667497939067486
3.8009999999996924,0.12572226639873135,-0.03207989273808943
4.000999999999671,0.1308581131954733,-0.03284120276018399
4.200999999999738,0.1434471594554222,-0.037335272507439114
4.400999999999804,0.15119941126648972,-0.04608324768073973
4.600999999999871,0.1575507897747739,-0.059066580767257196
4.800999999999938,0.16375459789379074,-0.06078132772602564
5.000000000000004,0.17208403134905115,-0.06278430076820761
5.200000000000071,0.18010954791751047,-0.06646757733770245
5.400000000000138,0.1864910059924574,-0.07130144751475656
5.600000000000205,0.1928795523189133,-0.08083189090557194
5.800000000000272,0.20211395710233945,-0.0810860258400236
6.000000000000338,0.21030432077812003,-0.08532065310431428
6.200000000000405,0.21465957881824121,-0.08341953375697378
6.400000000000472,0.22313067733355307,-0.08778446188923542
6.600000000000539,0.23112743539760203,-0.0989725365754009
6.800000000000606,0.23768774454777175,-0.10624884792581893
7.000000000000672,0.24608463676188388,-0.11033330793050736
7.200000000000739,0.2581443344091016,-0.11027367314202978
7.400000000000806,0.2679627551732109,-0.11271486714576817
7.600000000000873,0.27839948473922166,-0.11119764868225235
7.8000000000009395,0.2887021661495892,-0.11350757124568116
8.000000000001005,0.29547637608355737,-0.11546898447692537
8.200000000000895,0.302844513160794,-0.12245954068300575
8.400000000000784,0.31274912415786427,-0.1279802422307848
8.600000000000673,0.32121594139841053,-0.12749534458401227
8.800000000000562,0.32971160867424554,-0.12768626212228948
9.000000000000451,0.33780507701259355,-0.13137360184890393
9.20000000000034,0.34527322940522037,-0.13636513402020578
9.40000000000023,0.35117336229320534,-0.14123439988870426
9.600000000000119,0.358931724633117,-0.14479845860221593
9.800000000000008,0.3621318451742674,-0.1533482571951536
10.000999999999896,0.3681844974649049,-0.15119653664783014
10.200999999999786,0.375163567034414,-0.1542642452052138
10.400999999999675,0.3802050597750897,-0.1679437085912631
10.600999999999564,0.38988235101343993,-0.16773459420185316
10.800999999999453,0.3966698514505039,-0.17518174419621724
11.000999999999342,0.40124377168748093,-0.17550826430762276
11.200999999999231,0.40528725123097614,-0.1862879730522465
11.40099999999912,0.4134657557842046,-0.19205603315581476
11.60099999999901,0.41919899599869465,-0.19576832430445967
11.800999999998899,0.42597937237904054,-0.20124142399956646
12.000999999998788,0.4291556394395189,-0.20738913677812051
12.200999999998677,0.4332554871812071,-0.21823380456670044
12.400999999998566,0.4389165276685634,-0.22029547652443193
12.600999999998455,0.4435139794796933,-0.23029249708145627
12.800999999998345,0.4482682409705693,-0.23205019643058053
13.000999999998234,0.4556946276402514,-0.2301012033286957
13.200999999998123,0.45974054322730207,-0.23581955302418822
13.400999999998012,0.46353163226860966,-0.24457470426378813
13.600999999997901,0.471154186743597,-0.2491241110405703
13.80099999999779,0.47848310893695895,-0.25997466990110724
14.00099999999768,0.4853410231621915,-0.2721369380058259
14.200999999997569,0.49115859538883616,-0.2781716231667873
14.400999999997458,0.49922100816591275,-0.2851208433844882
14.600999999997347,0.5063488885654003,-0.2921403303781906
14.800999999997236,0.5130547476838447,-0.294999474885184
15.000999999997125,0.5219283224689174,-0.29935585802563125
15.200999999997014,0.5312505341884755,-0.3008553654579155
15.400999999996904,0.5384669223851932,-0.3069621817214191
15.600999999996793,0.5472110411196128,-0.3000240037909611
15.800999999996682,0.5559003220101773,-0.2999299455421102
16.000999999996573,0.5644747351182661,-0.30411300659206225
16.200999999996817,0.5731240098440095,-0.3070648245715909
16.40099999999706,0.5826247534145252,-0.30991268474508227
16.600999999997306,0.5927385756581113,-0.32045955972481344
16.80099999999755,0.600149263513819,-0.3287093707762472
17.000999999997795,0.6078689128644508,-0.33315936445728345
17.20099999999804,0.6138193328182648,-0.34320208268537467
17.400999999998284,0.6180980725750261,-0.3376651302364519
17.60099999999853,0.6251242084028027,-0.3489627356882665
17.800999999998773,0.6319415903811101,-0.35642442772852817
18.000999999999017,0.6384131225468453,-0.363538190555088
18.20099999999926,0.6484072392578933,-0.36488461337384337
18.400999999999506,0.6547425100009105,-0.37051370685440493
18.60099999999975,0.6614191323514987,-0.38001893153077054
18.799999999999994,0.6684823539232073,-0.38449262811579016
19.000000000000238,0.6745682669915022,-0.3902375655325214
19.200000000000482,0.6823652824428826,-0.39743320444866237
19.400000000000727,0.689418831932397,-0.4042443021765766
19.60000000000097,0.6955898190532657,-0.4046893231927079
19.800000000001216,0.7030837567420922,-0.4120841090474708
20.00000000000146,0.7114107621783295,-0.4267229347300693
