Time (s),X (m),Y (m)
0.001,4.1020280575708355e-05,0.0010155025257856582
0.20000000000000015,0.0014643786896126707,0.005047553754048029
0.4000000000000003,0.0025059855679468563,0.004437106934644377
0.6000000000000004,0.00487674942421651,0.004045295624872754
0.8000000000000006,0.01563260730914106,-0.004837369704094133
1.0000000000000007,0.017856379757224046,-0.003016558232958976
1.2009999999999785,0.02249353039377659,-0.0038873477926028976
1.4009999999999565,0.026260824860070097,0.002772919369922252
1.6009999999999345,0.028900433551772985,0.005973912775743244
1.8009999999999124,0.0327920156765232,0.008681025900635892
2.0009999999998906,0.0331152796498054,0.014361392421006838
2.2009999999998686,0.03466236218605588,0.01733584754713928
2.4009999999998466,0.03843803546272161,0.020518437403421345
2.6009999999998246,0.04357286533714748,0.020051918862025654
2.8009999999998025,0.04730369168013486,0.020463446884543247
3.0009999999997805,0.0530675572135484,0.020137847244652268
3.2009999999997585,0.06145469031451434,0.018586192517394923
3.4009999999997365,0.06825407638353724,0.022439342985164066
3.6009999999997144,0.07175086854772675,0.02397102051436237
3.8009999999996924,0.07620211827178625,0.024881635502015425
4.000999999999671,0.08102988398225862,0.02611191515377563
4.200999999999738,0.08738017110660122,0.025502677677600824
4.400999999999804,0.09118961787465539,0.03137983259409138
4.600999999999871,0.09840136747512337,0.0313565411097455
4.800999999999938,0.10352075975423565,0.036003877143530344
5.000000000000004,0.11071731988116412,0.03502482307835586
5.200000000000071,0.1175917636531485,0.03503000688572881
5.400000000000138,0.12339941770016584,0.03531296735802139
5.600000000000205,0.13238371126081436,0.03442071933736634
5.800000000000272,0.13616805430781384,0.03795098072119071
6.000000000000338,0.14283952840615857,0.041388842413411446
6.200000000000405,0.14929148456254707,0.046305790971908456
6.400000000000472,0.15580994860500302,0.04838121294683667
6.600000000000539,0.16138623847974154,0.051416433956713935
6.800000000000606,0.16640886993555312,0.05532996938597276
7.000000000000672,0.1735761508131172,0.05913361417726361
7.200000000000739,0.1809270780835409,0.06019691134647675
7.400000000000806,0.18461633935037974,0.06465362845674334
7.600000000000873,0.19136584006874635,0.06769990340682241
7.8000000000009395,0.19610991889957466,0.07319329338277443
8.000000000001005,0.19898381175170962,0.07682623327695984
8.200000000000895,0.20482477586503717,0.0785878252753864
8.400000000000784,0.2063306569873918,0.08464824791786703
8.600000000000673,0.2139564010481544,0.08783158080404298
8.800000000000562,0.2184895165219392,0.09369465248470446
9.000000000000451,0.22557515156748842,0.09714008347947141
9.20000000000034,0.2271839307226426,0.10118403976647022
9.40000000000023,0.23199520583703484,0.10549291274408268
9.600000000000119,0.2397436026884234,0.10910707495690078
9.800000000000008,0.24302749674419286,0.11425959515198199
10.000999999999896,0.2472423231845075,0.11815362064011353
10.200999999999786,0.25383023168840485,0.12202412996410177
10.400999999999675,0.2608429674363324,0.12415563109117277
10.600999999999564,0.26710107438895964,0.12792903246223936
10.800999999999453,0.2688664853110054,0.1328339337113276
11.000999999999342,0.2743228514795662,0.13788096421873006
11.200999999999231,0.2791906847939657,0.14258454388290878
11.40099999999912,0.2835969686476745,0.14769608210670046
11.60099999999901,0.2872427595134984,0.15249879597661165
11.800999999998899,0.2903217916123969,0.15923137706258636
12.000999999998788,0.2931362047471632,0.1650959652457613
12.200999999998677,0.2985032840311254,0.17076902797086377
12.400999999998566,0.30534985000884723,0.17474468121857273
12.600999999998455,0.307920895025639,0.18100839654144535
12.800999999998345,0.31278965173454765,0.1866703116750979
13.000999999998234,0.3140780702742742,0.19354796064705612
13.200999999998123,0.3207642098744453,0.19947369481981067
13.400999999998012,0.3256926542389705,0.20531505140115644
13.600999999997901,0.3323627336507591,0.21011599042968626
13.80099999999779,0.33279287724728174,0.21799600092002056
14.00099999999768,0.3360274824536792,0.22215895601456065
14.200999999997569,0.3392059171080388,0.2289446960236532
14.400999999997458,0.3362178654052831,0.23564026272703248
14.600999999997347,0.33836045741811427,0.24006240302004286
14.800999999997236,0.33965005879878174,0.24572841038663265
15.000999999997125,0.3429089467321463,0.2516038667892289
15.200999999997014,0.34901225051700935,0.25795393650695625
15.400999999996904,0.34597682544206476,0.26456438561759943
15.600999999996793,0.3504831905634788,0.2695645982056025
15.800999999996682,0.34920459307308066,0.2774993480480739
16.000999999996573,0.3534935305504905,0.2839640202533934
16.200999999996817,0.35714099979084546,0.28986060415528914
16.40099999999706,0.36057818490473614,0.29588466595538376
16.600999999997306,0.3619179015015478,0.30248579321153996
16.80099999999755,0.36450126487268114,0.3072957707647987
17.000999999997795,0.36421193750630976,0.3128022031968763
17.20099999999804,0.36779864432142123,0.3185906588703405
17.400999999998284,0.3701561049042232,0.32528106238070603
17.60099999999853,0.37105499380554124,0.33231232037915337
17.800999999998773,0.37336100086856294,0.3386266795020283
18.000999999999017,0.37732608819877195,0.3444056120111778
18.20099999999926,0.38515513202039003,0.35042157668905666
18.400999999999506,0.3866180446580718,0.3563948412713714
18.60099999999975,0.3872508745056468,0.36378762918164453
18.799999999999994,0.3926047861569126,0.3697926731629698
19.000000000000238,0.3923633459439208,0.3760176095738843
19.200000000000482,0.39482224355521184,0.3826506819501194
19.400000000000727,0.3955613405724079,0.38855306533774675
19.60000000000097,0.3969511828045773,0.39510980674397
19.800000000001216,0.3956542873466305,0.4014969324356898
20.00000000000146,0.3938533526947056,0.4092963733324887
