Time (s),X (m),Y (m)
0.001,-0.0008071636076123137,8.987223813608099e-05
0.20000000000000015,0.0008123677216300759,0.0003453094846865055
0.4000000000000003,-0.002726064504477158,0.0048088554188577375
0.6000000000000004,0.005781376634265431,0.008938390325029183
0.8000000000000006,0.03078987996363,0.011076293096609001
1.0000000000000007,0.07172513860307458,0.008532299283395474
1.2009999999999785,0.1066719152074586,0.005281745772156351
1.4009999999999565,0.1371089924698371,0.0004959637865400773
1.6009999999999345,0.18014083058709987,-0.007179054312802474
1.8009999999999124,0.23402690651700586,-0.018687249270595493
2.0009999999998906,0.28594138392931173,-0.036058558866791934
2.2009999999998686,0.33791581330150094,-0.054888195601126295
2.4009999999998466,0.3926448105893059,-0.08158937050737024
2.6009999999998246,0.4580117504157272,-0.11142865326749686
2.8009999999998025,0.5233820661777479,-0.14477399436099755
3.0009999999997805,0.5887224337406151,-0.1840857823739272
3.2009999999997585,0.6553148049194688,-0.22296948273981265
3.4009999999997365,0.719804374876978,-0.2634933144376462
3.6009999999997144,0.7821559257502707,-0.3245083680007068
3.8009999999996924,0.8292516203724567,-0.3805740190130131
4.000999999999671,0.8603627346901075,-0.4483042778069452
4.200999999999738,0.8812812432297399,-0.5164123520589516
4.400999999999804,0.8917819640376502,-0.5832794224380431
4.600999999999871,0.876541836088998,-0.6568050679618292
4.800999999999938,0.8435012956288084,-0.7359515552299798
5.000000000000004,0.7965420956189551,-0.8159009550281823
5.200000000000071,0.7277241194295658,-0.8776493301879292
5.400000000000138,0.656095788274091,-0.9036414314489971
5.600000000000205,0.5874498439756536,-0.8988711254398923
5.800000000000272,0.5272296856394744,-0.8648188534903118
6.000000000000338,0.49153479128717475,-0.819447186028803
6.200000000000405,0.4793776846194438,-0.7667825879115207
6.400000000000472,0.4889415546187004,-0.7144840542611341
6.600000000000539,0.5093680044071107,-0.6661165068501499
6.800000000000606,0.5355878655411548,-0.6098292169064368
7.000000000000672,0.5649748710168077,-0.5534853548118135
7.200000000000739,0.6193264035582867,-0.5159778273229253
7.400000000000806,0.6789508496829354,-0.4985123126175711
7.600000000000873,0.7423325296448792,-0.5002004401125247
7.8000000000009395,0.8032309126602937,-0.5179242021337285
8.000000000001005,0.8614843214226952,-0.558964196453279
8.200000000000895,0.9019228374343824,-0.6044769081531266
8.400000000000784,0.9155316380133204,-0.6580664561132107
8.600000000000673,0.899814425008238,-0.7255244134452538
8.800000000000562,0.8691405547328676,-0.7960105641664115
9.000000000000451,0.8275012264727301,-0.8635990028266597
9.20000000000034,0.7781858497081535,-0.9144579820700232
9.40000000000023,0.7305240328808512,-0.9390429587565187
9.600000000000119,0.6828674297474707,-0.9369286027205738
9.800000000000008,0.6279627221306985,-0.9154015474552535
10.000999999999896,0.5633238491002641,-0.8854984083605344
10.200999999999786,0.49888141082996906,-0.8621311413599587
10.400999999999675,0.4460650460618287,-0.844717069898152
10.600999999999564,0.4214073696349288,-0.8108598082359216
10.800999999999453,0.4213261407235893,-0.7677249262404181
11.000999999999342,0.42971883549120243,-0.7202593442175187
11.200999999999231,0.43536142401567807,-0.673790292399529
11.40099999999912,0.4611602058844027,-0.6196118324158986
11.60099999999901,0.5198614406910644,-0.5670875990441867
11.800999999998899,0.5971734831561994,-0.5416339355454092
12.000999999998788,0.6763599582030991,-0.5451842959634063
12.200999999998677,0.7524486157807342,-0.5628469299382589
12.400999999998566,0.8304085656673638,-0.5934375040289925
12.600999999998455,0.9081132016231886,-0.6378963343113149
12.800999999998345,0.9741028831818511,-0.6991707206819003
13.000999999998234,1.0097652860070154,-0.7517637435410531
13.200999999998123,1.0267846632542952,-0.7896678685212866
13.400999999998012,1.0218204905810637,-0.8357587371166504
13.600999999997901,0.9949183361054962,-0.899401516587864
13.80099999999779,0.9622772013675868,-0.9697456056760652
14.00099999999768,0.9309780565156575,-1.0370368045941611
14.200999999997569,0.8881796000709984,-1.1046424545648748
14.400999999997458,0.8342485215838797,-1.1780161558085975
14.600999999997347,0.7794918043943135,-1.2459713305525966
14.800999999997236,0.7252716927612435,-1.2856809680756551
15.000999999997125,0.6666716494114232,-1.2952045422431713
15.200999999997014,0.6121217749777542,-1.2636452996417287
15.400999999996904,0.5799783839168279,-1.1994551957087576
15.600999999996793,0.5741689364825608,-1.1268322780124582
15.800999999996682,0.577910007365761,-1.0603418666893014
16.000999999996573,0.5960219478309245,-0.997485958360331
16.200999999996817,0.6337516344841999,-0.9401414068218484
16.40099999999706,0.6960340123242169,-0.902086216163229
16.600999999997306,0.7625665643430785,-0.8900528146789844
16.80099999999755,0.8224449026510987,-0.8936967882791682
17.000999999997795,0.8828032405542147,-0.9158075077868332
17.20099999999804,0.9380759408818649,-0.9497681759210329
17.400999999998284,0.9834688767419739,-0.9897735740847027
17.60099999999853,1.0008438355670912,-1.0456790287050883
17.800999999998773,0.9921026666705614,-1.1009629915177812
18.000999999999017,0.9586689379604407,-1.143570822256433
18.20099999999926,0.9213379597082899,-1.1662566532757146
18.400999999999506,0.8869399358627447,-1.1696147367843484
18.60099999999975,0.8521685009321942,-1.1618886939278141
18.799999999999994,0.8167644013348616,-1.1455274584481527
19.000000000000238,0.7749779816319057,-1.1256874368064245
19.200000000000482,0.7287118476409269,-1.094977004494674
19.400000000000727,0.6951394494843246,-1.0454704277313216
19.60000000000097,0.6903854620658847,-0.9751380584862577
19.800000000001216,0.7074874695422367,-0.903506453206167
20.00000000000146,0.737252999131023,-0.8308658270422534
