Time (s),X (m),Y (m)
0.001,0.0002200807748493132,-0.0010311682891199468
0.20000000000000015,0.0034829044942277353,0.006467078385980941
0.4000000000000003,0.007692336663211242,0.009348993220453954
0.6000000000000004,0.014699457684393923,0.00621609990418878
0.8000000000000006,0.03270330086085792,0.014226220820560498
1.0000000000000007,0.05051909254021069,0.008282141712878513
1.2009999999999785,0.06942178040740235,-0.00437902891845562
1.4009999999999565,0.09568352814052854,-0.00016115680843695155
1.6009999999999345,0.1234901626420369,-0.009997156251825592
1.8009999999999124,0.15025985974322992,-0.02314802374436267
2.0009999999998906,0.17056335097620223,-0.042920847436597485
2.2009999999998686,0.19429248329558454,-0.04527806921160159
2.4009999999998466,0.2307127336888501,-0.033104454343376076
2.6009999999998246,0.2665466044699912,-0.04356678946350601
2.8009999999998025,0.29019774540226534,-0.06516541278084156
3.0009999999997805,0.31711948736946993,-0.08960787425695449
3.2009999999997585,0.33775372277729915,-0.11468302127265372
3.4009999999997365,0.36837254234813394,-0.13063122375701866
3.6009999999997144,0.40649838603109467,-0.1441323583296038
3.8009999999996924,0.44698696575030766,-0.1601787970049285
4.000999999999671,0.4803009820832019,-0.18749710411135867
4.200999999999738,0.5168885419705271,-0.2141016420363873
4.400999999999804,0.5536533822150119,-0.23718544617518292
4.600999999999871,0.588915830489444,-0.2562075355719404
4.800999999999938,0.6111535882675673,-0.2816600934523694
5.000000000000004,0.6310592597907505,-0.3165142500457868
5.200000000000071,0.6586317247249514,-0.3569414750166204
5.400000000000138,0.665535273173136,-0.4033766159099799
5.600000000000205,0.6535666390769648,-0.4430297808139896
5.800000000000272,0.638671995462735,-0.4757673217086045
6.000000000000338,0.6178877646054107,-0.5079463192639903
6.200000000000405,0.5963953928088223,-0.540719148001378
6.400000000000472,0.5660638780531898,-0.5518726216435997
6.600000000000539,0.53231775601056,-0.540779557222387
6.800000000000606,0.5023480329646691,-0.513953790430481
7.000000000000672,0.47202239374718397,-0.48618260466505764
7.200000000000739,0.43688500601660835,-0.4629120416741817
7.400000000000806,0.3999119479376094,-0.44431698917472695
7.600000000000873,0.3593066471770164,-0.4291258688289841
7.8000000000009395,0.33662128249413353,-0.40934652461489357
8.000000000001005,0.33024507016681065,-0.3734438063447868
8.200000000000895,0.3380587706210907,-0.3261930770739826
8.400000000000784,0.3581998687522906,-0.28126013430191993
8.600000000000673,0.377863039056541,-0.2506849140090649
8.800000000000562,0.40616711491996926,-0.23274448426894087
9.000000000000451,0.4399072530463519,-0.22840262618462462
9.20000000000034,0.4850443403530472,-0.2286009146309893
9.40000000000023,0.5255758456186354,-0.2380486677253168
9.600000000000119,0.564012379731565,-0.25158697467522795
9.800000000000008,0.5990232162118823,-0.2665963620082357
10.000999999999896,0.637402588930836,-0.28258345202710033
10.200999999999786,0.6781739964457559,-0.3043133399678718
10.400999999999675,0.7160671661397152,-0.3232123568433498
10.600999999999564,0.7601311568919519,-0.3391843505210972
10.800999999999453,0.8032408336578383,-0.35682544529713883
11.000999999999342,0.8499992576938743,-0.3592435824712399
11.200999999999231,0.9003095064538535,-0.3725242599003341
11.40099999999912,0.9474258675061895,-0.39845415130881373
11.60099999999901,0.9925537152544488,-0.4236608675173389
11.800999999998899,1.0325914824391826,-0.44755542655799807
12.000999999998788,1.0704606819893299,-0.47218289936182484
12.200999999998677,1.1007767921075031,-0.5014041109434947
12.400999999998566,1.1294400759029533,-0.5359542830694005
12.600999999998455,1.1738008938225373,-0.5738462700991861
12.800999999998345,1.205313079044395,-0.6144947799745153
13.000999999998234,1.2307957772604898,-0.6571894667567127
13.200999999998123,1.2344143412653537,-0.701387047043971
13.400999999998012,1.2307725914855694,-0.7461861409453077
13.600999999997901,1.2485337904864182,-0.7870833936282862
13.80099999999779,1.250748049070423,-0.8265393843986144
14.00099999999768,1.2445089688555384,-0.8679974600696687
14.200999999997569,1.2397455134158524,-0.9090919411572828
14.400999999997458,1.2390077488709434,-0.9560655238290232
14.600999999997347,1.2497911151168715,-1.0005420680408688
14.800999999997236,1.2450904278260013,-1.047775083620696
15.000999999997125,1.2392974285156861,-1.086945234321467
15.200999999997014,1.2335063791382221,-1.1332853002801362
15.400999999996904,1.223213000793412,-1.1829061384344255
15.600999999996793,1.2020181461829587,-1.2191284020930755
15.800999999996682,1.1765904225306818,-1.25414117811749
16.000999999996573,1.1605741696004608,-1.2995846842847127
16.200999999996817,1.1469851268953508,-1.338772199654165
16.40099999999706,1.1394946342564203,-1.3824664240163904
16.600999999997306,1.122458796771241,-1.4239036753213905
16.80099999999755,1.0969085559997618,-1.445579649003299
17.000999999997795,1.0685707393124302,-1.447713114429643
17.20099999999804,1.0430198142406677,-1.4260280928211233
17.400999999998284,1.0185975627820243,-1.3958953224885646
17.60099999999853,1.0056680586767173,-1.360915597463167
17.800999999998773,0.9965697857999978,-1.313941855940002
18.000999999999017,1.0038681731548098,-1.2700270518639152
18.20099999999926,1.0210901941945025,-1.2278670288410634
18.400999999999506,1.04127903115572,-1.1875606739758982
18.60099999999975,1.0630881799618532,-1.1430435435739021
18.799999999999994,1.0908833373782931,-1.111360039022568
19.000000000000238,1.1299443773032858,-1.106065565316753
19.200000000000482,1.1783824863922763,-1.1057839379800425
19.400000000000727,1.2344358863841896,-1.106084986917875
19.60000000000097,1.2788853779773905,-1.1161884232267727
19.800000000001216,1.3195966485009947,-1.132086373358388
20.00000000000146,1.3637553332144523,-1.1471415904371478
