Time (s),X (m),Y (m)
0.001,0.0003099530129853942,-0.0010272443824616275
0.20000000000000015,0.0013640369237187314,-0.004519189181573847
0.4000000000000003,0.004014737606854602,-0.0046121352453826715
0.6000000000000004,0.007391764533395289,-0.005005004039975182
0.8000000000000006,0.008404306110089499,-0.0008497184347811148
1.0000000000000007,0.014819191819715903,-0.007612292314085141
1.2009999999999785,0.018151749683328538,-0.006204846764255128
1.4009999999999565,0.021220647560955583,-0.002213047811416693
1.6009999999999345,0.02444351954514786,-0.0018892270922889441
1.8009999999999124,0.029285460324042875,0.0019461775257848452
2.0009999999998906,0.032979716670122734,0.0017514218702264443
2.2009999999998686,0.03862400093407951,-0.0008211341583608382
2.4009999999998466,0.04265000844545923,0.0009778685796555376
2.6009999999998246,0.045486280175335014,0.0020460942375722223
2.8009999999998025,0.048759095892469635,0.0032321071312660737
3.0009999999997805,0.05344741242428987,0.0004558821785385539
3.2009999999997585,0.05702586360471125,0.0021902202222979414
3.4009999999997365,0.06181265441694899,0.006766753449082794
3.6009999999997144,0.06575056501289593,0.00874048975540259
3.8009999999996924,0.07343698345987357,0.007530784415403129
4.000999999999671,0.07828682656424166,0.010179894655201619
4.200999999999738,0.08518857133083817,0.010843005239901608
4.400999999999804,0.08947942173971346,0.012872331722896606
4.600999999999871,0.09258318766828391,0.01514753880322767
4.800999999999938,0.09823584484015335,0.01700850171729225
5.000000000000004,0.10509267337226327,0.018801372923455736
5.200000000000071,0.11060896791354792,0.01961627896841255
5.400000000000138,0.11661135575716364,0.024383527609887348
5.600000000000205,0.12409553543469942,0.02238757466213891
5.800000000000272,0.13203632618935845,0.02318071252755299
6.000000000000338,0.1356466340648908,0.028977629492156667
6.200000000000405,0.14289035200579578,0.029376548792984805
6.400000000000472,0.1486097253416157,0.03136607024058386
6.600000000000539,0.15402611312718248,0.032673858395837224
6.800000000000606,0.16012475603402057,0.03383390318045022
7.000000000000672,0.16576496751376818,0.03750738439311739
7.200000000000739,0.16997493558757903,0.04057184405262007
7.400000000000806,0.17451969229837186,0.04479164055145995
7.600000000000873,0.18124224593132843,0.04574041589095207
7.8000000000009395,0.1899612878668721,0.045429371301142996
8.000000000001005,0.19378090563592926,0.051357138880581917
8.200000000000895,0.19920406938143193,0.056000963267258445
8.400000000000784,0.20626028056574405,0.06061124420910001
8.600000000000673,0.21319174419864573,0.06342105763778955
8.800000000000562,0.21849284014941608,0.06741169018509334
9.000000000000451,0.22510372916668037,0.06774971641966701
9.20000000000034,0.2276686352549578,0.07343593872840459
9.40000000000023,0.229727231984473,0.07890252015017529
9.600000000000119,0.23324578123220716,0.0836640530139006
9.800000000000008,0.23612371567822238,0.08764887156102175
10.000999999999896,0.24066550580966523,0.09258726495040054
10.200999999999786,0.24638537541100192,0.09801990123404536
10.400999999999675,0.2499535941805277,0.10307865814935951
10.600999999999564,0.25713470990289944,0.10804982286345834
10.800999999999453,0.26103379374349095,0.1129089201844688
11.000999999999342,0.2669546492076903,0.11696613267184537
11.200999999999231,0.26809916464878886,0.12378553655541126
11.40099999999912,0.27197486447754127,0.12987269220100126
11.60099999999901,0.274763347934313,0.1357519784063559
11.800999999998899,0.2789673953969004,0.1424955341592926
12.000999999998788,0.2832279335180234,0.14755651103869333
12.200999999998677,0.28591081301197857,0.1546447428158471
12.400999999998566,0.29109899769477543,0.16047011966326413
12.600999999998455,0.29343424126107703,0.16710480944703338
12.800999999998345,0.29091652067119456,0.17455168496864648
13.000999999998234,0.29610873661553533,0.18060186807322695
13.200999999998123,0.29541647149561473,0.18667552791590908
13.400999999998012,0.2966954197761929,0.19238357357734756
13.600999999997901,0.3020363012701256,0.19821343276883693
13.80099999999779,0.3000805763735281,0.2047597991364201
14.00099999999768,0.3033402941996887,0.21018093603454369
14.200999999997569,0.3050416547791957,0.21765371862029806
14.400999999997458,0.30675041475979076,0.22321196121213557
14.600999999997347,0.3080106770126332,0.2297086449192846
14.800999999997236,0.3083435571274972,0.23602881549589377
15.000999999997125,0.30885033034155057,0.24139716171864556
15.200999999997014,0.3140610827416412,0.24637010680439722
15.400999999996904,0.31402941983157934,0.2526617588573996
15.600999999996793,0.317747224592701,0.25836895506485225
15.800999999996682,0.3222033542099775,0.2642483060624756
16.000999999996573,0.3211019083920504,0.2694965465529142
16.200999999996817,0.3262244609656336,0.27487364210271625
16.40099999999706,0.32772852711971656,0.2815013955281586
16.600999999997306,0.3318523102166204,0.28794919616157333
16.80099999999755,0.3346529616679069,0.29397693228385713
17.000999999997795,0.3355236432197837,0.3003884846912384
17.20099999999804,0.33554403996664267,0.30664135722787494
17.400999999998284,0.33899844009546465,0.3133609060057389
17.60099999999853,0.3387128484350916,0.3203608493840793
17.800999999998773,0.34054163291193784,0.3276035722919418
18.000999999999017,0.34049635391226296,0.3335291687305574
18.20099999999926,0.3424412852546778,0.3395992188699294
18.400999999999506,0.34412167064953414,0.3462961554764535
18.60099999999975,0.34318371257228325,0.35112457867115976
18.799999999999994,0.34737512758862843,0.3592925932188238
19.000000000000238,0.34897957151870923,0.36627316575012236
19.200000000000482,0.3481732290822151,0.37293378019321133
19.400000000000727,0.3458701796068359,0.37988246934137637
19.60000000000097,0.34725007120806844,0.3862073949911399
19.800000000001216,0.34521079040578795,0.3916930725464408
20.00000000000146,0.341953609911133,0.39636101905447707
