Time (s),X (m),Y (m)
0.001,0.0008115346074009382,-0.0008446836120385868
0.20000000000000015,0.0003318416945711983,0.00231364965918081
0.4000000000000003,0.011845411539751972,-0.007985550690655917
0.6000000000000004,0.02564020878094364,-0.010593107948071955
0.8000000000000006,0.042635019154814234,-0.015618688672390052
1.0000000000000007,0.05862552923737809,-0.012638808720384472
1.2009999999999785,0.07459805063194107,-0.01353534929365856
1.4009999999999565,0.09467359245386892,-0.006899913666955197
1.6009999999999345,0.11585241739785773,-0.0011578310856715337
1.8009999999999124,0.13455751792656503,-0.009586660262353386
2.0009999999998906,0.1573218434492183,-0.009901518477930414
2.2009999999998686,0.1805215221279159,-0.01593482117284483
2.4009999999998466,0.2021410253178811,-0.027142621284337226
2.6009999999998246,0.2122671820914259,-0.03222439912084847
2.8009999999998025,0.22729822178190617,-0.03874123220905509
3.0009999999997805,0.24789266450982655,-0.055980495304317285
3.2009999999997585,0.2677394207354185,-0.0791980030619883
3.4009999999997365,0.2852315478779311,-0.11624801128463089
3.6009999999997144,0.3064173622362649,-0.14172287468096614
3.8009999999996924,0.3272830149453437,-0.15704768263876517
4.000999999999671,0.3451529683540595,-0.17421292057272875
4.200999999999738,0.36193898096177124,-0.20355677300404668
4.400999999999804,0.38182177093428366,-0.22270943267781876
4.600999999999871,0.3935616690593368,-0.24798329996613394
4.800999999999938,0.400539614985464,-0.2721258112992772
5.000000000000004,0.42698025522066807,-0.2893453400588283
5.200000000000071,0.4459258995187597,-0.3109193501803829
5.400000000000138,0.4618840045787486,-0.33241915577700365
5.600000000000205,0.4625240160494029,-0.3665180445205252
5.800000000000272,0.462651631649317,-0.4033448824368648
6.000000000000338,0.47376488548134416,-0.43709226722330424
6.200000000000405,0.4883100141822463,-0.4641901253333896
6.400000000000472,0.49423624847103953,-0.5020822475788755
6.600000000000539,0.5023827351633842,-0.5297782257038435
6.800000000000606,0.5090983048277143,-0.5595973765983275
7.000000000000672,0.5203718771682437,-0.5911998583032899
7.200000000000739,0.5302193751845418,-0.6159847658052521
7.400000000000806,0.5334750825507769,-0.6484410992539473
7.600000000000873,0.5411761356546074,-0.6769863891305639
7.8000000000009395,0.5448504345333401,-0.7093389689018117
8.000000000001005,0.5474546649456246,-0.7401095583315637
8.200000000000895,0.5460933925553663,-0.7706576204734199
8.400000000000784,0.5335660265222424,-0.8005342285831756
8.600000000000673,0.5267874005223858,-0.8331133676556635
8.800000000000562,0.5113636890733637,-0.8611541950610818
9.000000000000451,0.5092569447385639,-0.8856740345870084
9.20000000000034,0.4967849172250797,-0.9033075600418523
9.40000000000023,0.47383518847043193,-0.9259842863413806
9.600000000000119,0.44773918137790336,-0.9426307058338244
9.800000000000008,0.428220047665267,-0.960844683341101
10.000999999999896,0.4000703622164178,-0.974838290294038
10.200999999999786,0.37109124577545705,-0.9872961931624546
10.400999999999675,0.336956188439265,-1.00039092438604
10.600999999999564,0.3153315804092244,-1.020450167165548
10.800999999999453,0.27257211776564577,-1.0347860277333067
11.000999999999342,0.2339513112139703,-1.057708387380551
11.200999999999231,0.21741621809456257,-1.0866912991761914
11.40099999999912,0.20040431473806158,-1.112024968512573
11.60099999999901,0.18682744951087749,-1.1346203593756132
11.800999999998899,0.15791714080838176,-1.1447576729557094
12.000999999998788,0.11827812404761166,-1.1432701189590193
12.200999999998677,0.08363962109996083,-1.1489614853483636
12.400999999998566,0.04958321167295914,-1.1556910287332751
12.600999999998455,0.01538995766139769,-1.164535165175762
12.800999999998345,-0.022088849379439075,-1.1737012116960757
13.000999999998234,-0.05781437371138734,-1.176257585343792
13.200999999998123,-0.09262655635341542,-1.179172834204785
13.400999999998012,-0.12169768369712348,-1.1828190283495494
13.600999999997901,-0.1487311619714382,-1.1758696513787883
13.80099999999779,-0.17498195392456406,-1.1542214630839738
14.00099999999768,-0.20704507916535486,-1.1426583845651097
14.200999999997569,-0.23123725258839792,-1.123512317566713
14.400999999997458,-0.2547466461366424,-1.1077375427780445
14.600999999997347,-0.27954249442695256,-1.0842937167534703
14.800999999997236,-0.3025646179318851,-1.0650371107316141
15.000999999997125,-0.3275589360383366,-1.0445192529806917
15.200999999997014,-0.3516773317966117,-1.0272339362142697
15.400999999996904,-0.37894400034393466,-1.009980036149645
15.600999999996793,-0.3982543020756452,-0.9863371631909309
15.800999999996682,-0.40830815828868994,-0.9476566339621069
16.000999999996573,-0.41115287040433957,-0.9016412304195444
16.200999999996817,-0.411357099739218,-0.8598941026943736
16.40099999999706,-0.408490133811028,-0.8227497470184381
16.600999999997306,-0.41041489229511013,-0.7853441820799612
16.80099999999755,-0.41148405990901976,-0.7483645669009478
17.000999999997795,-0.41911075795467584,-0.7151267184129281
17.20099999999804,-0.41766410672190385,-0.6836265418880697
17.400999999998284,-0.41793369764807525,-0.6481411371399525
17.60099999999853,-0.4143893428596399,-0.6165042930442524
17.800999999998773,-0.39578753157934815,-0.5905503664462187
18.000999999999017,-0.37719888663536716,-0.5670731465386631
18.20099999999926,-0.33950845168380994,-0.5535415662044665
18.400999999999506,-0.3022857121883236,-0.5419578414164772
18.60099999999975,-0.2606723080015292,-0.5342773371708047
18.799999999999994,-0.23153604029369956,-0.5222974142488477
19.000000000000238,-0.1966718278301806,-0.5138075624832351
19.200000000000482,-0.1636025656729933,-0.5086741428638148
19.400000000000727,-0.12583195181301957,-0.5075708532628852
19.60000000000097,-0.08005132513601868,-0.5040715428636966
19.800000000001216,-0.04084760741460557,-0.4938515965210409
20.00000000000146,-0.0032016383427596793,-0.47900166099520847
