Time (s),X (m),Y (m)
0.001,0.0008829029745972832,-0.0007899207378008392
0.20000000000000015,0.0022311131253126676,-0.00033376149071194576
0.4000000000000003,0.002516819326863892,0.0016782431679965208
0.6000000000000004,0.006023611214218686,-0.00047285178887291154
0.8000000000000006,0.012558766023730163,-0.0012038817656462935
1.0000000000000007,0.023586250509778157,-0.010532524445570039
1.2009999999999785,0.03134243361235171,-0.009216091325579977
1.4009999999999565,0.04115861994498497,-0.015725462138769956
1.6009999999999345,0.049927642672316544,-0.008453692247360957
1.8009999999999124,0.055774043793494245,-0.0021651396691753843
2.0009999999998906,0.06603221650276715,-0.005572579720170675
2.2009999999998686,0.07523810539297109,-0.005411155451642875
2.4009999999998466,0.08974726754509292,-0.007552912031352751
2.6009999999998246,0.10541247798152052,-0.01731927489812023
2.8009999999998025,0.11918758688737338,-0.023178868836637143
3.0009999999997805,0.13785170440754763,-0.03184080326253959
3.2009999999997585,0.1582387732860593,-0.034510796475901453
3.4009999999997365,0.17123258989661147,-0.04310270221730137
3.6009999999997144,0.18340407193857403,-0.04338557887194719
3.8009999999996924,0.19099316560126403,-0.04408319366018822
4.000999999999671,0.20744364902450776,-0.04489080272006697
4.200999999999738,0.22370647639758365,-0.04304610274910743
4.400999999999804,0.23748259719803538,-0.04741148290827899
4.600999999999871,0.2508092728177805,-0.04598984235853108
4.800999999999938,0.2611324900674533,-0.040478565001529014
5.000000000000004,0.27790843567726076,-0.03175513671492917
5.200000000000071,0.2930318204054329,-0.029278303661800873
5.400000000000138,0.3091881437066069,-0.029713322809282974
5.600000000000205,0.32703888126411773,-0.02894494242643745
5.800000000000272,0.34199799559386757,-0.02575725323945338
6.000000000000338,0.35943361695446924,-0.024308933628111432
6.200000000000405,0.3746405802242583,-0.011483042987009728
6.400000000000472,0.3957823684062196,-0.010839574901706443
6.600000000000539,0.4080187264958311,-0.01180825509230844
6.800000000000606,0.42423278232104183,-0.00964331183190068
7.000000000000672,0.4336801888697931,-0.0027909682587212107
7.200000000000739,0.44990057220779084,0.0022444370635997337
7.400000000000806,0.4703827910966133,0.004300047495051516
7.600000000000873,0.4897609751754992,0.00605481902511133
7.8000000000009395,0.5014416123022634,0.008296311396220514
8.000000000001005,0.5151767349358168,0.013644794630123627
8.200000000000895,0.5240068874072275,0.0211415630709466
8.400000000000784,0.533156143573303,0.026978956681860927
8.600000000000673,0.5426264102663341,0.03482390403699777
8.800000000000562,0.5598124080043876,0.040157611439116864
9.000000000000451,0.577494017156574,0.04160676369960092
9.20000000000034,0.5958977031328836,0.041310883523598935
9.40000000000023,0.6037721878229224,0.05152365851877499
9.600000000000119,0.6166256898609324,0.059244584182905756
9.800000000000008,0.6307153194154759,0.06606259953014683
10.000999999999896,0.6489696434658143,0.06430315958126065
10.200999999999786,0.6653780848305687,0.06314783652435514
10.400999999999675,0.6817448395275192,0.06964654558257914
10.600999999999564,0.7003056828463421,0.07757491659912372
10.800999999999453,0.7076479499818596,0.08394069651591884
11.000999999999342,0.7229938566015244,0.08549975370861022
11.200999999999231,0.7454629817892647,0.08391582977439957
11.40099999999912,0.7599979326318528,0.08692622638217633
11.60099999999901,0.771636746709771,0.08864773598302213
11.800999999998899,0.7869407094638521,0.0923509959554917
12.000999999998788,0.8035648165818746,0.0934853688715257
12.200999999998677,0.8130954726971913,0.09888084770084794
12.400999999998566,0.8225997488874657,0.1041922145523103
12.600999999998455,0.8305851398024094,0.10811598991456349
12.800999999998345,0.8390836332268488,0.11641264261035188
13.000999999998234,0.8583098224633314,0.1159628014555805
13.200999999998123,0.8760472505065808,0.11241174290729429
13.400999999998012,0.889784508547113,0.11211738755998475
13.600999999997901,0.9103802570112378,0.10776272696549655
13.80099999999779,0.9300993596220346,0.10193965777029555
14.00099999999768,0.9510591849828305,0.10115014042888278
14.200999999997569,0.9669918633214695,0.10479843135265761
14.400999999997458,0.9787146001938128,0.11532397810635002
14.600999999997347,0.9942269933663609,0.1205361910323393
14.800999999997236,1.008440092903281,0.12617055035962874
15.000999999997125,1.0188610098491753,0.132042260409378
15.200999999997014,1.036775926873253,0.13204500006505882
15.400999999996904,1.0550393546825718,0.1361336494163244
15.600999999996793,1.0703510740773112,0.1400029040571134
15.800999999996682,1.0844282845890802,0.14894655474136417
16.000999999996573,1.0994790123370428,0.14958840812260765
16.200999999996817,1.1146111653443411,0.15705647528620173
16.40099999999706,1.1278453171992255,0.1599779288353245
16.600999999997306,1.1416984834733765,0.16703985336964194
16.80099999999755,1.1536798776024635,0.1705924534188648
17.000999999997795,1.1658852804402509,0.17597166095003847
17.20099999999804,1.182415607090666,0.18031014620263028
17.400999999998284,1.1940647850451216,0.19027017901510557
17.60099999999853,1.205637963171998,0.19386295037133966
17.800999999998773,1.2237501842325624,0.19545498180116136
18.000999999999017,1.2387200843983472,0.19532797918347738
18.20099999999926,1.2576726925148445,0.1944911468511131
18.400999999999506,1.2704345708752043,0.19820207198591752
18.60099999999975,1.289785197512968,0.2019456624702024
18.799999999999994,1.3019185655935765,0.20951836652214545
19.000000000000238,1.3121990893951658,0.2176537760959792
19.200000000000482,1.3275013071774977,0.22470226193976026
19.400000000000727,1.336709103413711,0.23052681096367125
19.60000000000097,1.3439716953788927,0.24096359003475004
19.800000000001216,1.3574190214671744,0.24374948670914678
20.00000000000146,1.3744184475426435,0.24299748321416842
