Time (s),X (m),Y (m)
0.001,-0.0007759513068619564,-0.00026688599193002436
0.20000000000000015,0.00011440797713131018,-0.0002933563885986458
0.4000000000000003,-0.0008943313082564912,-0.0006856116668831301
0.6000000000000004,0.0012345355467657713,-0.0003019925135166571
0.8000000000000006,0.0035050555681977423,0.00032482914796525263
1.0000000000000007,0.004929691079683014,0.0005430805235042437
1.2009999999999785,0.005802323963237562,0.0007278656483597895
1.4009999999999565,0.006231726873229288,0.0007906774868752216
1.6009999999999345,0.006640738565214935,0.0008835392870878071
1.8009999999999124,0.007108367039664449,0.0009398022976500294
2.0009999999998906,0.007642446866401959,0.0010152450740208594
2.2009999999998686,0.008191086936866297,0.001092631877740672
2.4009999999998466,0.00875733950932352,0.0011656411789872205
2.6009999999998246,0.00933176564653814,0.0012644770150766313
2.8009999999998025,0.009896250785950604,0.0013532472936294232
3.0009999999997805,0.010443302993482511,0.001442138334453813
3.2009999999997585,0.010986381885865842,0.0015479694759839612
3.4009999999997365,0.011532425303741895,0.0016511045595489413
3.6009999999997144,0.01209764781715075,0.001762864602851446
3.8009999999996924,0.012669739174898002,0.0018794361951351072
4.000999999999671,0.013246774264006923,0.002006441180925985
4.200999999999738,0.013817646170487936,0.002135609266570236
4.400999999999804,0.01440402023972364,0.002288954000379277
4.600999999999871,0.014996481279717339,0.0024478988371151966
4.800999999999938,0.015583870095180774,0.0026196350869922063
5.000000000000004,0.016308598462137624,0.00282383688639462
5.200000000000071,0.01703795429406839,0.0030429622363208416
5.400000000000138,0.01776275515194802,0.003268002802785229
5.600000000000205,0.018502035759906183,0.003500250008701924
5.800000000000272,0.019261831403778393,0.003745689848158739
6.000000000000338,0.020137414528937813,0.0040387230093523584
6.200000000000405,0.020849083746320073,0.004268223873897026
6.400000000000472,0.021790296801144162,0.00458852159529223
6.600000000000539,0.02259666593357505,0.004861559217493038
6.800000000000606,0.023546179701241943,0.005199402347455117
7.000000000000672,0.02463665052976952,0.005602274894470475
7.200000000000739,0.025598960888818408,0.005956234788586726
7.400000000000806,0.026625251793141767,0.006346916271821941
7.600000000000873,0.02777851827165089,0.006806459890885601
7.8000000000009395,0.02893284111630362,0.00725826048669578
8.000000000001005,0.03009605353836117,0.007715019499357841
8.200000000000895,0.03131638593912237,0.008212146189140304
8.400000000000784,0.032578135814008286,0.008746917336945137
8.600000000000673,0.033859604799372556,0.00928448254448024
8.800000000000562,0.03522576137767454,0.009872575316249644
9.000000000000451,0.03654669330394264,0.010450431841497316
9.20000000000034,0.03789652209177103,0.011065068624272556
9.40000000000023,0.03927749160899749,0.011706255319525372
9.600000000000119,0.0406594399708804,0.012349825517045887
9.800000000000008,0.04201640845875809,0.012990562695339
10.000999999999896,0.04352957671899284,0.013725968442614743
10.200999999999786,0.045052692456381695,0.014450053576753719
10.400999999999675,0.04648892299634588,0.015165658599722633
10.600999999999564,0.048055948915990195,0.015951911389236073
10.800999999999453,0.04969927862359851,0.016776581363043188
11.000999999999342,0.051344577676997606,0.017615741611603127
11.200999999999231,0.05303447034413218,0.01849331204689332
11.40099999999912,0.05474726610687175,0.019401600867586254
11.60099999999901,0.05637182692101966,0.02029141932510072
11.800999999998899,0.05808324011670882,0.02123981547844274
12.000999999998788,0.05976243209359196,0.022184178704864003
12.200999999998677,0.061431601973578755,0.023149152505320014
12.400999999998566,0.06312021302472695,0.024138295613515045
12.600999999998455,0.06483220608909569,0.025157344095804505
12.800999999998345,0.06657490066117572,0.026203183609883607
13.000999999998234,0.0683431447505921,0.027278729343908417
13.200999999998123,0.07005188373946297,0.028350836776775627
13.400999999998012,0.07175570216978502,0.029448796698976643
13.600999999997901,0.07346639206258423,0.03056445021029053
13.80099999999779,0.07515014899624319,0.031698404764993686
14.00099999999768,0.07686294614682637,0.03285596693982438
14.200999999997569,0.07858975234676854,0.034053088939002836
14.400999999997458,0.08033207046102211,0.035273974606080456
14.600999999997347,0.08202535925338938,0.03648142927916557
14.800999999997236,0.08373160967301778,0.03773337336957095
15.000999999997125,0.08544661809838798,0.039013268897412606
15.200999999997014,0.08710405406420324,0.040295400999104676
15.400999999996904,0.08883217260386578,0.041631571117419566
15.600999999996793,0.09047539542852834,0.04295206746236371
15.800999999996682,0.09216714851429933,0.04430243420330867
16.000999999996573,0.09383604682781957,0.0456809208832493
16.200999999996817,0.09555605894530313,0.04709124212879884
16.40099999999706,0.0972060988048647,0.048504557616659276
16.600999999997306,0.09887658946677606,0.04995479911219474
16.80099999999755,0.10055721991623824,0.051438951833994315
17.000999999997795,0.10221543362986817,0.05291368734885958
17.20099999999804,0.10390013248478049,0.054442008124576356
17.400999999998284,0.10554725207464835,0.05596238409656579
17.60099999999853,0.10719170351340442,0.05750792288409694
17.800999999998773,0.1087649423884614,0.05903421474103249
18.000999999999017,0.11036887632627028,0.060605073931150576
18.20099999999926,0.11198480363104955,0.06220976097735888
18.400999999999506,0.11358673135202091,0.06382865748916008
18.60099999999975,0.11519687806626162,0.06548584405991491
18.799999999999994,0.11680862742680265,0.06715950123184973
19.000000000000238,0.11847066984406868,0.06891168949086758
19.200000000000482,0.12005435185232627,0.07061646337897534
19.400000000000727,0.12162288938758543,0.07234620588523007
19.60000000000097,0.12319407606761386,0.07410911140960674
19.800000000001216,0.12475649063236613,0.07589785973580426
20.00000000000146,0.12634023392144828,0.077691039499161
