Time (s),X (m),Y (m)
0.001,-0.00021570977506068912,0.0009345558501746678
0.20000000000000015,0.003272457800198526,-0.00016008507773572684
0.4000000000000003,0.013316609743876218,-0.004337691854598658
0.6000000000000004,0.03638781115740012,-0.0163851232213399
0.8000000000000006,0.06612217644468407,-0.018866847165494898
1.0000000000000007,0.09734451475919825,-0.059317239203357144
1.2009999999999785,0.1258839808208198,-0.13696728081064263
1.4009999999999565,0.15067382060403503,-0.2007632916350995
1.6009999999999345,0.18766855872448585,-0.24985310201567645
1.8009999999999124,0.2321151918235519,-0.3115505221480955
2.0009999999998906,0.2816068629824732,-0.37619631031658346
2.2009999999998686,0.3252421008176637,-0.4470570140007266
2.4009999999998466,0.37427648842655026,-0.5110257063409434
2.6009999999998246,0.4226984180944169,-0.57876758952471
2.8009999999998025,0.47188938112598333,-0.6442108260633581
3.0009999999997805,0.5206003275045998,-0.7062799858338233
3.2009999999997585,0.5518733678147472,-0.7775155015713693
3.4009999999997365,0.5472956937845627,-0.8485677542598449
3.6009999999997144,0.5078378348480017,-0.9129569802828262
3.8009999999996924,0.44106122513401963,-0.961177628804417
4.000999999999671,0.3864250867830352,-1.0078212432057438
4.200999999999738,0.3321961076305038,-1.0496808936198951
4.400999999999804,0.27480769108812325,-1.0634572936739026
4.600999999999871,0.21065461723559326,-1.060659789950983
4.800999999999938,0.146251099947982,-1.0441814088031378
5.000000000000004,0.11823425506210124,-1.0131477024814484
5.200000000000071,0.12254472261915403,-0.9693150131117565
5.400000000000138,0.13379984045370957,-0.9165750111535563
5.600000000000205,0.1738931041306464,-0.8734780904569182
5.800000000000272,0.2210049149159021,-0.83840673633627
6.000000000000338,0.2750521163694786,-0.8357211587347115
6.200000000000405,0.3320629524544778,-0.869955795516964
6.400000000000472,0.3865093219282434,-0.9259126749421386
6.600000000000539,0.44028935529593854,-0.991106417973084
6.800000000000606,0.4756530477855918,-1.0604383053431654
7.000000000000672,0.4781303214424245,-1.1330654266807085
7.200000000000739,0.4431549551684907,-1.2050774267329247
7.400000000000806,0.3856929509455718,-1.2678075671655225
7.600000000000873,0.3165195996204075,-1.317624053315908
7.8000000000009395,0.23700673377163306,-1.3550630566448896
8.000000000001005,0.15751247011337277,-1.3916472422813189
8.200000000000895,0.095817137087406,-1.438732991021066
8.400000000000784,0.03165482913073825,-1.467598710699488
8.600000000000673,-0.03899535536290796,-1.4764340749085316
8.800000000000562,-0.11757371231648418,-1.4675064143552536
9.000000000000451,-0.1961618262695545,-1.4319516054089172
9.20000000000034,-0.2651456550283297,-1.3880016693983086
9.40000000000023,-0.3062405474711986,-1.3280210340904535
9.600000000000119,-0.334826812334775,-1.257173775292605
9.800000000000008,-0.3273469267743198,-1.1843963575189302
10.000999999999896,-0.28297643270067807,-1.1148241566441823
10.200999999999786,-0.2152259324375732,-1.049098266659914
10.400999999999675,-0.1471820321504375,-0.9872936783766608
10.600999999999564,-0.07277120802317484,-0.9321565204324961
10.800999999999453,0.006928808370156509,-0.8823826336092084
11.000999999999342,0.08910243928633316,-0.8477472535643155
11.200999999999231,0.17009349784685085,-0.8328998979867629
11.40099999999912,0.24883482948134797,-0.8513231083584935
11.60099999999901,0.3127076038889749,-0.9036109337919291
11.800999999998899,0.3543573939331544,-0.9766286143875526
12.000999999998788,0.387327664870156,-1.0535366061634237
12.200999999998677,0.41665093159701055,-1.1311246264219494
12.400999999998566,0.45267857977178594,-1.2036121228254741
12.600999999998455,0.4750396952788987,-1.2702092153091606
12.800999999998345,0.482533181755524,-1.3448220430721425
13.000999999998234,0.47512149123700104,-1.4238978921152645
13.200999999998123,0.43246672499378713,-1.504668235645668
13.400999999998012,0.3871399884260958,-1.5754644286183888
13.600999999997901,0.33041888413605014,-1.6282104672665163
13.80099999999779,0.26809054082577216,-1.6478169461840104
14.00099999999768,0.19531938746126598,-1.6414385289870554
14.200999999997569,0.1483431298537055,-1.5958342074830656
14.400999999997458,0.13539418819250476,-1.5369152276308329
14.600999999997347,0.17332906877745222,-1.4784660559803497
14.800999999997236,0.2447160532911294,-1.4377348041734166
15.000999999997125,0.3200632671278237,-1.4025471389698456
15.200999999997014,0.3942802708105714,-1.3818816888506988
15.400999999996904,0.473965683051128,-1.392636656744944
15.600999999996793,0.5452581622663093,-1.4453469256261378
15.800999999996682,0.5950176707174776,-1.5102850510410906
16.000999999996573,0.5835183979016512,-1.5704510562527667
16.200999999996817,0.5458608838489442,-1.6292010639619565
16.40099999999706,0.4911452959742561,-1.678433353670983
16.600999999997306,0.4308717660623189,-1.704833881546115
16.80099999999755,0.36511857477859166,-1.6956308022008675
17.000999999997795,0.30277139880430787,-1.6643470909308375
17.20099999999804,0.27592192691025896,-1.6077271018132104
17.400999999998284,0.2904870559153893,-1.5427995170021416
17.60099999999853,0.3176668512848609,-1.4756357253900885
17.800999999998773,0.3524703386587496,-1.4197354702973186
18.000999999999017,0.409849627954285,-1.3823043987509058
18.20099999999926,0.4770953375348284,-1.353314460149359
18.400999999999506,0.5456628474402231,-1.3474752860885164
18.60099999999975,0.6109067764821143,-1.3614983520598165
18.799999999999994,0.6431210997123161,-1.3926736745105306
19.000000000000238,0.6259101440995647,-1.4317227001722954
19.200000000000482,0.5897659199830936,-1.4713244766280984
19.400000000000727,0.5439865207811756,-1.5084905786211331
19.60000000000097,0.4855943061785407,-1.5275263428194061
19.800000000001216,0.42174664497219155,-1.528505126666526
20.00000000000146,0.35362558181876197,-1.511647409642056
