Time (s),X (m),Y (m)
0.001,0.0007356649194092869,-0.0008930179339548115
0.20000000000000015,-0.0008288103443957837,0.002326969111239068
0.4000000000000003,0.0062593802670690936,0.0006377709872933614
0.6000000000000004,0.02208193640105254,7.124115919216686e-05
0.8000000000000006,0.04936313943457276,-0.008915657015887998
1.0000000000000007,0.08726326776784031,-0.030317885385134562
1.2009999999999785,0.12470438783488687,-0.07456081821920314
1.4009999999999565,0.16369055876942074,-0.13359006220847727
1.6009999999999345,0.19176131808331667,-0.20771950730233812
1.8009999999999124,0.22349796547387035,-0.271871710149457
2.0009999999998906,0.24152679205809668,-0.31794485786641724
2.2009999999998686,0.25957899011607705,-0.36092798968094325
2.4009999999998466,0.2713355223080446,-0.40522574307086723
2.6009999999998246,0.24864725271572932,-0.4532043298286831
2.8009999999998025,0.19588323169617508,-0.5043195791352927
3.0009999999997805,0.12887504254021107,-0.5491951164712718
3.2009999999997585,0.06080237333309343,-0.5710962656300088
3.4009999999997365,-0.00906397035193112,-0.5572365718190672
3.6009999999997144,-0.07564305005796651,-0.5281010929494657
3.8009999999996924,-0.1336671744479686,-0.49506999893518394
4.000999999999671,-0.16818881023451343,-0.45536061122009386
4.200999999999738,-0.17334001844655383,-0.41202004724569474
4.400999999999804,-0.17238743070633158,-0.36168330758735817
4.600999999999871,-0.1705732616843103,-0.30771431427008317
4.800999999999938,-0.16038091082757888,-0.25292292458172366
5.000000000000004,-0.13347378349097277,-0.19938146404496554
5.200000000000071,-0.09605721898624701,-0.15382199168223024
5.400000000000138,-0.05030746226575272,-0.13113714850747463
5.600000000000205,0.0040410575858319114,-0.14815655495038124
5.800000000000272,0.048778947851731744,-0.18331152888393834
6.000000000000338,0.0897818610859377,-0.23049712358425634
6.200000000000405,0.11893009495187319,-0.28587416187716175
6.400000000000472,0.1438682146331973,-0.35022201189416924
6.600000000000539,0.16328853355778072,-0.4064495250828909
6.800000000000606,0.16200670584425048,-0.46673871432613157
7.000000000000672,0.14695303796182002,-0.5360670866264171
7.200000000000739,0.13129078574404193,-0.6064834617498198
7.400000000000806,0.11081858370207111,-0.670569129104554
7.600000000000873,0.07768349762085136,-0.725940416650759
7.8000000000009395,0.02513823820092701,-0.7441094427224704
8.000000000001005,-0.03751964881484548,-0.7382798609886861
8.200000000000895,-0.09543684347947382,-0.7064829699967481
8.400000000000784,-0.14083536853689257,-0.652906553166587
8.600000000000673,-0.16275181039558181,-0.5848038700679863
8.800000000000562,-0.18026262608179042,-0.5167721813080857
9.000000000000451,-0.15590453076588914,-0.45071422086013774
9.20000000000034,-0.12832783869825665,-0.3864233780842384
9.40000000000023,-0.08148109525607823,-0.33533494327086716
9.600000000000119,-0.009235735743429771,-0.30377439292092534
9.800000000000008,0.06179723649336979,-0.2784479540427624
10.000999999999896,0.13126682358614944,-0.2887285842450407
10.200999999999786,0.2026340608733974,-0.30280309986078957
10.400999999999675,0.2793020262099748,-0.32106698953072405
10.600999999999564,0.35393333162075913,-0.3729465556742644
10.800999999999453,0.4199145755290698,-0.4311638696560603
11.000999999999342,0.46023881985135573,-0.48732477628893645
11.200999999999231,0.4566424461101197,-0.5443619258022344
11.40099999999912,0.4199990609365158,-0.5926214159756623
11.60099999999901,0.3669979029959227,-0.627874073042841
11.800999999998899,0.3035130281308838,-0.6469713004220315
12.000999999998788,0.2349479425621446,-0.6427703772660579
12.200999999998677,0.16704906697210642,-0.6238530612957909
12.400999999998566,0.1110217354702669,-0.5708379293082438
12.600999999998455,0.06831168215933409,-0.502084294946566
12.800999999998345,0.0584562742224524,-0.4242276608933714
13.000999999998234,0.08372211570093155,-0.34699536426450506
13.200999999998123,0.11987406747290287,-0.2800135842216883
13.400999999998012,0.17554902144965925,-0.2292084132848752
13.600999999997901,0.23882905314570313,-0.20014302909801895
13.80099999999779,0.302588475286143,-0.1898844564883124
14.00099999999768,0.3656201561546745,-0.19380247597190642
14.200999999997569,0.4264645550135787,-0.21012930298367805
14.400999999997458,0.47152926964319314,-0.2500464071160778
14.600999999997347,0.5050047805464868,-0.3034577093533178
14.800999999997236,0.5331626331382237,-0.358329285951212
15.000999999997125,0.516490805020289,-0.4149734564427367
15.200999999997014,0.4836956329736843,-0.46603219156543463
15.400999999996904,0.42998010829826294,-0.502066041121027
15.600999999996793,0.3543261239711492,-0.5251307704063959
15.800999999996682,0.2732296890670538,-0.5404378200572821
16.000999999996573,0.1957061256173959,-0.5462006519638518
16.200999999996817,0.12246475996988541,-0.5120145817879626
16.40099999999706,0.06586024816236515,-0.45119027952072893
16.600999999997306,0.03811971733059569,-0.38116523842535033
16.80099999999755,0.028420264035805266,-0.3052934182706824
17.000999999997795,0.027991275832032803,-0.22819263701934325
17.20099999999804,0.056019658189236134,-0.16321665356783435
17.400999999998284,0.0930843073793659,-0.12779995476140893
17.60099999999853,0.13557651040920796,-0.14535857245016642
17.800999999998773,0.17543606875301238,-0.1923028178325589
18.000999999999017,0.21083359434004312,-0.24965261628317367
18.20099999999926,0.217542930924698,-0.30512939895949254
18.400999999999506,0.1993416125898458,-0.36640581815526607
18.60099999999975,0.17802849063454654,-0.42965851093811197
18.799999999999994,0.14013644272113143,-0.48299316984830987
19.000000000000238,0.09235238885603456,-0.525417679539521
19.200000000000482,0.03614971297258021,-0.557433275333757
19.400000000000727,-0.018232823230313524,-0.5926743736932998
19.60000000000097,-0.06986379922844983,-0.6350440087175258
19.800000000001216,-0.12231845019474279,-0.6416190274199749
20.00000000000146,-0.17546304415728756,-0.6116322286924407
