Time (s),X (m),Y (m)
0.001,0.0011130987088041246,-0.000515584144559974
0.20000000000000015,0.0006105359561148208,0.001142346534259827
0.4000000000000003,0.0020778005444903984,0.01022555463179964
0.6000000000000004,0.01572555140871531,0.02045147683197052
0.8000000000000006,0.041243931749239564,0.027982466138837515
1.0000000000000007,0.07996291524371288,0.020677485302406057
1.2009999999999785,0.1197351518967523,0.014406372534471006
1.4009999999999565,0.15566279938576622,0.005317888369911201
1.6009999999999345,0.18851035714989375,0.009222615847364068
1.8009999999999124,0.21636216457161864,-0.016099088617364338
2.0009999999998906,0.23966977352377838,-0.0647890173178888
2.2009999999998686,0.25138081022107506,-0.12893101944523683
2.4009999999998466,0.2432601590165822,-0.1988074227555923
2.6009999999998246,0.21801222540806134,-0.2696150710961056
2.8009999999998025,0.1853502720794377,-0.3287215390945662
3.0009999999997805,0.15021746156288132,-0.37237197878280726
3.2009999999997585,0.11195401533535637,-0.4009211824735214
3.4009999999997365,0.06527952494091656,-0.39447092234174813
3.6009999999997144,0.01173353767492754,-0.37397003505026916
3.8009999999996924,-0.03658703377987543,-0.34754452297231914
4.000999999999671,-0.06095691403710474,-0.31384227610728066
4.200999999999738,-0.06990395345990914,-0.2728116187424558
4.400999999999804,-0.06414731134040931,-0.22883244114167692
4.600999999999871,-0.021444706955501228,-0.19833393951365544
4.800999999999938,0.026770145863472733,-0.18781308615016984
5.000000000000004,0.06499325273048147,-0.21574123502093567
5.200000000000071,0.08107190228893754,-0.2638782957127295
5.400000000000138,0.07609512133360466,-0.31465818653873734
5.600000000000205,0.062233814968595515,-0.3635014789852634
5.800000000000272,0.03592248393897524,-0.4066323907551424
6.000000000000338,0.011565813531840163,-0.45951623014449344
6.200000000000405,-0.010402197161751168,-0.5142117028527813
6.400000000000472,-0.0408184085738176,-0.5612414014240273
6.600000000000539,-0.08376267862889769,-0.5940128630942554
6.800000000000606,-0.14177215867544948,-0.6056465968679452
7.000000000000672,-0.2098683569456772,-0.594122423739768
7.200000000000739,-0.28071579164906546,-0.5680388584089546
7.400000000000806,-0.3461020677328533,-0.5269176502776888
7.600000000000873,-0.3924622048801741,-0.4767047095857665
7.8000000000009395,-0.42126306194883983,-0.4172440451931729
8.000000000001005,-0.4369697513316472,-0.36198067520633953
8.200000000000895,-0.4422992396773937,-0.31125714649275094
8.400000000000784,-0.4323143369950475,-0.24458656365431297
8.600000000000673,-0.4165069950079265,-0.17521646992201506
8.800000000000562,-0.3799861169974122,-0.12039660832479096
9.000000000000451,-0.33037292736616136,-0.09739773252237378
9.20000000000034,-0.28046447397989366,-0.0985073199830226
9.40000000000023,-0.24082897548749338,-0.12532152829401114
9.600000000000119,-0.23417600901935792,-0.17883961832051676
9.800000000000008,-0.23719796333909088,-0.23387279872418357
10.000999999999896,-0.2586062654935851,-0.26821253602993145
10.200999999999786,-0.28812546410276546,-0.28350126852357244
10.400999999999675,-0.32855059892470057,-0.27423482021312895
10.600999999999564,-0.37101287179880704,-0.2542905498721744
10.800999999999453,-0.4029467124628475,-0.21449091449154095
11.000999999999342,-0.4107600566501587,-0.18137586904300682
11.200999999999231,-0.4043241329614104,-0.12993368008566905
11.40099999999912,-0.3861553377893521,-0.06879926097627906
11.60099999999901,-0.36408043226425646,-0.008840388215603881
11.800999999998899,-0.33174055029894967,0.04257927819333638
12.000999999998788,-0.29412080090437154,0.07802087373861831
12.200999999998677,-0.24119843229718615,0.09134123463768003
12.400999999998566,-0.18170044548390787,0.08878537144109674
12.600999999998455,-0.11647820545684562,0.06543228167275816
12.800999999998345,-0.05975181641834444,0.0323877457246827
13.000999999998234,-0.027704501818126046,-0.018038108370946927
13.200999999998123,-0.020320508050362656,-0.06903608158698392
13.400999999998012,-0.03395795342380931,-0.12303778936610082
13.600999999997901,-0.07465923613993987,-0.1608133298907437
13.80099999999779,-0.1309054341462158,-0.1748341502219932
14.00099999999768,-0.179532086145034,-0.17789533349792794
14.200999999997569,-0.22983469854640814,-0.15970863542947905
14.400999999997458,-0.2808541067184338,-0.1350192510819877
14.600999999997347,-0.3123699185167746,-0.08866254763557072
14.800999999997236,-0.3181307341766091,-0.026345262008036056
15.000999999997125,-0.31373354474803816,0.0469106541364968
15.200999999997014,-0.30012774817964694,0.12255570064713044
15.400999999996904,-0.27908827863810426,0.20237928220511733
15.600999999996793,-0.2627125570290945,0.27733297172740595
15.800999999996682,-0.24041923378345298,0.3352875800895557
16.000999999996573,-0.19391730279787875,0.35988887484040316
16.200999999996817,-0.14494920307023762,0.36346892212140675
16.40099999999706,-0.09002451741100802,0.35773806764034144
16.600999999997306,-0.0413451219348679,0.3202988690692294
16.80099999999755,-0.009511353214215661,0.2686180039212265
17.000999999997795,-0.0005773625498325433,0.2041747799094502
17.20099999999804,-0.013343506306358416,0.13201749204625693
17.400999999998284,-0.032837484663624954,0.05837943472893355
17.60099999999853,-0.06888628655249979,0.006237548014341569
17.800999999998773,-0.10523153139664194,-0.028094015929810277
18.000999999999017,-0.15418724865151584,-0.04181335896723574
18.20099999999926,-0.20421375195407945,-0.044141150281712276
18.400999999999506,-0.2545002993509321,-0.03712141469425522
18.60099999999975,-0.31068705865072765,-0.00789360901477908
18.799999999999994,-0.3563742279629513,0.035052119729719125
19.000000000000238,-0.37268765964256273,0.09039634681795455
19.200000000000482,-0.3579021921643228,0.15453059853433812
19.400000000000727,-0.3319410551175784,0.2189734699699371
19.60000000000097,-0.2984979733505427,0.282505728967793
19.800000000001216,-0.26578324897227695,0.3319642432974058
20.00000000000146,-0.22106284502203075,0.3638953169585411
