Time (s),X (m),Y (m)
0.001,0.0008829029745972832,-0.0007899207378008392
0.20000000000000015,-0.0020546076068871885,0.0046154552984171955
0.4000000000000003,0.006540443586159401,0.020347459602499965
0.6000000000000004,0.0317630092410657,0.023286632512102445
0.8000000000000006,0.06494677646003652,0.008852841965515182
1.0000000000000007,0.09969275770217327,0.0008228212009462648
1.2009999999999785,0.10620141178083477,-0.028058682562396044
1.4009999999999565,0.08575551082001995,-0.07593470772765673
1.6009999999999345,0.05431273864757897,-0.13220932799406224
1.8009999999999124,0.010019060200430968,-0.18049960169022877
2.0009999999998906,-0.03734245871055592,-0.2150275443938488
2.2009999999998686,-0.08537689030029008,-0.24193075065856443
2.4009999999998466,-0.13986840629362304,-0.25867937345297093
2.6009999999998246,-0.19328687222637558,-0.2722688432531231
2.8009999999998025,-0.24521761162650937,-0.27180567975954806
3.0009999999997805,-0.2896271396220191,-0.25597079708912435
3.2009999999997585,-0.316419678348439,-0.22298813944888177
3.4009999999997365,-0.30816132137901137,-0.1802443160034366
3.6009999999997144,-0.28684768978385183,-0.13524676550643125
3.8009999999996924,-0.2601144676868434,-0.1012631037637502
4.000999999999671,-0.22609753358668733,-0.09104096653288145
4.200999999999738,-0.18187457648882718,-0.1031296113235663
4.400999999999804,-0.13732383520144748,-0.1321146827187074
4.600999999999871,-0.10053874385118357,-0.1845576662813174
4.800999999999938,-0.07818161743147413,-0.25332902192244655
5.000000000000004,-0.05907293747900369,-0.31844398629524867
5.200000000000071,-0.06633481371549334,-0.3978115709803126
5.400000000000138,-0.08626841992567857,-0.4781293963180615
5.600000000000205,-0.12072895576430628,-0.535563853418927
5.800000000000272,-0.16468607502929603,-0.5629294900660713
6.000000000000338,-0.2146078297856998,-0.5609231331182928
6.200000000000405,-0.2599443062945531,-0.5406682284114682
6.400000000000472,-0.3051093829911999,-0.5155109489964345
6.600000000000539,-0.33111408929848424,-0.4821809908315331
6.800000000000606,-0.3337804961681788,-0.44683065117816223
7.000000000000672,-0.31388917586810866,-0.41962578833245606
7.200000000000739,-0.2860508104454788,-0.4119734646663033
7.400000000000806,-0.26148539048629504,-0.43371643269112903
7.600000000000873,-0.24187259875792838,-0.4788970471024526
7.8000000000009395,-0.2220379840383214,-0.531643493280595
8.000000000001005,-0.21370289760402042,-0.5840609035729333
8.200000000000895,-0.23081926710975964,-0.6363300920261594
8.400000000000784,-0.27339776399564586,-0.6906694304657335
8.600000000000673,-0.32501513373754376,-0.7364730833311373
8.800000000000562,-0.38662361808919266,-0.7546553719891136
9.000000000000451,-0.4524530403720687,-0.7583085199964291
9.20000000000034,-0.5149920970133596,-0.7458843462042629
9.40000000000023,-0.5567286410904392,-0.7208376972045683
9.600000000000119,-0.5740232735728754,-0.6859167419988504
9.800000000000008,-0.5732803559792349,-0.6482878063112072
10.000999999999896,-0.5543037740903676,-0.6140303286921541
10.200999999999786,-0.515736904015618,-0.5930641434351988
10.400999999999675,-0.469996747782756,-0.5953616359518694
10.600999999999564,-0.43158087811697915,-0.6340175280796266
10.800999999999453,-0.4182204486997557,-0.694500217007962
11.000999999999342,-0.4253301636569272,-0.756282703931314
11.200999999999231,-0.4538878742632712,-0.813471020518332
11.40099999999912,-0.4921418126555949,-0.8611453513965129
11.60099999999901,-0.5456822103833889,-0.89239417690199
11.800999999998899,-0.6033795704964766,-0.9026848224256917
12.000999999998788,-0.660649964597118,-0.8966003931425907
12.200999999998677,-0.7064367266054825,-0.8742713501300369
12.400999999998566,-0.7490419147561297,-0.8436579112994872
12.600999999998455,-0.7884528677597354,-0.8045447100785571
12.800999999998345,-0.8111145184374937,-0.7599927598547236
13.000999999998234,-0.7997648577012884,-0.7129254958169765
13.200999999998123,-0.7662822902774588,-0.6752615844659253
13.400999999998012,-0.7189382963575701,-0.656892844715747
13.600999999997901,-0.6724214818840981,-0.6691826319628414
13.80099999999779,-0.6278079088507363,-0.6937494549742758
14.00099999999768,-0.5944049385848955,-0.7406408597971206
14.200999999997569,-0.5679671216320744,-0.7953642936976807
14.400999999997458,-0.5570676487886916,-0.8547359325785292
14.600999999997347,-0.5502885993314209,-0.913935813036994
14.800999999997236,-0.5664736918217754,-0.9651445741062025
15.000999999997125,-0.6077970352717351,-0.9976480284428366
15.200999999997014,-0.6651161360099157,-1.0120774485759523
15.400999999996904,-0.7338457404206821,-1.0132425591472511
15.600999999996793,-0.803426896698485,-1.002300011211362
15.800999999996682,-0.8627591592660906,-0.9820792132863179
16.000999999996573,-0.9024373236391457,-0.9471580339431406
16.200999999996817,-0.9288295759598343,-0.896863324867702
16.40099999999706,-0.9406955485982325,-0.8368777993337658
16.600999999997306,-0.9372480137023365,-0.7757600940331325
16.80099999999755,-0.9120517643879585,-0.7350963966095865
17.000999999997795,-0.8765461255795879,-0.7467680243635987
17.20099999999804,-0.8387868185333245,-0.7824812590544491
17.400999999998284,-0.8007138472791674,-0.8244074378741839
17.60099999999853,-0.7688372028106648,-0.8756136084088145
17.800999999998773,-0.7604904802267333,-0.9304198641490685
18.000999999999017,-0.7742672690731447,-0.9819069969248216
18.20099999999926,-0.8031846131990058,-1.028671151336084
18.400999999999506,-0.8542235721132106,-1.063397792864202
18.60099999999975,-0.9133110231056124,-1.090096232919984
18.799999999999994,-0.9732269827997055,-1.104408396739252
19.000000000000238,-1.0359208986121564,-1.098458520402733
19.200000000000482,-1.0894534860217442,-1.0660729675038794
19.400000000000727,-1.1289510353574592,-1.019526942446808
19.60000000000097,-1.1573211147910458,-0.966960209641969
19.800000000001216,-1.1749566968722003,-0.8989254181105195
20.00000000000146,-1.1906434944334752,-0.831162941540331
