Time (s),X (m),Y (m)
0.001,0.0007356649194092869,-0.0008930179339548115
0.20000000000000015,0.0006986426812266207,0.0027484629916546565
0.4000000000000003,0.002772788036525509,0.004855480205357491
0.6000000000000004,0.014236477205364952,-0.0035571836327888086
0.8000000000000006,0.025509552943461737,-0.012132252981291388
1.0000000000000007,0.03972812507919832,-0.014281709530526692
1.2009999999999785,0.05387850041531273,-0.024674004821963445
1.4009999999999565,0.06480413745572923,-0.020354263266085457
1.6009999999999345,0.07616915240973061,-0.026980235556182345
1.8009999999999124,0.08521667897582468,-0.03781673605905894
2.0009999999998906,0.091625605627532,-0.050420246788023856
2.2009999999998686,0.10115008847024322,-0.061453916815556855
2.4009999999998466,0.11811153985830855,-0.06239503858934233
2.6009999999998246,0.13640958332287256,-0.05559185730384278
2.8009999999998025,0.15410834439089505,-0.055383186464506406
3.0009999999997805,0.17409243006507805,-0.05210944603490517
3.2009999999997585,0.19623682900894565,-0.05339514398934692
3.4009999999997365,0.21142216450308662,-0.04919717436106715
3.6009999999997144,0.216907297487096,-0.07533590360236703
3.8009999999996924,0.2245647632159918,-0.08289287828958307
4.000999999999671,0.23497696026008083,-0.0949148434436487
4.200999999999738,0.24743480232158369,-0.10916308681656116
4.400999999999804,0.259162978100352,-0.1259328392099867
4.600999999999871,0.2759323057137199,-0.13165831119222515
4.800999999999938,0.2947469858809139,-0.15010772162204955
5.000000000000004,0.31026835646269674,-0.16886428519844476
5.200000000000071,0.32447837763637327,-0.1767127298033594
5.400000000000138,0.3339002166750201,-0.19132466630732686
5.600000000000205,0.3354924241070629,-0.20995234246762168
5.800000000000272,0.34265474491559966,-0.22120933397834883
6.000000000000338,0.35564621989767103,-0.23923414399630663
6.200000000000405,0.3645183447957752,-0.2652117949786385
6.400000000000472,0.3729774686406314,-0.28997790468572
6.600000000000539,0.38443015846127426,-0.3084836502606883
6.800000000000606,0.3972885885300309,-0.316192711164512
7.000000000000672,0.4170432680715852,-0.32140794915417564
7.200000000000739,0.4292964547854838,-0.33098474638248615
7.400000000000806,0.44290747848371737,-0.3508344239966309
7.600000000000873,0.45241808425951063,-0.3625233129286343
7.8000000000009395,0.46522926773278717,-0.3736912584023683
8.000000000001005,0.4809157042981115,-0.38615310064370006
8.200000000000895,0.49248298427321474,-0.3960196944848983
8.400000000000784,0.5068570887460295,-0.4127700282931873
8.600000000000673,0.513980100271008,-0.42577776756215857
8.800000000000562,0.5208664441161351,-0.4300905268913131
9.000000000000451,0.5296449502207353,-0.44510609230131615
9.20000000000034,0.5426238803770908,-0.4666363348795374
9.40000000000023,0.5568650288014403,-0.4721238111906909
9.600000000000119,0.5767339169898815,-0.48618949488076746
9.800000000000008,0.5853942538711796,-0.5124387640285176
10.000999999999896,0.60452002181801,-0.5296777798661053
10.200999999999786,0.6216220823307863,-0.5403960022907877
10.400999999999675,0.6393372494961357,-0.5576732545294733
10.600999999999564,0.6498378333190482,-0.5764108409782686
10.800999999999453,0.663777428968411,-0.6013613462570019
11.000999999999342,0.6726647845004236,-0.6158605712407947
11.200999999999231,0.6893768676094527,-0.6259332964697575
11.40099999999912,0.7081547907654816,-0.6351504780713088
11.60099999999901,0.7179519243170283,-0.6466044272611062
11.800999999998899,0.7337015739742757,-0.6653706456666351
12.000999999998788,0.7450937896101276,-0.6832722141705504
12.200999999998677,0.7585871989558389,-0.7021335327217919
12.400999999998566,0.7769983477847083,-0.7136068586156766
12.600999999998455,0.7902858422022817,-0.7315249842322382
12.800999999998345,0.7998915429451255,-0.7473235945323956
13.000999999998234,0.808703122198463,-0.7611753228292227
13.200999999998123,0.8182210046872199,-0.7781990728356486
13.400999999998012,0.8242904548680882,-0.7956328126406859
13.600999999997901,0.8424103659988511,-0.8071754446749714
13.80099999999779,0.8459800860609175,-0.8227334986436838
14.00099999999768,0.8446122884980636,-0.8439692330062768
14.200999999997569,0.8490262938604369,-0.8623651230543166
14.400999999997458,0.8508639388037967,-0.8827257944836361
14.600999999997347,0.8541679787349803,-0.9056687821921766
14.800999999997236,0.8542268490770527,-0.9270453242775616
15.000999999997125,0.8491900893336485,-0.9485747783319587
15.200999999997014,0.8416168090713777,-0.9693426252665519
15.400999999996904,0.8377579484001105,-0.9932875828369985
15.600999999996793,0.8397931425896185,-1.0163375208344865
15.800999999996682,0.8320734886012175,-1.0382910138673078
16.000999999996573,0.8286278565865477,-1.0620310363540055
16.200999999996817,0.8126777929506082,-1.0844933045901999
16.40099999999706,0.8106899414006313,-1.107080919513593
16.600999999997306,0.8094400708506024,-1.1285295254766132
16.80099999999755,0.7975751043631366,-1.1489373558032356
17.000999999997795,0.782702502271513,-1.1633685940202345
17.20099999999804,0.7688236125547495,-1.1760935767628242
17.400999999998284,0.7596810544333724,-1.1968243165657513
17.60099999999853,0.7470328235581695,-1.218303369295647
17.800999999998773,0.743819132715788,-1.2352888274467984
18.000999999999017,0.7319105390540771,-1.2534812265065771
18.20099999999926,0.7198809689032124,-1.2676204484037745
18.400999999999506,0.710949509687196,-1.287634018989167
18.60099999999975,0.7005259749344965,-1.3082983125718324
18.799999999999994,0.6831472909604126,-1.3227320502437716
19.000000000000238,0.661700398633963,-1.3358095069992324
19.200000000000482,0.6384606835477177,-1.3507140534135829
19.400000000000727,0.6186255397635366,-1.3594940456113573
19.60000000000097,0.6002839779031108,-1.3731344456821455
19.800000000001216,0.5942571645081346,-1.391574588378906
20.00000000000146,0.5798545315063701,-1.409788698797945
