Time (s),X (m),Y (m)
0.001,-0.000795421750936344,0.00017906049427360518
0.20000000000000015,0.004918765943014276,-0.0009241021931438714
0.4000000000000003,0.011014554545797398,-0.001464315665000316
0.6000000000000004,0.015741121135768397,-0.0021602836252412427
0.8000000000000006,0.023068718660047602,-0.004738455780950712
1.0000000000000007,0.02708806163335324,-0.0052540654160553564
1.2009999999999785,0.03314710023304292,-0.006448816102917644
1.4009999999999565,0.03978804910770169,-0.007612064464263563
1.6009999999999345,0.04505612114617823,-0.007077114186154796
1.8009999999999124,0.045387996970137776,-0.004411057817136765
2.0009999999998906,0.04342715905183088,-0.002136340865349415
2.2009999999998686,0.040590405706954956,-0.0008538932072819437
2.4009999999998466,0.03973708279168374,0.0015940854601982858
2.6009999999998246,0.04079689061366435,0.00426346132538959
2.8009999999998025,0.04227069507589547,0.007014093811623904
3.0009999999997805,0.04317339269111853,0.009746318254336361
3.2009999999997585,0.04435073353447123,0.01225970001474631
3.4009999999997365,0.044221633904427564,0.014079788696434127
3.6009999999997144,0.044144858574569505,0.015785445839694875
3.8009999999996924,0.04422275486364247,0.018160924192519974
4.000999999999671,0.04466474601285345,0.02073733955818254
4.200999999999738,0.045113556852610676,0.023221934470284162
4.400999999999804,0.04521588243243634,0.025761333485374262
4.600999999999871,0.04570340241525332,0.028844351192432383
4.800999999999938,0.04706540905573576,0.031178838049530942
5.000000000000004,0.048068927210720314,0.03355927742280206
5.200000000000071,0.049584763922760434,0.03607404105491435
5.400000000000138,0.051041104423029844,0.03855555229300818
5.600000000000205,0.05214636273102498,0.041202133966254294
5.800000000000272,0.05288626089850839,0.04404922439445656
6.000000000000338,0.054386499535612275,0.04738941767811396
6.200000000000405,0.05691556845072056,0.05017812260401799
6.400000000000472,0.05881407168207579,0.053770557503245615
6.600000000000539,0.06018247153803245,0.05739310660677464
6.800000000000606,0.06151458016592365,0.06118899284633096
7.000000000000672,0.06336183967595381,0.06445780190311359
7.200000000000739,0.0640032016898819,0.0680064038849105
7.400000000000806,0.06462113138361925,0.07140512554545693
7.600000000000873,0.06539275662182374,0.07465223834378915
7.8000000000009395,0.06591113132634971,0.07807464873612908
8.000000000001005,0.06628611679245702,0.08132885090363781
8.200000000000895,0.0670779872395222,0.08441842292389859
8.400000000000784,0.06767008711307756,0.08740752489989792
8.600000000000673,0.06904202572696534,0.09073049140701171
8.800000000000562,0.07022567619188803,0.09398436149871399
9.000000000000451,0.07117694559072604,0.09704875194729502
9.20000000000034,0.07229192431735584,0.10031765136149687
9.40000000000023,0.0732599275400741,0.10383748370133648
9.600000000000119,0.07424401522221828,0.10698144969487215
9.800000000000008,0.07499390214878057,0.11043233926874337
10.000999999999896,0.07646452905583859,0.11380282422355445
10.200999999999786,0.07758499607812255,0.11683298965035073
10.400999999999675,0.07867491405340973,0.12017796766928049
10.600999999999564,0.0802411808577489,0.12366502966583676
10.800999999999453,0.08160336692494084,0.12683532944722503
11.000999999999342,0.08266594440381118,0.13011302136939987
11.200999999999231,0.08458876626078646,0.13394706846250018
11.40099999999912,0.08570107323719717,0.13734726907289183
11.60099999999901,0.08735014323633328,0.14122737993106785
11.800999999998899,0.08895987605947323,0.14471910376429403
12.000999999998788,0.0908992878993851,0.14761905582606838
12.200999999998677,0.09174736463323366,0.15122712875556704
12.400999999998566,0.09346938471006419,0.15504432296069134
12.600999999998455,0.09483751994282502,0.1587275676714986
12.800999999998345,0.09680549760295082,0.1629013565136649
13.000999999998234,0.0987183378650472,0.16712642393750124
13.200999999998123,0.10006026760321474,0.17074852693585765
13.400999999998012,0.10188962230726105,0.17475695977953287
13.600999999997901,0.10385959945512634,0.17896672365522925
13.80099999999779,0.10572381321682789,0.18290306847253868
14.00099999999768,0.1075584509255691,0.18682129939068703
14.200999999997569,0.10976457246275335,0.1911003758778071
14.400999999997458,0.11116821753248499,0.19558020209954255
14.600999999997347,0.11245244208064706,0.19959250817740146
14.800999999997236,0.11408227977110609,0.20336178604649627
15.000999999997125,0.11590137907217658,0.20745771950224703
15.200999999997014,0.11806817973214712,0.21179060012989026
15.400999999996904,0.12029976341352493,0.21613095455766476
15.600999999996793,0.12217442850420956,0.22063363319951032
15.800999999996682,0.12376068636046447,0.22501039203710385
16.000999999996573,0.12579090746346613,0.2296326657108929
16.200999999996817,0.12740199135342437,0.23444092884470633
16.40099999999706,0.1289674315453775,0.239205624317752
16.600999999997306,0.1304835753696604,0.2440161222493093
16.80099999999755,0.1318424339810407,0.24866498155011185
17.000999999997795,0.1332021757097032,0.2532803560727181
17.20099999999804,0.13428443607658647,0.25778562617847284
17.400999999998284,0.1353774423174394,0.26217428696379863
17.60099999999853,0.1374326518096708,0.2668613978476864
17.800999999998773,0.13950632309294342,0.27160696606706475
18.000999999999017,0.14166628134380913,0.27642938635420616
18.20099999999926,0.14321469307927476,0.28101215571801563
18.400999999999506,0.14458375032807771,0.2856522363752063
18.60099999999975,0.14614647823763624,0.2905973351608132
18.799999999999994,0.14769731227019503,0.29541369163648845
19.000000000000238,0.14896535854746368,0.30010111918196847
19.200000000000482,0.1500672664897078,0.3046065477964336
19.400000000000727,0.1514178847019652,0.3092696040980623
19.60000000000097,0.15341107425843387,0.31440992829030767
19.800000000001216,0.15466960033473773,0.31922024969375573
20.00000000000146,0.15615937782080005,0.3242575034323226
