Time (s),X (m),Y (m)
0.001,-0.00013259955118837574,-0.0009689812320744441
0.20000000000000015,0.004240588745862043,0.0037923685829240232
0.4000000000000003,0.010978642471918484,0.007708709693324891
0.6000000000000004,0.035272471530497125,0.018309826447442376
0.8000000000000006,0.06741217668530787,0.018357704718671458
1.0000000000000007,0.1024511487220475,0.012959868374561485
1.2009999999999785,0.12850972266894706,-0.0037429521923412756
1.4009999999999565,0.13582422910482264,-0.03278626632366837
1.6009999999999345,0.1525100842300232,-0.07548417551301366
1.8009999999999124,0.15527219420619415,-0.11541109281735051
2.0009999999998906,0.15790328031854284,-0.15564868261283948
2.2009999999998686,0.15947308665984883,-0.1973374364394008
2.4009999999998466,0.1463386590977292,-0.23794641690462454
2.6009999999998246,0.12564538409324816,-0.2647191460564906
2.8009999999998025,0.09893785145641043,-0.29934629253908157
3.0009999999997805,0.07947343431694519,-0.3370918454594757
3.2009999999997585,0.055395958115473404,-0.36818342503009716
3.4009999999997365,0.0210446272426871,-0.39690880130608147
3.6009999999997144,-0.019740637692096663,-0.42843572516075445
3.8009999999996924,-0.07065837948652272,-0.4585792793745831
4.000999999999671,-0.12461112127427296,-0.47915200470547115
4.200999999999738,-0.18581495060359457,-0.49930834226628895
4.400999999999804,-0.2481414365513353,-0.5242952081878427
4.600999999999871,-0.3072447914638825,-0.554537598173733
4.800999999999938,-0.3634627194760523,-0.5763614834089095
5.000000000000004,-0.42594092820860585,-0.5869248322288163
5.200000000000071,-0.4646928873440581,-0.569896084491245
5.400000000000138,-0.49745625759895123,-0.5312368553769261
5.600000000000205,-0.5351423941446302,-0.47359276329599215
5.800000000000272,-0.5777956787858268,-0.40620505166710486
6.000000000000338,-0.6040628522863775,-0.3434945384187583
6.200000000000405,-0.618774487203469,-0.2857819407267819
6.400000000000472,-0.6275482473414673,-0.22041624468810891
6.600000000000539,-0.6334177868588373,-0.15290107005514084
6.800000000000606,-0.6279176146890657,-0.09106273079488354
7.000000000000672,-0.5978921593256786,-0.05779164375630947
7.200000000000739,-0.5547900057327042,-0.03329379983632025
7.400000000000806,-0.513894128656498,-0.019553132289302385
7.600000000000873,-0.4643467999394395,-0.01166206799374031
7.8000000000009395,-0.40652492002832014,-0.014586081946959284
8.000000000001005,-0.3376872042888623,-0.019328101592995243
8.200000000000895,-0.25697713929545185,-0.030017245392117597
8.400000000000784,-0.18285350381065646,-0.03642086039280199
8.600000000000673,-0.11453265820869322,-0.051807675620324976
8.800000000000562,-0.06640968309694334,-0.07164708591713559
9.000000000000451,-0.019393010827095082,-0.10541979028608638
9.20000000000034,0.022519614994507473,-0.15055412509194602
9.40000000000023,0.05406719631329143,-0.20363760255395566
9.600000000000119,0.08799251645171466,-0.265846774991931
9.800000000000008,0.11559020393521847,-0.332216064371701
10.000999999999896,0.14244576225828914,-0.39997309981848056
10.200999999999786,0.1668566107538579,-0.46079426668100043
10.400999999999675,0.1781530809093194,-0.5233373960030592
10.600999999999564,0.1953811437881007,-0.5834482067011265
10.800999999999453,0.22979699524801067,-0.6497764123173854
11.000999999999342,0.2743184366613753,-0.7209910051382761
11.200999999999231,0.33090996372650006,-0.785827780456215
11.40099999999912,0.3791844244717838,-0.8505217810625043
11.60099999999901,0.41664842054904483,-0.9175463795765495
11.800999999998899,0.4467871048988875,-0.9827730546327016
12.000999999998788,0.45777182628431967,-1.0328431821227229
12.200999999998677,0.44957652273475424,-1.0762366624057198
12.400999999998566,0.4156060974681836,-1.1044851973904344
12.600999999998455,0.36278072537425277,-1.1281876705509932
12.800999999998345,0.3044160608073027,-1.1452735265759375
13.000999999998234,0.23865669780309157,-1.16596055183283
13.200999999998123,0.16822504915523354,-1.182784528583663
13.400999999998012,0.09416554114851111,-1.191769966881617
13.600999999997901,0.021757936416679426,-1.195901103895658
13.80099999999779,-0.03381307437978391,-1.1914350968683818
14.00099999999768,-0.08603582850209548,-1.172557635230086
14.200999999997569,-0.13981059808183782,-1.1488084134022012
14.400999999997458,-0.17706771893222975,-1.1125435487664483
14.600999999997347,-0.22015144413007667,-1.0641195169820064
14.800999999997236,-0.27421908192105193,-1.0016078862520392
15.000999999997125,-0.3136997633848825,-0.9354568983061163
15.200999999997014,-0.33686572743165777,-0.8642063274276506
15.400999999996904,-0.36502650385571994,-0.7913743237535602
15.600999999996793,-0.3930899437437859,-0.7241492370875626
15.800999999996682,-0.4252087340016906,-0.650760531522713
16.000999999996573,-0.456749039281236,-0.5747578614620359
16.200999999996817,-0.5008095567163684,-0.4908502838055776
16.40099999999706,-0.5322576314318805,-0.41723896884364026
16.600999999997306,-0.5478148410311975,-0.3578024634963336
16.80099999999755,-0.5459909456307671,-0.30092837626618735
17.000999999997795,-0.5339246384640687,-0.24378020403510348
17.20099999999804,-0.5223963849993444,-0.17179490623601223
17.400999999998284,-0.5085698199943822,-0.0878388765068441
17.60099999999853,-0.48689466407226795,-0.019156296605924078
17.800999999998773,-0.4501083091733693,0.03238828119747917
18.000999999999017,-0.3983784458037641,0.0661301450686582
18.20099999999926,-0.34224978215178126,0.08301335446242868
18.400999999999506,-0.27661306795109003,0.09089401896831216
18.60099999999975,-0.21517147228753303,0.09732014127099048
18.799999999999994,-0.15655266457736952,0.0946518637370562
19.000000000000238,-0.097479576215195,0.09167492473487615
19.200000000000482,-0.04406647650756394,0.08801515873739067
19.400000000000727,0.02153704146249292,0.09370893512795006
19.60000000000097,0.10397061561114374,0.1006868627551876
19.800000000001216,0.1865352278840558,0.11074261680474413
20.00000000000146,0.25710409171528886,0.11375743809415378
