Time (s),X (m),Y (m)
0.001,0.0011130987088041246,-0.000515584144559974
0.20000000000000015,-0.0005182357184433801,0.0008549174282021185
0.4000000000000003,0.015656060035249407,-0.0015355908731968454
0.6000000000000004,0.046727087053739125,-0.008160293460317965
0.8000000000000006,0.08634282822458127,-0.013714824346179032
1.0000000000000007,0.12222805160282156,-0.019217116185827526
1.2009999999999785,0.16269232972535036,-0.03614731352014136
1.4009999999999565,0.20000617029372822,-0.051119206579433564
1.6009999999999345,0.23945555962636172,-0.060382305343742844
1.8009999999999124,0.266897226376683,-0.08439033338027926
2.0009999999998906,0.2723783948494081,-0.12101246471697549
2.2009999999998686,0.26914891931143037,-0.15238630672516223
2.4009999999998466,0.26853360449695896,-0.1824178416691755
2.6009999999998246,0.25681327281454197,-0.21731977071964273
2.8009999999998025,0.2348361607721358,-0.24534969733790413
3.0009999999997805,0.19862898575723573,-0.25739708005648904
3.2009999999997585,0.15626701627053602,-0.25403302530813077
3.4009999999997365,0.11859760507221873,-0.22959796732397483
3.6009999999997144,0.10023106550140773,-0.18626099571962473
3.8009999999996924,0.10362891927920415,-0.14058319738435515
4.000999999999671,0.12037469422116827,-0.0888846351231405
4.200999999999738,0.13950397269486647,-0.0512355607991527
4.400999999999804,0.1699284400854701,-0.02735804976144717
4.600999999999871,0.21553888686177167,-0.02613805232308205
4.800999999999938,0.2634879034317365,-0.05037161959399161
5.000000000000004,0.30691889257452215,-0.07846285634678318
5.200000000000071,0.3306909685029536,-0.13221527652196274
5.400000000000138,0.3425532856487299,-0.18356329216502837
5.600000000000205,0.33931201019737167,-0.23388294939294565
5.800000000000272,0.3358922220135514,-0.2856354649709899
6.000000000000338,0.3282776740843035,-0.33584923725636007
6.200000000000405,0.30630112501355083,-0.3701604882567339
6.400000000000472,0.2772170153394193,-0.38571965651992746
6.600000000000539,0.2411308653827895,-0.3974773212685925
6.800000000000606,0.19777113782759054,-0.3867477144986987
7.000000000000672,0.15219792467514223,-0.348213106881678
7.200000000000739,0.11817184769195059,-0.29909104980185675
7.400000000000806,0.11070997088126908,-0.23289949896495893
7.600000000000873,0.13021928333415622,-0.16775641194121255
7.8000000000009395,0.15791300714716838,-0.1212182082866543
8.000000000001005,0.20239919557770278,-0.10663867504757617
8.200000000000895,0.261674819420599,-0.1104221627634743
8.400000000000784,0.3230986186743583,-0.11998705751835907
8.600000000000673,0.361439108223228,-0.14390292102952895
8.800000000000562,0.3704381111917493,-0.1693360025918017
9.000000000000451,0.35160068868823785,-0.18118232443473048
9.20000000000034,0.3203954646432728,-0.18244168345809272
9.40000000000023,0.2848800446391959,-0.1784170777584088
9.600000000000119,0.2623610573410056,-0.153967046604731
9.800000000000008,0.2513096888379104,-0.11981634773961328
10.000999999999896,0.24964613202116648,-0.07478378833412624
10.200999999999786,0.257765617548775,-0.022936563746987264
10.400999999999675,0.28147891244196377,0.040991543705837484
10.600999999999564,0.3114140045636418,0.10727893483248659
10.800999999999453,0.3392542614356278,0.16548467560953142
11.000999999999342,0.3856676036697696,0.2053343242885181
11.200999999999231,0.44156665086939684,0.21987233325361757
11.40099999999912,0.5067604324075682,0.2173760932258042
11.60099999999901,0.575023483875081,0.20785090778400697
11.800999999998899,0.6390219144861677,0.18714436588917124
12.000999999998788,0.6933440790404752,0.15767841586491305
12.200999999998677,0.7154069948870798,0.10884095617565367
12.400999999998566,0.7156901115244724,0.04915924929293717
12.600999999998455,0.698298401388726,-0.018679844616169932
12.800999999998345,0.6602319081166327,-0.06976924134155126
13.000999999998234,0.6108849629197072,-0.09220283188848694
13.200999999998123,0.5604937126829832,-0.08980895128378984
13.400999999998012,0.5121147442541328,-0.0698234104406998
13.600999999997901,0.4857367291709102,-0.03062732229593007
13.80099999999779,0.48755852617667184,0.025279023686263495
14.00099999999768,0.49633405072821035,0.07705258373721854
14.200999999997569,0.5250231964522313,0.13656764262674234
14.400999999997458,0.5680942495503778,0.18511712884943562
14.600999999997347,0.6204512793745665,0.21113681580433488
14.800999999997236,0.668663784423162,0.2040194735235174
15.000999999997125,0.6943201742736905,0.16591378460607092
15.200999999997014,0.699475563961341,0.11297526319899469
15.400999999996904,0.6892159094899918,0.05041324213399982
15.600999999996793,0.6617184897694843,-0.02090462935423049
15.800999999996682,0.6370749867777872,-0.08611632250116062
16.000999999996573,0.5939215384741505,-0.1402074471486056
16.200999999996817,0.5228294138728756,-0.1741066040800948
16.40099999999706,0.4363255564595083,-0.17970743780239198
16.600999999997306,0.35729510841259343,-0.17562666913202005
16.80099999999755,0.27925328473147903,-0.15632867051587504
17.000999999997795,0.2071427707570205,-0.11833529963358318
17.20099999999804,0.1584938657454671,-0.07287903235724155
17.400999999998284,0.13806977486496538,-0.0244885871564068
17.60099999999853,0.15619901799515307,0.03456439394033281
17.800999999998773,0.20731992593506893,0.086647166335438
18.000999999999017,0.26723793220771364,0.11838356194941482
18.20099999999926,0.3292117505723139,0.12496594611428408
18.400999999999506,0.4106912941686366,0.11523517690445095
18.60099999999975,0.5002292509801862,0.08687205155637165
18.799999999999994,0.5837276776088983,0.03790384344158595
19.000000000000238,0.6438057544207297,-0.023784891238661274
19.200000000000482,0.6667628021135428,-0.08758919316469722
19.400000000000727,0.6581521941299951,-0.14777701294456647
19.60000000000097,0.6419628018066299,-0.20052958390787018
19.800000000001216,0.6155916140095893,-0.23611060994343244
20.00000000000146,0.5838388944643472,-0.2563082688953074
