Time (s),X (m),Y (m)
0.001,0.0005727611008870025,-0.0009689812320744441
0.20000000000000015,0.0018479515258034698,0.00024013082058789266
0.4000000000000003,0.011277848898117464,0.0005263904704865034
0.6000000000000004,0.03010547066793846,0.02456175855588832
0.8000000000000006,0.05654571499549753,0.028720168308070053
1.0000000000000007,0.09176115180649243,0.003992321531540232
1.2009999999999785,0.12828134882746367,-0.04269644994582967
1.4009999999999565,0.16529890951517345,-0.09612194028742124
1.6009999999999345,0.18218776476118229,-0.15510950369733123
1.8009999999999124,0.18090060192893312,-0.2151339908599016
2.0009999999998906,0.15323301473120413,-0.27389329178558325
2.2009999999998686,0.12050613307623767,-0.3323347936755157
2.4009999999998466,0.08688836357242219,-0.39277638250473307
2.6009999999998246,0.03897820650736858,-0.44631955305241466
2.8009999999998025,-0.013578074173706527,-0.4934238904949204
3.0009999999997805,-0.06534251062176527,-0.5360012571626508
3.2009999999997585,-0.12173319261268015,-0.5473146805919457
3.4009999999997365,-0.18222319117518318,-0.5197989634344659
3.6009999999997144,-0.24442741231093215,-0.4800400037794043
3.8009999999996924,-0.31358437789651517,-0.4447344940467849
4.000999999999671,-0.3789242750262614,-0.3967396411512581
4.200999999999738,-0.4440106640510551,-0.35693424398120177
4.400999999999804,-0.5098163765953688,-0.3173272267193732
4.600999999999871,-0.5614650839950319,-0.2678181742502327
4.800999999999938,-0.6129552404823362,-0.21134660417861956
5.000000000000004,-0.6401466804055623,-0.14740954226010747
5.200000000000071,-0.6282127511702823,-0.08171754245685144
5.400000000000138,-0.6028273174668565,-0.015237829274567205
5.600000000000205,-0.5581837911579509,0.04339512778161032
5.800000000000272,-0.5066419715005621,0.11136119860986393
6.000000000000338,-0.4409991942640741,0.14520140782887608
6.200000000000405,-0.37208268765481106,0.16488031675067502
6.400000000000472,-0.3012670963736873,0.16592223886214183
6.600000000000539,-0.23531128605678134,0.12819427464634672
6.800000000000606,-0.167845836738116,0.07296695903107205
7.000000000000672,-0.10381107650117213,0.021428268894923126
7.200000000000739,-0.05424946319809448,-0.028870230459112325
7.400000000000806,-0.007460394750428324,-0.0965532207787442
7.600000000000873,0.03052644724315377,-0.1735598139333559
7.8000000000009395,0.056273586947674446,-0.2528552448724295
8.000000000001005,0.05965175021711737,-0.3305933169811435
8.200000000000895,0.040785285750809815,-0.4035204777472076
8.400000000000784,0.021528232105403243,-0.4769890924176864
8.600000000000673,0.006037780281372159,-0.5526470627825272
8.800000000000562,-0.02128406564828359,-0.6297802888922991
9.000000000000451,-0.05852537685694071,-0.7096468882971654
9.20000000000034,-0.11340810960065534,-0.77142924870608
9.40000000000023,-0.1886587535663335,-0.8146894083809931
9.600000000000119,-0.2531418856058295,-0.859353806460416
9.800000000000008,-0.2969351309992785,-0.9079951687224022
10.000999999999896,-0.3426887043767945,-0.9601321870722093
10.200999999999786,-0.3968874677305772,-1.0103096379917278
10.400999999999675,-0.47363730247005026,-1.056136545008397
10.600999999999564,-0.5445554987936109,-1.1124364103904414
10.800999999999453,-0.6081227716331316,-1.17367277025376
11.000999999999342,-0.6746490714785037,-1.2370449655821676
11.200999999999231,-0.7441798373256673,-1.2846290695318028
11.40099999999912,-0.8158325248325529,-1.3273997180512196
11.60099999999901,-0.8916927298937123,-1.3436349181043519
11.800999999998899,-0.9661387023271073,-1.3300738047334497
12.000999999998788,-1.0425796191424066,-1.3207394439181905
12.200999999998677,-1.1156998352887353,-1.290212428015963
12.400999999998566,-1.1883194568776592,-1.2452632668872843
12.600999999998455,-1.259501656913258,-1.1951081337551306
12.800999999998345,-1.3302410093038257,-1.1532227987576062
13.000999999998234,-1.4027272725708209,-1.1240010654479453
13.200999999998123,-1.4745785616442302,-1.0887852589271392
13.400999999998012,-1.5495937643484983,-1.0547923660296128
13.600999999997901,-1.6138537996518971,-1.0124305373194065
13.80099999999779,-1.6782198632417367,-0.9667390254791303
14.00099999999768,-1.728964564971784,-0.9052237419719623
14.200999999997569,-1.7535632911388022,-0.8336219122381561
14.400999999997458,-1.747460578725541,-0.7580834221096553
14.600999999997347,-1.731310663530332,-0.6773981596194919
14.800999999997236,-1.705845581508443,-0.6048322502418791
15.000999999997125,-1.6644522356778788,-0.5351808970630161
15.200999999997014,-1.6109657623095133,-0.46685247404052377
15.400999999996904,-1.5531056548396442,-0.39956202499885424
15.600999999996793,-1.505788763076318,-0.3328723438267185
15.800999999996682,-1.4596793300259405,-0.27198902232371747
16.000999999996573,-1.405931024241814,-0.2174653868318564
16.200999999996817,-1.3390838025792708,-0.17277535228608917
16.40099999999706,-1.270616723482108,-0.13680792302358302
16.600999999997306,-1.2018948057396739,-0.1294887034825995
16.80099999999755,-1.1314231980398715,-0.14775329337734755
17.000999999997795,-1.066727785515522,-0.18997073920853505
17.20099999999804,-1.0019366690872265,-0.25516462310831456
17.400999999998284,-0.9305191878914377,-0.31619882115645376
17.60099999999853,-0.8642374459360288,-0.371131618966932
17.800999999998773,-0.8013800654045851,-0.4282881424702208
18.000999999999017,-0.74611471381284,-0.4921637677900329
18.20099999999926,-0.6883856708968599,-0.5440281359272786
18.400999999999506,-0.6348980178930891,-0.6074406927230567
18.60099999999975,-0.5888586374437962,-0.6788779256396249
18.799999999999994,-0.5499129054982567,-0.7559845901944702
19.000000000000238,-0.512838791729794,-0.8291846789333587
19.200000000000482,-0.4927023981363515,-0.9014940422758462
19.400000000000727,-0.48778042587320497,-0.9755725255697304
19.60000000000097,-0.5042080372860951,-1.054094991301761
19.800000000001216,-0.5525553326770604,-1.128761209371935
20.00000000000146,-0.602320577756111,-1.2013475276430177
