Time (s),X (m),Y (m)
0.001,-0.0005698399629515257,0.0006628221997479692
0.20000000000000015,0.003749580337418029,-0.0019948353464817777
0.4000000000000003,0.009168552710820352,0.0025328603738763176
0.6000000000000004,0.021968933104121322,0.011407587530832439
0.8000000000000006,0.041086845333741316,0.026707502356813975
1.0000000000000007,0.07124085548853587,0.03836342890607013
1.2009999999999785,0.1209065201907829,0.05122608675180087
1.4009999999999565,0.1822652425134134,0.052940810457775975
1.6009999999999345,0.22998162573180886,0.06342725975598405
1.8009999999999124,0.28117112703737274,0.06700170490868229
2.0009999999998906,0.32827936207782255,0.0635692179262796
2.2009999999998686,0.37092032489394566,0.05829269227121549
2.4009999999998466,0.40992991266808515,0.023799306416250957
2.6009999999998246,0.45192834882209065,-0.011921099276759823
2.8009999999998025,0.487537266115971,-0.037463189523250666
3.0009999999997805,0.5150212280413242,-0.08408562354046778
3.2009999999997585,0.5332773332145541,-0.13481710966327587
3.4009999999997365,0.5370118251175724,-0.18403369822146712
3.6009999999997144,0.5217764349477537,-0.2362847884692131
3.8009999999996924,0.49955557218201985,-0.2802525536455648
4.000999999999671,0.45357692526690513,-0.30650983489880324
4.200999999999738,0.40372565604327315,-0.3249605521413804
4.400999999999804,0.3472951222511699,-0.336100447290177
4.600999999999871,0.2800463089366869,-0.33572733718221043
4.800999999999938,0.20644983886213727,-0.30941485948689446
5.000000000000004,0.13888532550368346,-0.2645658341402955
5.200000000000071,0.0868016710789926,-0.2081928277745182
5.400000000000138,0.047979341744432184,-0.15124756336110717
5.600000000000205,0.015393446188518529,-0.10542070164608901
5.800000000000272,0.008047822688278715,-0.055916135171006964
6.000000000000338,0.0339429901257017,-0.0034542251252296283
6.200000000000405,0.07249097933297281,0.03659313817073275
6.400000000000472,0.11711065644003857,0.06442047205007403
6.600000000000539,0.17224646582402078,0.07799942041680354
6.800000000000606,0.2351606940804411,0.08475129493180175
7.000000000000672,0.3067631799788839,0.08238804463960517
7.200000000000739,0.3792904895751324,0.07245665550617293
7.400000000000806,0.4459584706586463,0.060442755213569344
7.600000000000873,0.5116241690537174,0.04140703429042896
7.8000000000009395,0.576077916087967,0.009026902883046231
8.000000000001005,0.6247270346951761,-0.0393725596155141
8.200000000000895,0.6372033075036411,-0.09037144261003313
8.400000000000784,0.6229695454455763,-0.14436055375193654
8.600000000000673,0.5904581339245756,-0.1984796288933996
8.800000000000562,0.530944570201144,-0.24290447316301297
9.000000000000451,0.4633110421600446,-0.2694663936588726
9.20000000000034,0.4000440395432639,-0.26025111422271324
9.40000000000023,0.36658323500392564,-0.2160348920472394
9.600000000000119,0.3666554178699213,-0.16554705876456577
9.800000000000008,0.38685374985262205,-0.11119362617475158
10.000999999999896,0.4159816294075235,-0.05518185923420176
10.200999999999786,0.45468202781473466,-0.012602874588195818
10.400999999999675,0.5019410638638845,0.016595471916938755
10.600999999999564,0.5507066070809182,0.030669021179310318
10.800999999999453,0.6041704947133509,0.02692274065023859
11.000999999999342,0.658134287313223,0.0019914808827846656
11.200999999999231,0.7067041882944026,-0.042438599224297754
11.40099999999912,0.7343042490330436,-0.0973319867801649
11.60099999999901,0.7407926475152853,-0.15975189130625336
11.800999999998899,0.7160939984889823,-0.217939964986004
12.000999999998788,0.6772325787565449,-0.2529512944167339
12.200999999998677,0.633664623687184,-0.2738215727903196
12.400999999998566,0.5833989550578845,-0.2935285747008151
12.600999999998455,0.5275988005639757,-0.30504948828741063
12.800999999998345,0.4639504105518449,-0.28687558850389744
13.000999999998234,0.40603205482412946,-0.24387128166859137
13.200999999998123,0.3712055429591526,-0.1946254296551194
13.400999999998012,0.35186769123027406,-0.14390948855068325
13.600999999997901,0.34570545950169923,-0.08353045911327657
13.80099999999779,0.3373930588626065,-0.021662809441391963
14.00099999999768,0.3493794335687621,0.04884110283895329
14.200999999997569,0.3798259853073,0.11945559006068375
14.400999999997458,0.4241793961114751,0.1778262314052234
14.600999999997347,0.469585767507747,0.22035165025322542
14.800999999997236,0.525485155171349,0.2408071034068141
15.000999999997125,0.5879854659399734,0.22486922939125634
15.200999999997014,0.6480029809537761,0.20153739430164938
15.400999999996904,0.6815312335832987,0.1540152211928224
15.600999999996793,0.6847720140738978,0.0996144765513217
15.800999999996682,0.6766479261030137,0.04051645576540549
16.000999999996573,0.6595668174530399,-0.014297517619252196
16.200999999996817,0.6128055499386951,-0.06589887470664331
16.40099999999706,0.5665642025779928,-0.10760506428032394
16.600999999997306,0.5132421533398862,-0.1336759642329136
16.80099999999755,0.45766512493573774,-0.14064414697710861
17.000999999997795,0.4018386449905817,-0.12608052822989851
17.20099999999804,0.35538995486907754,-0.0919986711609629
17.400999999998284,0.332794695333713,-0.034471708384303267
17.60099999999853,0.32383185098277517,0.019361641050146976
17.800999999998773,0.32678839170590296,0.0763917101320624
18.000999999999017,0.3323886720922823,0.13593015645474488
18.20099999999926,0.3584587566978165,0.19233184242067577
18.400999999999506,0.4009561569277959,0.227552663656218
18.60099999999975,0.4512973740907043,0.2288602629589699
18.799999999999994,0.5192162381154596,0.21491930149085817
19.000000000000238,0.5921829351117032,0.19375463053493291
19.200000000000482,0.6496579996157994,0.1568064301232165
19.400000000000727,0.6749712567671682,0.10763208029135658
19.60000000000097,0.6822158257748718,0.05306011466627817
19.800000000001216,0.6683610003508232,-0.006271744192307875
20.00000000000146,0.642218436702598,-0.05842365237833556
