Time (s),X (m),Y (m)
0.001,-0.0002955033697106609,-0.00089301793395481
0.20000000000000015,0.004295226540297162,0.0047271619563077965
0.4000000000000003,0.01223138567237636,0.0019826573295423752
0.6000000000000004,0.021309011048860443,0.0006858977257111092
0.8000000000000006,0.036656897636038015,0.003926705312938394
1.0000000000000007,0.05918840456959548,0.005586879204380451
1.2009999999999785,0.08600052787350956,0.012264240934462607
1.4009999999999565,0.10929483774675686,0.016824920414577834
1.6009999999999345,0.1247630679264939,0.016267373045350877
1.8009999999999124,0.14649070199929617,0.0197473204080188
2.0009999999998906,0.1769917704870836,0.03791460556022069
2.2009999999998686,0.20450163641858402,0.044989499309466656
2.4009999999998466,0.22767239866415748,0.04071610741105057
2.6009999999998246,0.25242508070227393,0.039515862381912556
2.8009999999998025,0.28484668634598787,0.042877591342731856
3.0009999999997805,0.3216006967984167,0.050259471575995224
3.2009999999997585,0.3519980945535234,0.058421439400916916
3.4009999999997365,0.3796378360977262,0.0617554929712097
3.6009999999997144,0.41372834667819297,0.0707225446877086
3.8009999999996924,0.44106039503145045,0.06864332811037707
4.000999999999671,0.46863687002438953,0.0677932646017502
4.200999999999738,0.5006347193160535,0.08166556285223675
4.400999999999804,0.542886402490311,0.10162359691087246
4.600999999999871,0.5800389379276362,0.12912786569980828
4.800999999999938,0.6103298700482381,0.1535662003808962
5.000000000000004,0.638739058769554,0.16093877697640255
5.200000000000071,0.6712594416952433,0.1628356666571461
5.400000000000138,0.7021678765552046,0.17479799730370565
5.600000000000205,0.7353978911338174,0.18656333123264815
5.800000000000272,0.773888856220064,0.21063873539933672
6.000000000000338,0.8147041587115459,0.2284206551049468
6.200000000000405,0.8474753576439434,0.2483495544460436
6.400000000000472,0.8807702955190017,0.26859288914679574
6.600000000000539,0.9094935610173741,0.2918005121465893
6.800000000000606,0.9430849582952846,0.31132082791919086
7.000000000000672,0.9768869479230397,0.3338256000163749
7.200000000000739,1.0053161466429086,0.36271791976796375
7.400000000000806,1.0370033876002949,0.3837284257746732
7.600000000000873,1.071818631874476,0.40252382471868964
7.8000000000009395,1.1036587684413215,0.4176318478931968
8.000000000001005,1.1316517423620052,0.42724956694448474
8.200000000000895,1.1605024335063774,0.4356346111637196
8.400000000000784,1.188340679572058,0.44834161804269035
8.600000000000673,1.2154610533081778,0.4684955258860983
8.800000000000562,1.2516366185538201,0.49339189110840687
9.000000000000451,1.2937224130156433,0.5175277219715019
9.20000000000034,1.3290599995721062,0.5289081489718331
9.40000000000023,1.3570355361646536,0.5456668349252641
9.600000000000119,1.3831678954630122,0.5676904465290271
9.800000000000008,1.4080806627122926,0.5921879860939258
10.000999999999896,1.4389065015257625,0.6032573495275914
10.200999999999786,1.4735099615056328,0.6243375606660362
10.400999999999675,1.5068011068496006,0.6368200543383643
10.600999999999564,1.5416699099313842,0.6632704218942747
10.800999999999453,1.5778190363804916,0.6823822014487798
11.000999999999342,1.6118314496511605,0.7006229565773782
11.200999999999231,1.6477597636034462,0.72207176661882
11.40099999999912,1.6802146617567721,0.7411672147627136
11.60099999999901,1.7098724708321609,0.7511816740304482
11.800999999998899,1.7403955949471717,0.768410633505297
12.000999999998788,1.770237739645923,0.781586784124107
12.200999999998677,1.7954538019803383,0.8027190412255879
12.400999999998566,1.823071159637889,0.8329997451764835
12.600999999998455,1.8504866133645856,0.8608079166845101
12.800999999998345,1.8789777404385994,0.8792274137766191
13.000999999998234,1.9128727982210008,0.8900050802554691
13.200999999998123,1.9474906744639768,0.8970504167750769
13.400999999998012,1.9806441059219277,0.9048010791045958
13.600999999997901,2.0121044415117972,0.9256407712229375
13.80099999999779,2.0492835744370694,0.9449325531692548
14.00099999999768,2.0784580877947305,0.9610077029160367
14.200999999997569,2.1094629912182046,0.9886625117184509
14.400999999997458,2.141241536029469,1.0193421854184153
14.600999999997347,2.1779464726530726,1.044667561039737
14.800999999997236,2.2115681649471357,1.0701451421467412
15.000999999997125,2.243013063025164,1.1019783286548135
15.200999999997014,2.2765286002449647,1.1312640135466903
15.400999999996904,2.311435099210179,1.1531924557679427
15.600999999996793,2.3519128982337887,1.172470367276251
15.800999999996682,2.394182939442166,1.195867311178308
16.000999999996573,2.435840427882822,1.2143116680008823
16.200999999996817,2.4761077586004308,1.237807272091457
16.40099999999706,2.511676411137266,1.262995911667353
16.600999999997306,2.543781409654066,1.2692412109157678
16.80099999999755,2.568701005687659,1.2924225243447334
17.000999999997795,2.600290696206737,1.3103219112869144
17.20099999999804,2.6347336649073934,1.3254261315955764
17.400999999998284,2.6643306414106336,1.3515154622411332
17.60099999999853,2.6952387976264576,1.3808332596562523
17.800999999998773,2.73217536557068,1.4090538651385847
18.000999999999017,2.7692931984175004,1.4369639446273768
18.20099999999926,2.802797926950822,1.4580243480508126
18.400999999999506,2.8349585928954513,1.488432615452182
18.60099999999975,2.862752984271231,1.5223665339431045
18.799999999999994,2.889123508169049,1.5476377532093055
19.000000000000238,2.9217514781678373,1.5598500446696204
19.200000000000482,2.9551765115861945,1.5767531991847035
19.400000000000727,2.98940613043958,1.6091836087608669
19.60000000000097,3.0134167176908977,1.6401586195440712
19.800000000001216,3.0355679876044945,1.673518973423251
20.00000000000146,3.0610334524972265,1.6981410592207145
