Time (s),X (m),Y (m)
0.001,-0.0007144750753253542,-0.00043579054991000363
0.20000000000000015,0.00488842330051157,0.0019040821198053658
0.4000000000000003,0.00809822893156795,0.0021790057143991366
0.6000000000000004,0.01102708692304161,0.0021372172651056443
0.8000000000000006,0.015628618071578795,-0.0010399533659611237
1.0000000000000007,0.03679078895005979,0.0075159381601273825
1.2009999999999785,0.04779981329850297,0.016675044498938144
1.4009999999999565,0.051130402056184535,0.01843248297450785
1.6009999999999345,0.05547457678323884,0.017000230188105113
1.8009999999999124,0.065308443506292,0.02038204656770065
2.0009999999998906,0.08345166538196674,0.024469357192020584
2.2009999999998686,0.09759282508489281,0.021893496609262732
2.4009999999998466,0.10998827137953819,0.01661983824721944
2.6009999999998246,0.12467647076752417,0.00926337010910229
2.8009999999998025,0.13974963739745644,0.0039592786167824525
3.0009999999997805,0.1459703125339952,-0.0033460459132976382
3.2009999999997585,0.15469522331307467,-0.008400693979154893
3.4009999999997365,0.16847139512149037,-0.012466915098331787
3.6009999999997144,0.1814718941640177,-0.0234593996349367
3.8009999999996924,0.19450971635673192,-0.029596080065913834
4.000999999999671,0.20282166820875908,-0.03923752897833461
4.200999999999738,0.2184766538876255,-0.04729763021354358
4.400999999999804,0.2424765976935201,-0.061728799808701315
4.600999999999871,0.25195205935593445,-0.07816479274347965
4.800999999999938,0.26933624739114,-0.08954212700426001
5.000000000000004,0.2886512641899079,-0.10043684840927446
5.200000000000071,0.31981520876754943,-0.11236947522093342
5.400000000000138,0.35000104693982353,-0.12594971156548154
5.600000000000205,0.3737640068299392,-0.14218229855865916
5.800000000000272,0.3934084387806215,-0.15685083945750822
6.000000000000338,0.40998067780684205,-0.1683587461887934
6.200000000000405,0.42969205648952524,-0.17656597375304794
6.400000000000472,0.44837610582030685,-0.18072045450595958
6.600000000000539,0.4757711406722015,-0.18867232654652188
6.800000000000606,0.49113537594994644,-0.1977521399121725
7.000000000000672,0.5038495004718282,-0.2058310360414605
7.200000000000739,0.5182506780231986,-0.21509639031232025
7.400000000000806,0.5444299918676287,-0.22888571477110278
7.600000000000873,0.5722261002191749,-0.2417202750668573
7.8000000000009395,0.5996417199504157,-0.2559051729550911
8.000000000001005,0.6122475701329398,-0.27350585286335766
8.200000000000895,0.6355473981440398,-0.2873725055958829
8.400000000000784,0.649515702484612,-0.29734411194697247
8.600000000000673,0.6739592681310912,-0.3093623784913346
8.800000000000562,0.6926644522826985,-0.31768959407357933
9.000000000000451,0.7253308528194982,-0.3267474476322962
9.20000000000034,0.7650183743913107,-0.33375141198442815
9.40000000000023,0.7915453943262754,-0.3471931705164937
9.600000000000119,0.8209125695759452,-0.36107183210911775
9.800000000000008,0.8426321271557619,-0.3710571825623815
10.000999999999896,0.8658056175376267,-0.38398073735676275
10.200999999999786,0.886231022738035,-0.3906390536850348
10.400999999999675,0.9099603299628231,-0.40182709980945824
10.600999999999564,0.9288983202119067,-0.4083437461033827
10.800999999999453,0.9524920345791205,-0.41847382412181616
11.000999999999342,0.9744664407250762,-0.42968896649341837
11.200999999999231,0.9942077403554095,-0.43922068915156964
11.40099999999912,1.0227673380153615,-0.44147876775747835
11.60099999999901,1.0534386321880682,-0.44592805595795754
11.800999999998899,1.0864444116591105,-0.44405180853130083
12.000999999998788,1.1348099261629148,-0.43649594655335616
12.200999999998677,1.1744730917214805,-0.432786958702621
12.400999999998566,1.2079332289418583,-0.436003293561623
12.600999999998455,1.2357176897456659,-0.43984410393699336
12.800999999998345,1.258240187342537,-0.43845071835608523
13.000999999998234,1.2925613580031268,-0.43954848923637446
13.200999999998123,1.3317841155218557,-0.4453694358382832
13.400999999998012,1.352283646608153,-0.4491180557664602
13.600999999997901,1.3855128400713623,-0.4515588246035476
13.80099999999779,1.4148837341022298,-0.46096902123751404
14.00099999999768,1.4405219653124153,-0.4694726429955666
14.200999999997569,1.4677331164771492,-0.47305043799213986
14.400999999997458,1.494056390520976,-0.4761909634387568
14.600999999997347,1.5093055209010826,-0.48384923453188305
14.800999999997236,1.529121482507364,-0.49454600877191834
15.000999999997125,1.5479780308691815,-0.5072806693271683
15.200999999997014,1.5593164038357965,-0.519160447439615
15.400999999996904,1.5912092018969661,-0.5329784597581789
15.600999999996793,1.6211870800434773,-0.5522604504030958
15.800999999996682,1.6497659870789634,-0.5717361136268836
16.000999999996573,1.6795217269334013,-0.5879164157597524
16.200999999996817,1.7107182295516175,-0.5996714422848275
16.40099999999706,1.7310377034494373,-0.615496933917185
16.600999999997306,1.750212638998904,-0.637047044326863
16.80099999999755,1.773307846133173,-0.6603323678521354
17.000999999997795,1.7906416433861894,-0.6877381961886608
17.20099999999804,1.8167124100508674,-0.7081315297472125
17.400999999998284,1.8353261679364885,-0.7338263368871765
17.60099999999853,1.8581079924556105,-0.7579363343142762
17.800999999998773,1.8816613902520727,-0.78263075876467
18.000999999999017,1.8928722387250074,-0.7992748904524044
18.20099999999926,1.9182795064428286,-0.8170216184210195
18.400999999999506,1.9492360919640646,-0.8296317084451024
18.60099999999975,1.9827182371694594,-0.842277685749085
18.799999999999994,2.013664795894313,-0.8511039290176163
19.000000000000238,2.041541430827019,-0.8615681336720404
19.200000000000482,2.078152851840673,-0.8747860055214558
19.400000000000727,2.112174544066744,-0.8850320155979955
19.60000000000097,2.139153675897113,-0.8901533786244459
19.800000000001216,2.1678407720021178,-0.8907636334793441
20.00000000000146,2.1914990615038135,-0.8921302522858763
