Time (s),X (m),Y (m)
0.001,0.0012473251573109415,8.987223813608099e-05
0.20000000000000015,-0.0019159630176082396,2.4539287425969357e-05
0.4000000000000003,-0.0013130117736296163,0.00024154705523667016
0.6000000000000004,0.0034127308653510166,0.002378744270321639
0.8000000000000006,0.0069862249475034655,0.0029867875315783016
1.0000000000000007,0.012229245203957356,0.00251893989316616
1.2009999999999785,0.01634755860396752,0.00310470084570372
1.4009999999999565,0.019790824994797004,0.0034839334770084282
1.6009999999999345,0.02355528215678411,0.0039046889015852035
1.8009999999999124,0.02838201116457374,0.005228695329182953
2.0009999999998906,0.03284552051358252,0.0055518036557912305
2.2009999999998686,0.037062900773627214,0.006244952616831466
2.4009999999998466,0.04238179359646231,0.007796997580762975
2.6009999999998246,0.04696888859653695,0.009570696128856294
2.8009999999998025,0.05139974129555027,0.010856512270459893
3.0009999999997805,0.05626750852703756,0.012410782085497759
3.2009999999997585,0.05950232356978253,0.013550690909798798
3.4009999999997365,0.06387637589993142,0.01574653429240474
3.6009999999997144,0.0683546674697208,0.017569425533614184
3.8009999999996924,0.07173863544665587,0.01926115014813128
4.000999999999671,0.07439887771115324,0.020388198275939007
4.200999999999738,0.07853905864807485,0.02251477998339115
4.400999999999804,0.08181828665927482,0.025007109668362615
4.600999999999871,0.08625001396042714,0.02728815122276611
4.800999999999938,0.08905279360449918,0.029750771287629044
5.000000000000004,0.09230186043026704,0.03276718986555689
5.200000000000071,0.09565204438405676,0.03555254925151185
5.400000000000138,0.09867226093622,0.038475085536171745
5.600000000000205,0.10103276132231359,0.04136716534570802
5.800000000000272,0.10390220368412004,0.04404199369792153
6.000000000000338,0.10486893837239313,0.04629927413314412
6.200000000000405,0.10733371351542935,0.049112544169732146
6.400000000000472,0.1100097171545193,0.05219084074747102
6.600000000000539,0.11307617731332643,0.05564833716937201
6.800000000000606,0.11516121058146248,0.058948877077458044
7.000000000000672,0.11757094930081811,0.06193985423189181
7.200000000000739,0.12030553424901481,0.0650515065613981
7.400000000000806,0.12256953969303916,0.06777904047412113
7.600000000000873,0.12493609252129481,0.07090407794075138
7.8000000000009395,0.1270090654035349,0.07397423344294336
8.000000000001005,0.1292810732555884,0.07675568872385782
8.200000000000895,0.13150038184911086,0.07959086871979719
8.400000000000784,0.13419624966722601,0.08326801750011614
8.600000000000673,0.1363197974209146,0.08649487609503786
8.800000000000562,0.1384499734258784,0.08938802205938463
9.000000000000451,0.1401010920171328,0.09227209137435707
9.20000000000034,0.14192186153168687,0.09487049373329803
9.40000000000023,0.14388132568614023,0.09774873508104052
9.600000000000119,0.1458342306525498,0.10112300045712094
9.800000000000008,0.14736809395741474,0.10377149290283967
10.000999999999896,0.1498479950342393,0.10735604971845522
10.200999999999786,0.15156069305414846,0.1102476279373215
10.400999999999675,0.1535702028183905,0.11350502517916945
10.600999999999564,0.1552677519756286,0.11638690006844417
10.800999999999453,0.15698241093636767,0.11945771288173002
11.000999999999342,0.1585068973436299,0.12245009536349888
11.200999999999231,0.16055428087925422,0.12629461072562884
11.40099999999912,0.16209592623649394,0.12924224772219492
11.60099999999901,0.16367235887696172,0.13240269288432652
11.800999999998899,0.16513431660478373,0.1353746422399477
12.000999999998788,0.16644030702662135,0.13878460356801783
12.200999999998677,0.1677931015376445,0.14173981179095235
12.400999999998566,0.16901367421040728,0.14460677771502806
12.600999999998455,0.17014624904238443,0.14765934855909338
12.800999999998345,0.17127435657306292,0.15073345864567458
13.000999999998234,0.17216351514702424,0.15365900782304612
13.200999999998123,0.1732961963165708,0.1570704166103514
13.400999999998012,0.17420508057313402,0.16017825891189041
13.600999999997901,0.17505212425346744,0.1637539616751574
13.80099999999779,0.1759452929009117,0.16702247100163853
14.00099999999768,0.17685501176991167,0.1703704652740063
14.200999999997569,0.17707507114087112,0.17314412485731692
14.400999999997458,0.17740156986257707,0.1761913874247049
14.600999999997347,0.17765726365737436,0.17954971677824397
14.800999999997236,0.17769392017326963,0.1833435354316821
15.000999999997125,0.17789041050538104,0.18692990708346346
15.200999999997014,0.17784630949842906,0.1903156305744272
15.400999999996904,0.17765573336262394,0.19347735403848124
15.600999999996793,0.17730656565750638,0.19681822355904502
15.800999999996682,0.17672520284280127,0.19985698537309113
16.000999999996573,0.1760598215881004,0.20319401628524922
16.200999999996817,0.17537826777068097,0.20662739393603155
16.40099999999706,0.17447601398038132,0.21093739486318358
16.600999999997306,0.1736519708873169,0.21423065433732316
16.80099999999755,0.17249020754147024,0.21765163500874066
17.000999999997795,0.1714251319833677,0.22093295833133092
17.20099999999804,0.17009291541730004,0.22501388294613486
17.400999999998284,0.16844505574553895,0.2298442998333794
17.60099999999853,0.1667315612294295,0.23441944143033855
17.800999999998773,0.16498299481290551,0.2388037335435448
18.000999999999017,0.16296907385428466,0.24249375830106867
18.20099999999926,0.16114345075992,0.2464788946565324
18.400999999999506,0.159490577382008,0.24944401710375408
18.60099999999975,0.1579110394174949,0.25228578708805566
18.799999999999994,0.15599151372796094,0.25552633026243804
19.000000000000238,0.15389860908066358,0.258642986112135
19.200000000000482,0.15195218211697462,0.2614614504972599
19.400000000000727,0.15001554523114868,0.2641637332453781
19.60000000000097,0.14811558340645722,0.26658053431685
19.800000000001216,0.14602285265940265,0.26929868013685665
20.00000000000146,0.14381642443882967,0.272168768783848
