Time (s),X (m),Y (m)
0.001,0.0006558713247593165,0.0009345558501746678
0.20000000000000015,0.004799883618662559,0.005027055957815379
0.4000000000000003,0.0045117174491076184,0.002444019602323369
0.6000000000000004,0.009271593475282027,0.004693256043469524
0.8000000000000006,0.013276630693144277,0.002064154245761859
1.0000000000000007,0.02065239816819545,0.002615648511339924
1.2009999999999785,0.027733863293675647,0.0011157462360366556
1.4009999999999565,0.03426244375564559,0.001865948359427232
1.6009999999999345,0.03849975705659177,0.0037267349441368037
1.8009999999999124,0.04528936692143353,0.007909863202483243
2.0009999999998906,0.051121459167427774,0.011983148981572874
2.2009999999998686,0.05691792612190214,0.01887365584168714
2.4009999999998466,0.061347705570342845,0.025000206748535963
2.6009999999998246,0.066366330264611,0.02741861427414881
2.8009999999998025,0.07065898328004448,0.030658892506848095
3.0009999999997805,0.07844706893293961,0.030864995802347264
3.2009999999997585,0.08211821535986613,0.0356129948855264
3.4009999999997365,0.08950162252757217,0.03830470210145272
3.6009999999997144,0.09442770610952297,0.04146215095298649
3.8009999999996924,0.10096710528893137,0.050317263941176096
4.000999999999671,0.10763466478875137,0.05158542961848927
4.200999999999738,0.11133226978399707,0.0573001744167244
4.400999999999804,0.11503737591113566,0.06306312676589385
4.600999999999871,0.11747959124595385,0.0678849939982612
4.800999999999938,0.11722982610306172,0.07553692694484447
5.000000000000004,0.12273047156951203,0.077918823185716
5.200000000000071,0.12436877295848073,0.08880145748394137
5.400000000000138,0.12461409173831776,0.09878588392388249
5.600000000000205,0.12341294851652661,0.10763017218883313
5.800000000000272,0.12173646164440573,0.11735147094781298
6.000000000000338,0.11831647402418301,0.12754626142299644
6.200000000000405,0.11853981590686205,0.13452030577355456
6.400000000000472,0.11817984450958385,0.1421727157284059
6.600000000000539,0.11704629782665066,0.15036003631274258
6.800000000000606,0.1145897129583285,0.1605257128610315
7.000000000000672,0.11012888552399688,0.1706036164720553
7.200000000000739,0.10748443713432791,0.1787320437962881
7.400000000000806,0.10202460920772506,0.18803483487226272
7.600000000000873,0.09577885431524144,0.19729360741581356
7.8000000000009395,0.09280593931919813,0.20496868177459612
8.000000000001005,0.09263736355435549,0.21127722636545618
8.200000000000895,0.08324236583769896,0.2201619565887424
8.400000000000784,0.08116698259287945,0.2267325292682854
8.600000000000673,0.0762656861344566,0.23385371444576905
8.800000000000562,0.07242842559903757,0.24202508541604242
9.000000000000451,0.06506089260733683,0.24950312055296728
9.20000000000034,0.06183383049529722,0.25713310112047255
9.40000000000023,0.05725676002014311,0.26214283486914497
9.600000000000119,0.051630675463985115,0.26510185999152197
9.800000000000008,0.04712432022956814,0.2681341968383072
10.000999999999896,0.042377514943962566,0.27090623143772424
10.200999999999786,0.0384760031191736,0.2741231313522305
10.400999999999675,0.03267815250248829,0.275895174695844
10.600999999999564,0.0289529398730279,0.27927987819671796
10.800999999999453,0.020106549852145602,0.2793246963804535
11.000999999999342,0.011821630153002556,0.27959096179294907
11.200999999999231,0.003687112573179288,0.28180350317058356
11.40099999999912,-0.007496404692677185,0.28021330707238606
11.60099999999901,-0.01659886098381909,0.2794245467328893
11.800999999998899,-0.028625224772046102,0.27765139295490127
12.000999999998788,-0.037807503518043,0.27644202884498026
12.200999999998677,-0.0476741197731243,0.27709177171084576
12.400999999998566,-0.05477272829020173,0.2773724135522763
12.600999999998455,-0.06317554113528837,0.276223061186524
12.800999999998345,-0.07192612880844158,0.2728414020091888
13.000999999998234,-0.08050940003779396,0.26916900774379543
13.200999999998123,-0.08821369590801899,0.2647675437489546
13.400999999998012,-0.09711251946218913,0.25779173290976753
13.600999999997901,-0.1042015873632849,0.25381333621349667
13.80099999999779,-0.11214238249975977,0.2527231333927672
14.00099999999768,-0.12045631164030561,0.24932250225189365
14.200999999997569,-0.1285668211734721,0.24693576693222113
14.400999999997458,-0.13669889787058923,0.24322937341470816
14.600999999997347,-0.14323425240667492,0.237946658401716
14.800999999997236,-0.14969066948663412,0.23764181736198953
15.000999999997125,-0.1549969814103394,0.23215787921796327
15.200999999997014,-0.15936210388979197,0.22191225249426744
15.400999999996904,-0.16320411173751415,0.21190232225933125
15.600999999996793,-0.1652435550115621,0.2012766853372659
15.800999999996682,-0.16685691072883183,0.19445283176238018
16.000999999996573,-0.16790841622774383,0.1864580035151385
16.200999999996817,-0.1695323343493858,0.17910743204109666
16.40099999999706,-0.1725367956326853,0.17416766972532158
16.600999999997306,-0.17648722709969725,0.16515418894945658
16.80099999999755,-0.1780301317127743,0.15815169992812542
17.000999999997795,-0.17929446576723232,0.15310566015228222
17.20099999999804,-0.18113448595144066,0.1452875799026387
17.400999999998284,-0.17689635340389334,0.13387961004740834
17.60099999999853,-0.17533277955335352,0.12334210043689339
17.800999999998773,-0.16919194575002292,0.11176734251107581
18.000999999999017,-0.16400883400514263,0.10101278539680653
18.20099999999926,-0.1614826577410529,0.0928100448819314
18.400999999999506,-0.15561700967857545,0.08325814317475465
18.60099999999975,-0.15199329878663578,0.07537282452513756
18.799999999999994,-0.14687029959416625,0.0683636562359107
19.000000000000238,-0.1400829237899773,0.061175591697836984
19.200000000000482,-0.1405351837044294,0.05212590130597274
19.400000000000727,-0.13808427271031098,0.04489519860629807
19.60000000000097,-0.13308421334828874,0.03812730128808639
19.800000000001216,-0.12778037528655792,0.030279054912064403
20.00000000000146,-0.12094768330381594,0.023585581966999482
