Time (s),X (m),Y (m)
0.001,0.0003099530129853942,0.0010272443824616275
0.20000000000000015,0.0031648892239072818,-0.0017651738383640519
0.4000000000000003,0.010909262552908788,-0.016813659101607877
0.6000000000000004,0.03635913158423928,-0.009256133056761175
0.8000000000000006,0.0708028675540419,-0.0005971896967340312
1.0000000000000007,0.1084146810709272,0.0015774088979169417
1.2009999999999785,0.1343674275841073,-0.009520559858740613
1.4009999999999565,0.16238485889997117,-0.03211276395625204
1.6009999999999345,0.18990315065535354,-0.06631706727149166
1.8009999999999124,0.2017912167921071,-0.10761214746697358
2.0009999999998906,0.20223303920512584,-0.1564083259774838
2.2009999999998686,0.19138135309778134,-0.22895171724731297
2.4009999999998466,0.16947717348983193,-0.3035108338686504
2.6009999999998246,0.14348362465355868,-0.36785559419242986
2.8009999999998025,0.1086771145998727,-0.408981692291128
3.0009999999997805,0.0686019702485415,-0.4241520260223002
3.2009999999997585,0.030200847079977822,-0.41146727643273234
3.4009999999997365,-0.012855756192496764,-0.38077587780352684
3.6009999999997144,-0.051075912087250167,-0.3307427175725836
3.8009999999996924,-0.07686621529257637,-0.2706829133705459
4.000999999999671,-0.08513252451202341,-0.2171041277645209
4.200999999999738,-0.0671397745420155,-0.1577614492875446
4.400999999999804,-0.033092108746095084,-0.11889626298899991
4.600999999999871,0.017247157489433375,-0.09393138537809921
4.800999999999938,0.08946419220102172,-0.06736716686674679
5.000000000000004,0.15565605809038086,-0.05562983539149641
5.200000000000071,0.18097616363444316,-0.0609931372071853
5.400000000000138,0.1808919392158409,-0.08286839625842232
5.600000000000205,0.18651699219984344,-0.12827041817475304
5.800000000000272,0.17860341468008453,-0.18286758448153154
6.000000000000338,0.16659944919357433,-0.2409147141076279
6.200000000000405,0.1408889966396677,-0.29971911708862303
6.400000000000472,0.09949925667205217,-0.34461724670124777
6.600000000000539,0.04798865021018812,-0.37543026290261666
6.800000000000606,-0.011663999930224099,-0.39096025035310633
7.000000000000672,-0.058081083125649365,-0.39208747676338246
7.200000000000739,-0.07736279583876206,-0.3525611385958236
7.400000000000806,-0.0744706015198338,-0.29561364450316013
7.600000000000873,-0.05579849454072787,-0.2536558367255044
7.8000000000009395,-0.01795408289332926,-0.22865488746563853
8.000000000001005,0.02149836368432569,-0.22016459053004545
8.200000000000895,0.04934359152998404,-0.2253865353688485
8.400000000000784,0.06028377424429197,-0.246556435079289
8.600000000000673,0.056769845029796664,-0.2693858762719353
8.800000000000562,0.03489154875858821,-0.2923239320977549
9.000000000000451,-0.004392643556122449,-0.3077138132290464
9.20000000000034,-0.04489179471215663,-0.30047975947924993
9.40000000000023,-0.10230233064497236,-0.2939571655746559
9.600000000000119,-0.13648744987443354,-0.27535980085074113
9.800000000000008,-0.1602382183214082,-0.23614879142375492
10.000999999999896,-0.16725849069375506,-0.18389393022968106
10.200999999999786,-0.1660030282437271,-0.12097919841738537
10.400999999999675,-0.15450307374570896,-0.06724294330650056
10.600999999999564,-0.12923645351997753,-0.013063358010130153
10.800999999999453,-0.08603292707881154,0.032306487655365076
11.000999999999342,-0.030337045757731416,0.05231098662897466
11.200999999999231,0.03630571760635176,0.06879620665115344
11.40099999999912,0.10386544912040806,0.07356481297367312
11.60099999999901,0.15882815881960574,0.07123976588587551
11.800999999998899,0.2018263948162251,0.05143155959972167
12.000999999998788,0.24663011295131798,-0.0004139667586620388
12.200999999998677,0.26700934518227254,-0.04999374771899861
12.400999999998566,0.2643073762881368,-0.08131483342414567
12.600999999998455,0.23613280088449087,-0.09118534616262312
12.800999999998345,0.1840236721556767,-0.09798587364016548
13.000999999998234,0.1354361182269907,-0.08742612918836055
13.200999999998123,0.08994898880330462,-0.05841894951640628
13.400999999998012,0.058510465777510685,-0.006344316526483045
13.600999999997901,0.05285223406527891,0.04462046453277512
13.80099999999779,0.06445819012094199,0.069867336707441
14.00099999999768,0.09913682103520846,0.0844272341952818
14.200999999997569,0.14221642435264645,0.08796600555857705
14.400999999997458,0.18624243708777008,0.07965387570097479
14.600999999997347,0.2313193573016764,0.05881912889750603
14.800999999997236,0.2791503168609368,0.020102390805687022
15.000999999997125,0.3287404727713917,-0.03637413732715419
15.200999999997014,0.3725763308077116,-0.10092302323360329
15.400999999996904,0.39965504784241573,-0.1776888118597052
15.600999999996793,0.4270074314165459,-0.2563502602876106
15.800999999996682,0.4838206608818532,-0.3368635748338397
16.000999999996573,0.5320892006130145,-0.4200416827722324
16.200999999996817,0.5638472889805368,-0.5090516058978195
16.40099999999706,0.582331466176447,-0.6028062358625212
16.600999999997306,0.5919089179854148,-0.6982269002897808
16.80099999999755,0.5883620957846557,-0.7881211456272319
17.000999999997795,0.5950640586825332,-0.876132434783894
17.20099999999804,0.6106145986288333,-0.9691855393851265
17.400999999998284,0.6268161026939584,-1.065573518555122
17.60099999999853,0.6302393741187248,-1.158713512928511
17.800999999998773,0.6105439175208889,-1.2252491073254541
18.000999999999017,0.5666318529762682,-1.2531214308677894
18.20099999999926,0.5104519512246446,-1.2721694733757225
18.400999999999506,0.44190536562231625,-1.288043499440195
18.60099999999975,0.37088099880652975,-1.291806056905034
18.799999999999994,0.327014768705409,-1.272835166486076
19.000000000000238,0.29845803176666785,-1.2263978488705278
19.200000000000482,0.2678464953327974,-1.1684344558474822
19.400000000000727,0.24012828308213274,-1.1006486161479125
19.60000000000097,0.2287455773893744,-1.0248373818992285
19.800000000001216,0.225635581364581,-0.9339785566430084
20.00000000000146,0.24375591342685451,-0.8552808226088998
