Time (s),X (m),Y (m)
0.001,0.0011546366250239817,0.000435790549910003
0.20000000000000015,-0.0008265407601747081,-0.0017868554205099929
0.4000000000000003,0.001633029076112766,0.0016205692490548474
0.6000000000000004,0.003578523900054978,0.003894456113126685
0.8000000000000006,0.012252276160885395,0.003091735342970822
1.0000000000000007,0.022199281043816427,0.00310680799819952
1.2009999999999785,0.03417542813135881,0.000886525218809827
1.4009999999999565,0.04815485882603128,0.002188481601584367
1.6009999999999345,0.06661753345526022,0.006474889690575441
1.8009999999999124,0.0781536683220011,0.013484479744012528
2.0009999999998906,0.09396227929225028,0.016917647569934625
2.2009999999998686,0.1045725550417924,0.014260860914938563
2.4009999999998466,0.11205167893185909,0.011625544397142699
2.6009999999998246,0.12867220801644308,0.011229223448922177
2.8009999999998025,0.1510887806378795,0.009039088414281046
3.0009999999997805,0.16389659780417862,0.006608728943266155
3.2009999999997585,0.18279958560713358,0.005694765101331378
3.4009999999997365,0.21115123447924986,0.006476041407141994
3.6009999999997144,0.22863259832485242,0.004175471861444751
3.8009999999996924,0.2379538023793691,-0.004228364687595334
4.000999999999671,0.2409831063806573,-0.01416756565586659
4.200999999999738,0.24853963689718345,-0.028075972725826393
4.400999999999804,0.25983023826919455,-0.045933215733290685
4.600999999999871,0.26671114708500027,-0.05379169181172077
4.800999999999938,0.2717371431876172,-0.06543779390713486
5.000000000000004,0.27704236180367225,-0.07246225751126822
5.200000000000071,0.28721197497763734,-0.09008412741640798
5.400000000000138,0.3035514935802651,-0.0983048113125445
5.600000000000205,0.3154258942718445,-0.11112684137700303
5.800000000000272,0.3358408552357742,-0.1170968602841486
6.000000000000338,0.35677469890590474,-0.1237023059844978
6.200000000000405,0.38341915897718104,-0.137726227927823
6.400000000000472,0.40292770024690144,-0.15513171212849547
6.600000000000539,0.4168777010842575,-0.17323364568752095
6.800000000000606,0.430754295692255,-0.18911496785598153
7.000000000000672,0.4447060310465349,-0.19548929409846347
7.200000000000739,0.462882651734969,-0.20894294903160276
7.400000000000806,0.4786873803083625,-0.2185010772855165
7.600000000000873,0.4941971452729059,-0.23018728907664524
7.8000000000009395,0.5186898971333077,-0.23953487802058762
8.000000000001005,0.5414569555826249,-0.2487750847880676
8.200000000000895,0.5646200507115106,-0.25603017364407704
8.400000000000784,0.5873345427710684,-0.2653730460321397
8.600000000000673,0.5962567830224182,-0.2763073481146599
8.800000000000562,0.6050111692108613,-0.2854172276638713
9.000000000000451,0.6312381089683252,-0.2990088813798195
9.20000000000034,0.6603104241028883,-0.3133211678787198
9.40000000000023,0.6915706226884691,-0.32938539707850356
9.600000000000119,0.7015151492253,-0.34580141128904074
9.800000000000008,0.7275376985665585,-0.36888791469415455
10.000999999999896,0.7582241297594384,-0.39009330511504625
10.200999999999786,0.7756997480085099,-0.41051309549724974
10.400999999999675,0.8037464179603042,-0.43047303978089363
10.600999999999564,0.8347391712615987,-0.45123538969304106
10.800999999999453,0.8608144543709609,-0.47412345836359876
11.000999999999342,0.880269951859411,-0.49230974853286324
11.200999999999231,0.9127986378637726,-0.5129437779754753
11.40099999999912,0.9449669654197217,-0.5405921102015122
11.60099999999901,0.9688120508917353,-0.566859185566582
11.800999999998899,0.9921073375830458,-0.5894395026483643
12.000999999998788,1.0179557104127182,-0.6157706503573444
12.200999999998677,1.0434619089521087,-0.6366917363547779
12.400999999998566,1.0657786223561765,-0.657553425682641
12.600999999998455,1.0946759815308913,-0.6760334486493602
12.800999999998345,1.1148659194316413,-0.6937298978671282
13.000999999998234,1.14371296671946,-0.7082646937471523
13.200999999998123,1.1746933863488296,-0.7238753618551366
13.400999999998012,1.1979457841360521,-0.7374088984202721
13.600999999997901,1.222631660516259,-0.7519151957050886
13.80099999999779,1.2448325966652727,-0.7668413590418183
14.00099999999768,1.2639689293118725,-0.7788148627414292
14.200999999997569,1.2763505856347668,-0.7925537934122197
14.400999999997458,1.2916385337156233,-0.8044656327642796
14.600999999997347,1.3064186564911815,-0.8149241615636142
14.800999999997236,1.3160112139186702,-0.8265082574730984
15.000999999997125,1.3341293411352766,-0.8363442574885871
15.200999999997014,1.3577355155586255,-0.8418207696265267
15.400999999996904,1.3796565022692395,-0.8560487179020657
15.600999999996793,1.4024202604261455,-0.8730661665085284
15.800999999996682,1.4209731586745082,-0.8824523409729809
16.000999999996573,1.4492305756607962,-0.8883465194183385
16.200999999996817,1.4758726689239516,-0.8978686072282627
16.40099999999706,1.494066339980594,-0.9180455166038897
16.600999999997306,1.5125851230002634,-0.9399051229770984
16.80099999999755,1.5376224114451411,-0.9571682632846223
17.000999999997795,1.5596961449156845,-0.9651144662106853
17.20099999999804,1.5850896578023066,-0.9734795618839259
17.400999999998284,1.6063535661939727,-0.9813912719662672
17.60099999999853,1.6214073690018276,-0.9911532678686127
17.800999999998773,1.6354891248222139,-0.995237755377612
18.000999999999017,1.6605216139855035,-0.9970418828821195
18.20099999999926,1.6814721947654716,-1.0030744994784948
18.400999999999506,1.6993820224057332,-1.0115268525477699
18.60099999999975,1.7225096278384278,-1.0162980031553805
18.799999999999994,1.7482384873850907,-1.024573944069151
19.000000000000238,1.7790326565384655,-1.0351325479727453
19.200000000000482,1.802576814685467,-1.0500334375829248
19.400000000000727,1.826582171728038,-1.0602475825440811
19.60000000000097,1.848775224219248,-1.065602238611935
19.800000000001216,1.873892535817849,-1.069858616436078
20.00000000000146,1.9056756513120225,-1.0753960241157938
