Time (s),X (m),Y (m)
0.001,-0.0007759513068619564,0.00026688599193002506
0.20000000000000015,0.0035184580052952785,-0.0010965270950424825
0.4000000000000003,0.009189943988130538,-0.0030058567274977017
0.6000000000000004,0.0237266338117166,-0.0006894669439132909
0.8000000000000006,0.04603025716825469,-0.0012627531391109263
1.0000000000000007,0.08600256980947334,-0.011526389127102894
1.2009999999999785,0.12271431056725833,-0.016590214151911788
1.4009999999999565,0.16700090536686965,-0.024343871743861212
1.6009999999999345,0.21202216294494666,-0.03628133106660877
1.8009999999999124,0.26616152629590856,-0.06293901257594821
2.0009999999998906,0.32229696834674876,-0.0967917936823498
2.2009999999998686,0.3684372295731739,-0.1300082183250744
2.4009999999998466,0.3956273174408277,-0.16509996694873794
2.6009999999998246,0.4114427192798133,-0.2019195437973286
2.8009999999998025,0.4138808241987458,-0.23096026016051507
3.0009999999997805,0.4053895576504361,-0.25077904771237675
3.2009999999997585,0.3721909630033745,-0.2598416912343223
3.4009999999997365,0.34298172060753657,-0.26685401373341855
3.6009999999997144,0.30908423422394127,-0.266829324650442
3.8009999999996924,0.2718005206099741,-0.2614245965125249
4.000999999999671,0.2277799746335522,-0.24153880842417735
4.200999999999738,0.19052435384430036,-0.22048154498689132
4.400999999999804,0.1623607568624373,-0.19149261080110783
4.600999999999871,0.14480704203178116,-0.15184668172731702
4.800999999999938,0.13553083230079999,-0.09927477225008587
5.000000000000004,0.13532235275498772,-0.0522173209996369
5.200000000000071,0.14797797560292042,-0.0004750896790688333
5.400000000000138,0.1687306712869117,0.058715847374334294
5.600000000000205,0.1966450785433344,0.12870549716710974
5.800000000000272,0.23661049944532533,0.20348411636363165
6.000000000000338,0.27662761500074307,0.2620738727364495
6.200000000000405,0.32761685905733573,0.28706354726809613
6.400000000000472,0.38311408259133417,0.27081646582727287
6.600000000000539,0.4300236222282044,0.24819790958973728
6.800000000000606,0.4484648642580988,0.2121597401148786
7.000000000000672,0.4378593323104155,0.16774268103252274
7.200000000000739,0.4369967999570289,0.12241918287588963
7.400000000000806,0.4183012447287817,0.09348004476805327
7.600000000000873,0.3817773772399025,0.09244678603629676
7.8000000000009395,0.3371419820601804,0.11142033110205486
8.000000000001005,0.2978936151859175,0.13916176945253436
8.200000000000895,0.2739976244033706,0.18556249147649725
8.400000000000784,0.2608589873444685,0.23300636109303985
8.600000000000673,0.25542212674274634,0.28410435872740836
8.800000000000562,0.2696723146543821,0.3414762437048112
9.000000000000451,0.29204539817893205,0.4018525347463846
9.20000000000034,0.3122398851280038,0.45325985742914954
9.40000000000023,0.3328861286042756,0.5114892892898167
9.600000000000119,0.36473979919666005,0.5735317864485674
9.800000000000008,0.40699134654070573,0.6286682896091842
10.000999999999896,0.466531198286337,0.6613955358865226
10.200999999999786,0.524772806013941,0.6679823803382041
10.400999999999675,0.5694734238351459,0.6627399362557594
10.600999999999564,0.597233547926165,0.648767758948415
10.800999999999453,0.6021159090751396,0.6177413506046532
11.000999999999342,0.5853874412562043,0.5742824189471666
11.200999999999231,0.5457453667145062,0.5479956829461192
11.40099999999912,0.48816838982602817,0.5501251704322521
11.60099999999901,0.4284431671899811,0.5726660818935877
11.800999999998899,0.3702823499225539,0.6085653537649742
12.000999999998788,0.31277585862802765,0.6540382021951561
12.200999999998677,0.2743602500183611,0.7041017075623264
12.400999999998566,0.2599862976310092,0.7624762959913044
12.600999999998455,0.27649523051601477,0.8241456909092235
12.800999999998345,0.32105902813990894,0.8686873819848644
13.000999999998234,0.37326979312950676,0.8914193584187227
13.200999999998123,0.420411718003265,0.9021538910683472
13.400999999998012,0.47945171031769324,0.89117699364454
13.600999999997901,0.5406193251016804,0.8767644058162911
13.80099999999779,0.5986363793163494,0.8551240586464806
14.00099999999768,0.6520559269412283,0.8148553307335034
14.200999999997569,0.6773496157333578,0.7585566836692548
14.400999999997458,0.6781577894621597,0.6974204827437934
14.600999999997347,0.6781984265633703,0.6460511305359824
14.800999999997236,0.6785818172069288,0.5989420457273238
15.000999999997125,0.671835301675575,0.5432110574244782
15.200999999997014,0.6363481247832626,0.4901418765175946
15.400999999996904,0.5960419665171451,0.461022025335053
15.600999999996793,0.5501954488552013,0.4532282625536222
15.800999999996682,0.49261885641937714,0.46148491560907423
16.000999999996573,0.4247003110339364,0.4806790511168609
16.200999999996817,0.3532674832945855,0.5061704553630064
16.40099999999706,0.28226386114291097,0.5373880564482336
16.600999999997306,0.20631267900662167,0.5735250107397353
16.80099999999755,0.12633995214760607,0.6104293272069579
17.000999999997795,0.046277201679799644,0.6511944002526387
17.20099999999804,-0.042327429838448886,0.7066724031980399
17.400999999998284,-0.13006913301630701,0.7565426269272932
17.60099999999853,-0.2117436811527347,0.801951047853018
17.800999999998773,-0.2869266987812037,0.851145507532527
18.000999999999017,-0.3373118636204237,0.9061120644287625
18.20099999999926,-0.3624808275176224,0.9643727477408349
18.400999999999506,-0.3590194748209824,1.0379195200070446
18.60099999999975,-0.32928728863287116,1.1188917617988876
18.799999999999994,-0.29324009409943524,1.197506047684012
19.000000000000238,-0.23142673527339935,1.2580643580361526
19.200000000000482,-0.15237862284980777,1.2914305319668298
19.400000000000727,-0.07605070851724621,1.3042704671126184
19.60000000000097,0.00039373422786967075,1.297515167512659
19.800000000001216,0.07273224444854882,1.2831243175801748
20.00000000000146,0.12932518616012187,1.264418994801071
