Time (s),X (m),Y (m)
0.001,-0.0007144750753253542,-0.00043579054991000363
0.20000000000000015,-0.0023694166086381608,-0.001638869610478362
0.4000000000000003,0.0004343683777673946,0.00023896779308702927
0.6000000000000004,0.006346442128713239,0.0017499776192614566
0.8000000000000006,0.012863976190403878,-5.583028585306619e-05
1.0000000000000007,0.016959294627648388,0.0023085815735305547
1.2009999999999785,0.020872411693378976,0.0007096417408161248
1.4009999999999565,0.02633044061184051,0.003173012696628718
1.6009999999999345,0.032397831860492936,0.0012775952662545324
1.8009999999999124,0.03459425026716348,0.0020340845174221193
2.0009999999998906,0.04359596533475722,0.005387486378626464
2.2009999999998686,0.05069592790911087,0.0034011481720975937
2.4009999999998466,0.06339111879621968,0.005148875704289015
2.6009999999998246,0.07174385776096194,0.005818050194180201
2.8009999999998025,0.07605372847719062,0.0071158744687845965
3.0009999999997805,0.08335562758022733,0.011787003191131965
3.2009999999997585,0.09326346195185027,0.011419909042023422
3.4009999999997365,0.10085579728173222,0.01125520179904481
3.6009999999997144,0.10934308581670203,0.010671766719747663
3.8009999999996924,0.11725458812246413,0.014416011170249519
4.000999999999671,0.1299338588411647,0.01826345615433593
4.200999999999738,0.13664711803412033,0.021878118331233574
4.400999999999804,0.14261483867480387,0.02272094865550816
4.600999999999871,0.1522640867260474,0.024661836788600597
4.800999999999938,0.1582141711371059,0.024186661725702285
5.000000000000004,0.16507394048432963,0.0266554353269923
5.200000000000071,0.17813314102361752,0.028314608783972607
5.400000000000138,0.18738395672980918,0.02722092893340809
5.600000000000205,0.19662090434260504,0.025398938406476623
5.800000000000272,0.20749427140291868,0.02696835439384582
6.000000000000338,0.21594765216053843,0.028836085529800635
6.200000000000405,0.231591329564868,0.03362384789245344
6.400000000000472,0.24007123612229178,0.033407585200410074
6.600000000000539,0.24880776816696598,0.03426893699742304
6.800000000000606,0.2581629123774116,0.03413286366600497
7.000000000000672,0.2648394204531963,0.033433065777899944
7.200000000000739,0.2767490782291521,0.03419965088152985
7.400000000000806,0.28937549995809553,0.036052693518428505
7.600000000000873,0.29930779214257663,0.03614774407668377
7.8000000000009395,0.30681997075462186,0.0370610416328831
8.000000000001005,0.31152162840865477,0.035541854336653585
8.200000000000895,0.31958833950862703,0.03634677593735991
8.400000000000784,0.3323668873274665,0.034501133797189575
8.600000000000673,0.34180775592508483,0.0323474288348109
8.800000000000562,0.3491139784894093,0.031684275634858185
9.000000000000451,0.35825467206229195,0.030532729539852102
9.20000000000034,0.36571929688113125,0.027198318352603962
9.40000000000023,0.37610164750046027,0.02353954162415214
9.600000000000119,0.3855585988296753,0.018324605720157892
9.800000000000008,0.39366264602232937,0.013670258783029628
10.000999999999896,0.4026282890934349,0.010639750602926986
10.200999999999786,0.4117474607601187,0.007169409551990053
10.400999999999675,0.42069823358668224,0.004801644923642972
10.600999999999564,0.430917767005003,0.0012045674722573176
10.800999999999453,0.44087769066351346,-0.0025178395222276917
11.000999999999342,0.45554849302882366,-0.004684725919705803
11.200999999999231,0.4677220182717524,-0.00807366505987539
11.40099999999912,0.4836643734897219,-0.012898982226594705
11.60099999999901,0.491813053457118,-0.018470337675806765
11.800999999998899,0.5019340033988967,-0.021013449141827734
12.000999999998788,0.5054171913157459,-0.021836977459813417
12.200999999998677,0.5178633936294308,-0.021682425599305662
12.400999999998566,0.5301390099997924,-0.021057657838308323
12.600999999998455,0.5425520068142549,-0.02003436766449606
12.800999999998345,0.555197451267659,-0.021416624689313414
13.000999999998234,0.5634919522304697,-0.02166912167024389
13.200999999998123,0.5742432834633147,-0.019866699970367722
13.400999999998012,0.5797407256899463,-0.024474595969092416
13.600999999997901,0.5883275751313741,-0.02788738886613735
13.80099999999779,0.6053112141072131,-0.03031491695204907
14.00099999999768,0.6167723049463519,-0.03763391350041364
14.200999999997569,0.6211734998815481,-0.04496327407230146
14.400999999997458,0.631272918834287,-0.04883141800016895
14.600999999997347,0.6392821388870025,-0.05416123506426228
14.800999999997236,0.6477468264244731,-0.06040148583591218
15.000999999997125,0.6570410839497486,-0.06706720865410523
15.200999999997014,0.671316054282117,-0.0737908887843259
15.400999999996904,0.6838824183807106,-0.07803920011706698
15.600999999996793,0.6940437805220915,-0.08243056687605055
15.800999999996682,0.7100777801980159,-0.08913203453839744
16.000999999996573,0.7210781741138328,-0.09417274149794828
16.200999999996817,0.7270024618776029,-0.0987647648787325
16.40099999999706,0.7365874844539126,-0.09982837918452313
16.600999999997306,0.7453162651235034,-0.10561929071707439
16.80099999999755,0.7516538534281896,-0.11006314217180647
17.000999999997795,0.7581593056863523,-0.11279188993209437
17.20099999999804,0.7658587323222723,-0.11486086232817316
17.400999999998284,0.7754078315964676,-0.11880040713301965
17.60099999999853,0.7866240051586498,-0.12369374590978006
17.800999999998773,0.796362880798278,-0.1306199265734343
18.000999999999017,0.8077384740266423,-0.13673379196651383
18.20099999999926,0.8209644215964975,-0.14370649736270105
18.400999999999506,0.8321008455771196,-0.1521009254522009
18.60099999999975,0.8456466681361963,-0.15441910666799405
18.799999999999994,0.855046297253558,-0.15792065288754534
19.000000000000238,0.8624941422955754,-0.15910915526201086
19.200000000000482,0.873137574571136,-0.16049496775433944
19.400000000000727,0.8854701315136145,-0.16460342279923865
19.60000000000097,0.8980765639288841,-0.16614498125979943
19.800000000001216,0.9090590249450402,-0.16833269270792262
20.00000000000146,0.919315797495057,-0.1705747397725176
