Time (s),X (m),Y (m)
0.001,0.0003991412691229187,-0.0010155025257856578
0.20000000000000015,0.0008074576293957665,0.003642357454963396
0.4000000000000003,0.004207951194634326,0.0008206586733952616
0.6000000000000004,0.01578411908945185,-0.001022878252962478
0.8000000000000006,0.030682224396933536,-0.004576750872644118
1.0000000000000007,0.0469818019357114,-0.01828548661298374
1.2009999999999785,0.06728295322668446,-0.03524355196208198
1.4009999999999565,0.08890720773764421,-0.042466817411331126
1.6009999999999345,0.10580637558414097,-0.049251310726825565
1.8009999999999124,0.11758361747014862,-0.05374061282600225
2.0009999999998906,0.13450997092219885,-0.0653249178240785
2.2009999999998686,0.1419058804110582,-0.08941867389209508
2.4009999999998466,0.15352199617692497,-0.10852710711349067
2.6009999999998246,0.16785495383870505,-0.12588527496004076
2.8009999999998025,0.1834322875687728,-0.14681976906583122
3.0009999999997805,0.20849876312122406,-0.15699028777089755
3.2009999999997585,0.23662423050248207,-0.16574986013246365
3.4009999999997365,0.2571891931086551,-0.184636393181699
3.6009999999997144,0.27147547136143213,-0.21407513210348655
3.8009999999996924,0.28400709104452043,-0.2359836969578431
4.000999999999671,0.3002245955546581,-0.2637050812657763
4.200999999999738,0.3175089635064936,-0.2873914246255182
4.400999999999804,0.324089706701477,-0.3136259479342448
4.600999999999871,0.32799043742250694,-0.3368845078127612
4.800999999999938,0.33687583090496326,-0.35592467862974014
5.000000000000004,0.3488731883110039,-0.37594557016411695
5.200000000000071,0.3622858054199973,-0.3998454710869026
5.400000000000138,0.3716714267890626,-0.42582300955945884
5.600000000000205,0.37902426823306407,-0.4493854122473258
5.800000000000272,0.3782801954413872,-0.4723846257734196
6.000000000000338,0.3613658692427756,-0.4956795456548377
6.200000000000405,0.3527071845850941,-0.515938868460813
6.400000000000472,0.3404316758375357,-0.5418619801872899
6.600000000000539,0.3414925865673883,-0.5712052348502891
6.800000000000606,0.3278475522649427,-0.5931926212648742
7.000000000000672,0.3176059752385482,-0.6123007300517845
7.200000000000739,0.3158608401162376,-0.6424897881353648
7.400000000000806,0.31414954921551264,-0.6694391873835197
7.600000000000873,0.3046559883536218,-0.7013776399105629
7.8000000000009395,0.2828703549040671,-0.7285784761732009
8.000000000001005,0.2777497894881549,-0.7544297410876781
8.200000000000895,0.2706020148448414,-0.7785155146261225
8.400000000000784,0.25261660221664956,-0.7970554857448188
8.600000000000673,0.24264343448490822,-0.8193081307126145
8.800000000000562,0.220918685054208,-0.8427140088664685
9.000000000000451,0.19872605750006392,-0.871103811674222
9.20000000000034,0.18240387193460322,-0.8977549800634368
9.40000000000023,0.1685292838832875,-0.9192526912044169
9.600000000000119,0.16255528891966955,-0.9411817914387172
9.800000000000008,0.15827302606072904,-0.9714934704961866
10.000999999999896,0.1420939728514971,-0.998253282106085
10.200999999999786,0.1320181008847065,-1.0274618873988017
10.400999999999675,0.12299367210632979,-1.0605988268256783
10.600999999999564,0.11886411447582175,-1.0883486648003393
10.800999999999453,0.10255888782449368,-1.1125827234701395
11.000999999999342,0.0852703841284126,-1.1400504351419327
11.200999999999231,0.05881005121460037,-1.1600166249452013
11.40099999999912,0.03065071352100962,-1.1780220066243539
11.60099999999901,-0.00708455496388396,-1.2031253213289859
11.800999999998899,-0.04441578514366418,-1.2211863708348085
12.000999999998788,-0.05788380523920664,-1.2458014741407637
12.200999999998677,-0.06686486225199398,-1.277069357054042
12.400999999998566,-0.07801042264326428,-1.3016068473427633
12.600999999998455,-0.09758885290525464,-1.3159046457560446
12.800999999998345,-0.12143027377131675,-1.3353626601315634
13.000999999998234,-0.1504612026371098,-1.3542774899536694
13.200999999998123,-0.17001269053137705,-1.3751562810656532
13.400999999998012,-0.18778684172712776,-1.3965322484755776
13.600999999997901,-0.21508138784778458,-1.4100851514068367
13.80099999999779,-0.23747489500706076,-1.4220445795796723
14.00099999999768,-0.26269837269197244,-1.45107359905079
14.200999999997569,-0.2907725565424382,-1.4714133116432109
14.400999999997458,-0.31129530740844347,-1.4943517256394936
14.600999999997347,-0.3471926514492925,-1.5008019150826306
14.800999999997236,-0.3803319137842232,-1.5069602801294923
15.000999999997125,-0.4118003938257877,-1.528162337850634
15.200999999997014,-0.4382961488493932,-1.5535310581312156
15.400999999996904,-0.46393361266380556,-1.571094773309824
15.600999999996793,-0.4877948350086687,-1.5862581484732006
15.800999999996682,-0.5087935383900843,-1.6076850139902783
16.000999999996573,-0.5348879619436665,-1.63829817307398
16.200999999996817,-0.5560705875422932,-1.6609694112032463
16.40099999999706,-0.5810835883572689,-1.6691403891155911
16.600999999997306,-0.6052333399325814,-1.6672526751786327
16.80099999999755,-0.6335084862853066,-1.6493234632029625
17.000999999997795,-0.6587468445387388,-1.6397093665432514
17.20099999999804,-0.6843822973390514,-1.6249779560433708
17.400999999998284,-0.7056762904329275,-1.6047677689733852
17.60099999999853,-0.7328043092322327,-1.6042504338176222
17.800999999998773,-0.7566073141658077,-1.5899453108320782
18.000999999999017,-0.7791968390201401,-1.5889340795963796
18.20099999999926,-0.811645569644712,-1.5712793115909427
18.400999999999506,-0.8385504003380112,-1.5633990290848558
18.60099999999975,-0.8652121413845009,-1.555356309542888
18.799999999999994,-0.8941217850114669,-1.5544500630285478
19.000000000000238,-0.9230102337430393,-1.5489832248503452
19.200000000000482,-0.9531112115804008,-1.541587434668499
19.400000000000727,-0.9718935435514268,-1.5202440102130532
19.60000000000097,-0.9887831022103346,-1.5032653958708844
19.800000000001216,-1.0123398878756154,-1.4958361853045097
20.00000000000146,-1.0441529836253078,-1.4819323021334865
