Time (s),X (m),Y (m)
0.001,-0.0004427414248986554,0.0007899207378008392
0.20000000000000015,-0.000909835018252235,0.003619565935251677
0.4000000000000003,0.001226821617146134,0.003969596529868995
0.6000000000000004,-0.0006748124054794608,0.008275887706851932
0.8000000000000006,0.006438418803469686,0.007428210248718702
1.0000000000000007,0.013221435786027372,0.009145378953740608
1.2009999999999785,0.016730605882909737,0.012260967124020077
1.4009999999999565,0.01717045275510337,0.013668439079634694
1.6009999999999345,0.025433451195630143,0.009061270938029288
1.8009999999999124,0.03686563762541186,0.005642719325464456
2.0009999999998906,0.047061274202887936,0.004964665679782091
2.2009999999998686,0.058276441151270834,0.0035734311178983367
2.4009999999998466,0.06869201700136705,0.0022085204831514393
2.6009999999998246,0.07318324333714461,0.0028875938311712494
2.8009999999998025,0.07940729532528225,0.003782957048219751
3.0009999999997805,0.09259787776757737,0.0013751601464476982
3.2009999999997585,0.09759206411068833,0.0021180268330221147
3.4009999999997365,0.10175911312304166,0.0027768048076951967
3.6009999999997144,0.1078980002801134,0.0040411661458817595
3.8009999999996924,0.11189170671066978,0.0061756924129623275
4.000999999999671,0.12061530932433946,0.009698135770434237
4.200999999999738,0.12806607528724898,0.01080331204258567
4.400999999999804,0.1317988450376236,0.01299601223166342
4.600999999999871,0.13936349838235942,0.013786777395409342
4.800999999999938,0.14673065830574347,0.01486595812819556
5.000000000000004,0.15659930736376163,0.014442506645069412
5.200000000000071,0.16348214683610224,0.015078252159297477
5.400000000000138,0.16787668620324248,0.017453832282062882
5.600000000000205,0.17400052790417686,0.020083463715369575
5.800000000000272,0.17830863378806475,0.021612085816274187
6.000000000000338,0.18136153692942053,0.02390437245863808
6.200000000000405,0.1875304019346695,0.026578635049111995
6.400000000000472,0.19601124915085508,0.025917897160978733
6.600000000000539,0.2038692785190115,0.026094039291042634
6.800000000000606,0.21341407902698112,0.025915024859466784
7.000000000000672,0.2195511752477811,0.02798774551755823
7.200000000000739,0.22842212288173655,0.029484814764050155
7.400000000000806,0.23563221465074322,0.031667857996710666
7.600000000000873,0.24738088077831755,0.03253011366367055
7.8000000000009395,0.2538948601556714,0.03485835707753523
8.000000000001005,0.25984525258105945,0.037148497780433144
8.200000000000895,0.2632090036760403,0.03877349389030655
8.400000000000784,0.2717404118371965,0.04022130862519235
8.600000000000673,0.27891019858827154,0.042532691372135466
8.800000000000562,0.2854022119084555,0.04477579158305466
9.000000000000451,0.2919750553977172,0.04704029844054265
9.20000000000034,0.3014433723248119,0.04889676577729272
9.40000000000023,0.31308228895997964,0.0504062444448508
9.600000000000119,0.31961654768260983,0.0512028465734178
9.800000000000008,0.3239760912763735,0.05572274449970121
10.000999999999896,0.3316328916501107,0.057362918253262445
10.200999999999786,0.33488397264009356,0.060286626619230045
10.400999999999675,0.34192469376138174,0.06269139967347527
10.600999999999564,0.35049091861597587,0.06592756724237771
10.800999999999453,0.35337933686988704,0.06896751911893867
11.000999999999342,0.35779199022682245,0.07200628030731507
11.200999999999231,0.36878121110847734,0.07262891957867282
11.40099999999912,0.3801971700195585,0.07428842063571706
11.60099999999901,0.3874220055783646,0.07713250494615528
11.800999999998899,0.39192466646660334,0.08004474163875369
12.000999999998788,0.3957781226174354,0.08370153110095382
12.200999999998677,0.4039334435630713,0.08761584068672199
12.400999999998566,0.4096089995266204,0.09062691187430748
12.600999999998455,0.41473542760917476,0.09278227867763135
12.800999999998345,0.41931174740648874,0.09782806229455947
13.000999999998234,0.4245444043116197,0.10408679087508435
13.200999999998123,0.4289749139698085,0.10757797541592932
13.400999999998012,0.4328208025549335,0.11133209358263836
13.600999999997901,0.4388756240202818,0.11437832186714814
13.80099999999779,0.44255901763174665,0.11659943018883316
14.00099999999768,0.4481389354808767,0.12023626471018418
14.200999999997569,0.4533450667941184,0.12358293586108497
14.400999999997458,0.45935781935437675,0.12716670787147513
14.600999999997347,0.46409054776862413,0.1312233295163806
14.800999999997236,0.47073090114011407,0.13359843185657136
15.000999999997125,0.47944618095667396,0.13624109332240567
15.200999999997014,0.4854394703816212,0.14002566297922775
15.400999999996904,0.49334408610744274,0.14303763492748936
15.600999999996793,0.503280176837889,0.14713366604406253
15.800999999996682,0.5101149985436579,0.15086187181993252
16.000999999996573,0.5147063202400923,0.15442781883336418
16.200999999996817,0.524579388864949,0.15586882328706952
16.40099999999706,0.5284009826154554,0.1596960815787897
16.600999999997306,0.5309472915011335,0.1635249834672543
16.80099999999755,0.5404631082025252,0.16614977802865208
17.000999999997795,0.5475950792528272,0.1691226699788713
17.20099999999804,0.5513442185406745,0.17331719173051868
17.400999999998284,0.5540825040868822,0.17520817435947905
17.60099999999853,0.5589646975944188,0.1791657513165853
17.800999999998773,0.5665257209141386,0.1820153922283698
18.000999999999017,0.5767972377769046,0.18491738210363073
18.20099999999926,0.5799385865051847,0.18801457155792134
18.400999999999506,0.5817709639302655,0.19092372941841765
18.60099999999975,0.5894902492540846,0.19280103695133158
18.799999999999994,0.5942086257568954,0.19742900412036254
19.000000000000238,0.6003943409745836,0.20231367021684557
19.200000000000482,0.6063736051834046,0.20620592853973907
19.400000000000727,0.6085796327708765,0.20997495768840566
19.60000000000097,0.6151688957707623,0.21392560923016876
19.800000000001216,0.6224517720722244,0.21610254086274466
20.00000000000146,0.6306338530244014,0.21855325198908823
