Time (s),X (m),Y (m)
0.001,-0.00013259955118837574,-0.0009689812320744441
0.20000000000000015,0.0037930996271220373,0.00410455316372361
0.4000000000000003,0.011450143751370502,0.013645595496328683
0.6000000000000004,0.0249922893536048,0.01501261273444566
0.8000000000000006,0.04040776060706984,0.02015021300694513
1.0000000000000007,0.05523159254180472,0.022452009919463996
1.2009999999999785,0.07218555210773424,0.015285445287682267
1.4009999999999565,0.09264921664987183,0.006408367707307668
1.6009999999999345,0.11577320963412982,0.017697863338042307
1.8009999999999124,0.13499065571233193,0.017044099057224017
2.0009999999998906,0.15124150623721538,0.014552410986094319
2.2009999999998686,0.1731709451139963,0.011138407156052074
2.4009999999998466,0.20068988398232698,0.014886007576700354
2.6009999999998246,0.22417531634731322,0.008208075766607275
2.8009999999998025,0.24972169958670432,0.016531647513742958
3.0009999999997805,0.27263040960283996,0.018120868937236075
3.2009999999997585,0.29153056728933613,0.017327128719667347
3.4009999999997365,0.31031515837390283,0.01541146410669089
3.6009999999997144,0.3296074185727735,0.01460321249349168
3.8009999999996924,0.35008965057721836,0.009326663546404882
4.000999999999671,0.3671290684111241,0.002065197048568204
4.200999999999738,0.38429835578197397,-0.0007098689047726652
4.400999999999804,0.40102549797103604,0.007131669781469148
4.600999999999871,0.42737658965856384,0.017890558270759194
4.800999999999938,0.4570599701588013,0.02226269536912864
5.000000000000004,0.48186564083919947,0.010177201333186434
5.200000000000071,0.5094540264191876,0.016919328167914895
5.400000000000138,0.5360797437432244,0.021778735369834313
5.600000000000205,0.5593459473123111,0.01834384194151185
5.800000000000272,0.5832413837022131,0.012947349895149427
6.000000000000338,0.604924603658228,0.0089750745438209
6.200000000000405,0.6259067482280077,0.007902230017645694
6.400000000000472,0.650708233074753,0.012784343823895135
6.600000000000539,0.6705417248418206,0.020712188692415274
6.800000000000606,0.6926775113617857,0.03364955109833049
7.000000000000672,0.7173361167654846,0.03764749403489293
7.200000000000739,0.73921386727943,0.05699341625762024
7.400000000000806,0.7600225044993906,0.05995178292449881
7.600000000000873,0.7863834058436215,0.064731770913761
7.8000000000009395,0.8089855942248431,0.08933292339785248
8.000000000001005,0.8359442995440982,0.11838652184479932
8.200000000000895,0.8638932818673755,0.1319054355495004
8.400000000000784,0.8865864242123447,0.15201796010100185
8.600000000000673,0.9108555472067781,0.16062282817053805
8.800000000000562,0.9301614010097217,0.17762950684404663
9.000000000000451,0.9566970730224345,0.20280886955945263
9.20000000000034,0.9834352073300171,0.22076056875738528
9.40000000000023,1.0106008050581872,0.24244649288961606
9.600000000000119,1.0385412962230356,0.26569080737873996
9.800000000000008,1.0658835569615583,0.28215154777783225
10.000999999999896,1.0928252209488403,0.3055904865362787
10.200999999999786,1.122801565040224,0.3185050852124502
10.400999999999675,1.1510196702266344,0.3282831392064257
10.600999999999564,1.1822274719722587,0.3425909982331401
10.800999999999453,1.2108284583513234,0.3511663898508502
11.000999999999342,1.2377054498223987,0.3514724229569467
11.200999999999231,1.2619934385408467,0.355485038893469
11.40099999999912,1.2815323309852553,0.38327557875414725
11.60099999999901,1.3006746975390944,0.3972416493280643
11.800999999998899,1.3201174162383795,0.40551087789296686
12.000999999998788,1.3422877715379866,0.4167820586622068
12.200999999998677,1.3646324233239835,0.4234832890133857
12.400999999998566,1.3846793949633769,0.43324700030300717
12.600999999998455,1.4075519843329085,0.4439912934124544
12.800999999998345,1.4321642647228152,0.46530592839242063
13.000999999998234,1.4544959453781794,0.48683162037042155
13.200999999998123,1.4757263035327195,0.5151351408926371
13.400999999998012,1.497455750139484,0.5426509566604385
13.600999999997901,1.5222708326538155,0.5614550596996383
13.80099999999779,1.5461103243684318,0.5875681080936336
14.00099999999768,1.5750164898431445,0.5990140942109458
14.200999999997569,1.600525690052842,0.6130363779867041
14.400999999997458,1.631015360776396,0.6230783095919591
14.600999999997347,1.6590511041508562,0.6476056526143137
14.800999999997236,1.6890539412819097,0.6717466014034164
15.000999999997125,1.7116679093806055,0.6759639135941814
15.200999999997014,1.735722585517993,0.6817083766923818
15.400999999996904,1.7645494701815672,0.6918197159141418
15.600999999996793,1.7907721452013998,0.6989001685521117
15.800999999996682,1.8202163005140233,0.7075860396383868
16.000999999996573,1.8483313951299578,0.7222117575038118
16.200999999996817,1.878955481399338,0.7364157381313934
16.40099999999706,1.9084815036830363,0.7563212803377576
16.600999999997306,1.938276688059842,0.7779107661046696
16.80099999999755,1.969028617588338,0.7958341095913294
17.000999999997795,1.9947907857957734,0.7951181907673454
17.20099999999804,2.02333247941625,0.8175683921114171
17.400999999998284,2.0556507695415585,0.8291495710789732
17.60099999999853,2.084648214400641,0.8502400272398118
17.800999999998773,2.108563783237211,0.8658494456558287
18.000999999999017,2.134694190647665,0.8813196046555954
18.20099999999926,2.1593232043022783,0.8982096578980749
18.400999999999506,2.1845032903678145,0.9194384088833092
18.60099999999975,2.2116393380535766,0.937221936821783
18.799999999999994,2.2350661631607465,0.954286140904003
19.000000000000238,2.257390638301208,0.9699130077084172
19.200000000000482,2.2897449320679413,0.9819093567643419
19.400000000000727,2.317242784550316,0.9968803718616928
19.60000000000097,2.343762830259659,1.013370465153969
19.800000000001216,2.362053740780884,1.0332349069309092
20.00000000000146,2.381091873890566,1.0622759068803331
