Time (s),X (m),Y (m)
0.001,-0.000811087514270633,3.327365771613117e-19
0.20000000000000015,0.0028189515246179963,-0.000619657567289236
0.4000000000000003,0.013167519270850005,-0.0017165253334896445
0.6000000000000004,0.016757145187691794,-0.004646533110508983
0.8000000000000006,0.025220960276309688,-0.007917564977420329
1.0000000000000007,0.030467696738035756,-0.009147839689227815
1.2009999999999785,0.032918150176882426,-0.011084883409856186
1.4009999999999565,0.0429256997628438,-0.011536404981372449
1.6009999999999345,0.06088900797732742,-0.011015854031897792
1.8009999999999124,0.07323057439608684,-0.01208395942649457
2.0009999999998906,0.08379934607999645,-0.01397632234239185
2.2009999999998686,0.096475017616968,-0.015257038804560306
2.4009999999998466,0.10209662398138122,-0.014486428401515528
2.6009999999998246,0.11421048640211903,-0.014544837080457795
2.8009999999998025,0.135077048958615,-0.021960749248548576
3.0009999999997805,0.1409026734023182,-0.021595565875550112
3.2009999999997585,0.14859585315704613,-0.022722581343902773
3.4009999999997365,0.1590490863031808,-0.027749111743033728
3.6009999999997144,0.17090914979048458,-0.02770467463632673
3.8009999999996924,0.18675788227167855,-0.02879136375194732
4.000999999999671,0.1957998223661719,-0.03614904337190331
4.200999999999738,0.2073648026280601,-0.03837327754142636
4.400999999999804,0.21375626451348156,-0.04311241942153438
4.600999999999871,0.23441647051469494,-0.04939242210110511
4.800999999999938,0.25316524779748384,-0.054979967608076
5.000000000000004,0.274589140512943,-0.058159567429578916
5.200000000000071,0.29057121244839607,-0.06316272422866658
5.400000000000138,0.30576533520010146,-0.06766512326104167
5.600000000000205,0.3219559217968361,-0.07302659963740435
5.800000000000272,0.34249104384191636,-0.07950029077430162
6.000000000000338,0.3601679906141333,-0.0853961235479482
6.200000000000405,0.3858977696291458,-0.09355404429026963
6.400000000000472,0.41308070201109154,-0.10053536603567001
6.600000000000539,0.4426257027025027,-0.11203568784327987
6.800000000000606,0.4655018838972862,-0.12226158195792272
7.000000000000672,0.4764368049824957,-0.1325256061356574
7.200000000000739,0.48641468001992955,-0.13653751973390055
7.400000000000806,0.4959322806832239,-0.14500683322964422
7.600000000000873,0.5081482092231532,-0.14906505643345078
7.8000000000009395,0.5161463339609822,-0.15509439236149675
8.000000000001005,0.5280294034165478,-0.1605948973700609
8.200000000000895,0.5494694667649151,-0.17090086270409685
8.400000000000784,0.5624777162235058,-0.17321043634023295
8.600000000000673,0.5786262153089058,-0.17600971347872849
8.800000000000562,0.5932273951617341,-0.17928747487227062
9.000000000000451,0.6145288909866707,-0.19147230614120272
9.20000000000034,0.6286016915019373,-0.20053619867060266
9.40000000000023,0.6497909611607383,-0.20864493935544307
9.600000000000119,0.6740811966978703,-0.22137812653940694
9.800000000000008,0.6916753793383251,-0.2266118429131293
10.000999999999896,0.7165901334800436,-0.23853363220168813
10.200999999999786,0.740403655660437,-0.24928228762117943
10.400999999999675,0.7618471337847539,-0.25817176922345436
10.600999999999564,0.7856394466872322,-0.27212404136760676
10.800999999999453,0.7998372528690966,-0.2805732908766333
11.000999999999342,0.812498490743518,-0.2854716610057556
11.200999999999231,0.8326023208281109,-0.2954267010043191
11.40099999999912,0.8553976133750378,-0.3093327882650932
11.60099999999901,0.8845768371393644,-0.32396487915573385
11.800999999998899,0.9046115380148779,-0.33852538619368394
12.000999999998788,0.9254555311152904,-0.35101900543135844
12.200999999998677,0.9395912380021807,-0.36081771794841916
12.400999999998566,0.9584746077820422,-0.37036981896900784
12.600999999998455,0.9860257596867585,-0.3870714384334436
12.800999999998345,1.01602280763056,-0.40716456632334774
13.000999999998234,1.041447935835142,-0.42230708042387716
13.200999999998123,1.0607091939311375,-0.438230749046863
13.400999999998012,1.0805700748064127,-0.44681015996742973
13.600999999997901,1.1000811539802595,-0.457774812510169
13.80099999999779,1.123630951387931,-0.4677245220414395
14.00099999999768,1.1464505683124249,-0.48092598574270323
14.200999999997569,1.1680255803996997,-0.4932526316245153
14.400999999997458,1.1877663839455517,-0.5021261879174231
14.600999999997347,1.2130423497333291,-0.5158335048750426
14.800999999997236,1.2335609621248822,-0.5274591453316055
15.000999999997125,1.2594711641450798,-0.5459779836097983
15.200999999997014,1.2857286015964862,-0.5611027364443508
15.400999999996904,1.3038220127392441,-0.5692993859778739
15.600999999996793,1.323100529688419,-0.5771033099993225
15.800999999996682,1.3434644104397748,-0.5862251398811099
16.000999999996573,1.3661066412041565,-0.5993778010569832
16.200999999996817,1.382584705876324,-0.6102864933340011
16.40099999999706,1.3974860106151863,-0.621801452409652
16.600999999997306,1.4207477864794091,-0.6334411631625912
16.80099999999755,1.445346669324198,-0.6515485640934878
17.000999999997795,1.4609666511725479,-0.6653032322633686
17.20099999999804,1.4796441037808536,-0.6763832270228802
17.400999999998284,1.49758443985398,-0.6827242023514877
17.60099999999853,1.5175742071307503,-0.6933179559199218
17.800999999998773,1.5336783021689642,-0.7043390579018635
18.000999999999017,1.55301274689904,-0.7220739623163821
18.20099999999926,1.5730087282969516,-0.7280611190813229
18.400999999999506,1.59143293278288,-0.7310888239813068
18.60099999999975,1.6108061214610538,-0.74717967417333
18.799999999999994,1.6342651860696884,-0.7648648883028092
19.000000000000238,1.6544880345707869,-0.7811424167048439
19.200000000000482,1.6697702448535816,-0.7968798843203672
19.400000000000727,1.6905410701213253,-0.8202621216526159
19.60000000000097,1.714190287238648,-0.8449696200901621
19.800000000001216,1.7351561136137506,-0.8707379866583465
20.00000000000146,1.7512366449693135,-0.8879722054282209
