Time (s),X (m),Y (m)
0.001,-0.0005698399629515257,0.0006628221997479692
0.20000000000000015,0.004796126475375601,-0.0008823262598990339
0.4000000000000003,0.014965006825480987,-0.0009249646527071449
0.6000000000000004,0.03840774061889005,-0.011030149024778684
0.8000000000000006,0.06247250711599412,-0.009433256462131046
1.0000000000000007,0.08277433593491153,0.0016070005512343894
1.2009999999999785,0.10458110220249928,0.0026964963076084223
1.4009999999999565,0.13194391613538037,-0.01153065521707332
1.6009999999999345,0.16046771371921947,-0.027135269535936625
1.8009999999999124,0.1894958372086467,-0.039461342131471566
2.0009999999998906,0.21711510779996945,-0.05338126281604508
2.2009999999998686,0.24019994793232072,-0.08765376469796961
2.4009999999998466,0.2566748585933113,-0.12059654152347567
2.6009999999998246,0.26840380080132353,-0.14676785133737036
2.8009999999998025,0.2670634730724686,-0.1802610887228639
3.0009999999997805,0.2612216601357203,-0.2190478271915542
3.2009999999997585,0.254943339954722,-0.2547340718055034
3.4009999999997365,0.23474473118664094,-0.2772690158160493
3.6009999999997144,0.19901243244007283,-0.29201361117645913
3.8009999999996924,0.1746868766119289,-0.30979596334430076
4.000999999999671,0.15615393615896825,-0.33000421696998083
4.200999999999738,0.136036582527318,-0.3393521393588947
4.400999999999804,0.1092961105507706,-0.34567335856672876
4.600999999999871,0.07850910707125869,-0.34720614869019156
4.800999999999938,0.04857418444341029,-0.3172284878651593
5.000000000000004,0.024445709222765188,-0.2699295529290287
5.200000000000071,0.011970584396855607,-0.20946075675703743
5.400000000000138,0.009521314758464936,-0.14143432908122341
5.600000000000205,0.012033282041071562,-0.07225432725614135
5.800000000000272,0.017527493660798164,-0.0037245024544570854
6.000000000000338,0.01900008297696093,0.0530320282487549
6.200000000000405,0.024673540929489396,0.11314292996067776
6.400000000000472,0.0389240218745762,0.1726971122959308
6.600000000000539,0.057426466113953516,0.22258224544836472
6.800000000000606,0.06954981974465708,0.2737532320326921
7.000000000000672,0.09724025545706783,0.32862130317003146
7.200000000000739,0.12095479594812332,0.38360000209677053
7.400000000000806,0.15997420097984205,0.4310810961804728
7.600000000000873,0.19833844711198567,0.46847022605299665
7.8000000000009395,0.24218484744044155,0.49418373517541647
8.000000000001005,0.28921017505679353,0.5065670571602512
8.200000000000895,0.3327313789510113,0.5014863060314326
8.400000000000784,0.38237317331250537,0.479208971050715
8.600000000000673,0.42573791713156717,0.44349198906681125
8.800000000000562,0.4598501272934763,0.41463252879153717
9.000000000000451,0.48380003826032736,0.380133356387461
9.20000000000034,0.47785216092711175,0.3329900368636035
9.40000000000023,0.45957028276302625,0.28258491457285245
9.600000000000119,0.4296190450807033,0.2421560089350644
9.800000000000008,0.37249375229768966,0.21842946057469043
10.000999999999896,0.3111181484771634,0.20819128381939717
10.200999999999786,0.26031573940287867,0.2020273420064189
10.400999999999675,0.2069774526425881,0.2033732529542214
10.600999999999564,0.15013678834323602,0.21541946213414054
10.800999999999453,0.08749897578209644,0.2403272534960387
11.000999999999342,0.030148598521625426,0.26406093330577185
11.200999999999231,-0.026369665336153984,0.2928038898387641
11.40099999999912,-0.0808616438278666,0.31306238999705405
11.60099999999901,-0.12429168295858939,0.3447256425535173
11.800999999998899,-0.1473436639886854,0.38679131631776587
12.000999999998788,-0.1576667704312265,0.4334489399298177
12.200999999998677,-0.16458974360846562,0.47834980911516295
12.400999999998566,-0.1620113698919894,0.532443361173205
12.600999999998455,-0.14564857654644933,0.5921495712348833
12.800999999998345,-0.11509109287024118,0.6512382817693073
13.000999999998234,-0.08796576539974,0.7040662585230478
13.200999999998123,-0.05010688619352287,0.739239845099713
13.400999999998012,0.003085887248349544,0.7585561886822935
13.600999999997901,0.05585617862440761,0.7710570576169157
13.80099999999779,0.11107710378674587,0.7793103233770284
14.00099999999768,0.17678536044802173,0.7733104983880779
14.200999999997569,0.24443955083032795,0.7539951184752839
14.400999999997458,0.30943708542347653,0.7387198306151638
14.600999999997347,0.3638181102702906,0.7131879481521908
14.800999999997236,0.4021158181303709,0.6663668015430655
15.000999999997125,0.42801188921144223,0.6083164084700106
15.200999999997014,0.44056942925130416,0.552345922948486
15.400999999996904,0.4431620159496225,0.4939177988735565
15.600999999996793,0.4350073548477402,0.4432342257539343
15.800999999996682,0.4149175842951915,0.39560028180049006
16.000999999996573,0.37334410689842407,0.3560047904217945
16.200999999996817,0.3223989944071365,0.3256668219017149
16.40099999999706,0.26533931161244995,0.30602908557574854
16.600999999997306,0.2063847613998802,0.2977613831722715
16.80099999999755,0.14263069939235073,0.28745701043515015
17.000999999997795,0.07210799755471649,0.30292646896919295
17.20099999999804,8.19343985361387e-05,0.3421537980562339
17.400999999998284,-0.06692402538040071,0.38446158547397363
17.60099999999853,-0.12321237121015773,0.423885039617962
17.800999999998773,-0.16738026152849236,0.45814089039052713
18.000999999999017,-0.1944728527172093,0.5007550697768114
18.20099999999926,-0.20654064453083198,0.555760271558339
18.400999999999506,-0.20537801590421872,0.621611282263254
18.60099999999975,-0.19508154422171545,0.6852665466162742
18.799999999999994,-0.19043652154129892,0.7422789505269749
19.000000000000238,-0.18399716909815406,0.8063705882891525
19.200000000000482,-0.18270110775378884,0.8680099364525921
19.400000000000727,-0.1607354862922285,0.9276482226581628
19.60000000000097,-0.10415034443546951,0.9682658225141756
19.800000000001216,-0.04167400038088116,0.9937548879629214
20.00000000000146,0.024285865390038294,1.0028496097448503
