Time (s),X (m),Y (m)
0.001,0.0008115346074009382,-0.0008446836120385868
0.20000000000000015,0.0017817345483826864,0.003218502591529637
0.4000000000000003,0.013290150933804895,0.002390529564115056
0.6000000000000004,0.020188237833766706,0.004207053026305782
0.8000000000000006,0.036645264989691485,-0.0036167559610038196
1.0000000000000007,0.049366642621364636,-0.0064782405119170085
1.2009999999999785,0.06111909573336324,-0.005748819069038582
1.4009999999999565,0.07455009364062387,-0.022968161605999893
1.6009999999999345,0.09281205632450822,-0.05286617441165852
1.8009999999999124,0.11358311929700877,-0.07893350499260372
2.0009999999998906,0.13301266498055184,-0.10227429248574027
2.2009999999998686,0.15350837265121206,-0.11387087747630838
2.4009999999998466,0.18375513836804386,-0.1336127575005385
2.6009999999998246,0.21646181241957596,-0.1579481501574552
2.8009999999998025,0.25052902444664177,-0.1642022529276615
3.0009999999997805,0.28519797147020093,-0.17503676668638693
3.2009999999997585,0.3138868170588213,-0.19445815688796636
3.4009999999997365,0.3459507317572448,-0.19728851901154734
3.6009999999997144,0.37529781849886007,-0.22024713756523115
3.8009999999996924,0.40078443065828284,-0.2516446837518774
4.000999999999671,0.41708132803906955,-0.28183049044986125
4.200999999999738,0.4295400714079121,-0.3130533479957712
4.400999999999804,0.4278828878912106,-0.34479840316626237
4.600999999999871,0.42483009106175607,-0.38070027910211396
4.800999999999938,0.41311682915806286,-0.41896564850851
5.000000000000004,0.4049884268179963,-0.46091445345258725
5.200000000000071,0.3849952176193977,-0.4974628751687733
5.400000000000138,0.3489406525855114,-0.5206086723573418
5.600000000000205,0.30381646699768583,-0.5307897925956865
5.800000000000272,0.2592062925260287,-0.5378056105118656
6.000000000000338,0.21957414645283488,-0.5449249196560753
6.200000000000405,0.1773404014000128,-0.5483174699830692
6.400000000000472,0.13952257443258936,-0.5330021788388226
6.600000000000539,0.11355827265647957,-0.496369423913251
6.800000000000606,0.09063449077923057,-0.46320488035746643
7.000000000000672,0.06997700682797946,-0.42493979655134895
7.200000000000739,0.06611507808425864,-0.3816237760444068
7.400000000000806,0.07469580881902653,-0.33518213051370305
7.600000000000873,0.09308167708735152,-0.2846565776118416
7.8000000000009395,0.11212284357233035,-0.2375337274744043
8.000000000001005,0.13326378707289926,-0.19151355829614738
8.200000000000895,0.15987418210161733,-0.1505873847283546
8.400000000000784,0.20011192323525498,-0.11697158213451549
8.600000000000673,0.23759121072188713,-0.08562087424084641
8.800000000000562,0.27665793702293023,-0.054625825390038234
9.000000000000451,0.3245330253039469,-0.03175652322730191
9.20000000000034,0.37433715812580415,-0.023032293401414657
9.40000000000023,0.42251502348224523,-0.022222331719398306
9.600000000000119,0.4690341004871904,-0.04839238752773295
9.800000000000008,0.5126709399183521,-0.0842324035021147
10.000999999999896,0.5435635203053357,-0.12507468971612898
10.200999999999786,0.5628249185174216,-0.1760023890815643
10.400999999999675,0.57611673539769,-0.22160343266142155
10.600999999999564,0.5866945434261787,-0.264614856763885
10.800999999999453,0.5984868914575799,-0.3096433650114405
11.000999999999342,0.6074450298810985,-0.3549019660342572
11.200999999999231,0.6154969297454724,-0.400560335271027
11.40099999999912,0.6228264447330982,-0.44736525076218925
11.60099999999901,0.6257422207175042,-0.49854234777775286
11.800999999998899,0.617834663153455,-0.5470929441338519
12.000999999998788,0.6277791759610589,-0.5862829056161541
12.200999999998677,0.6313796723671187,-0.6327313898170136
12.400999999998566,0.6193554438812159,-0.6815223627900654
12.600999999998455,0.6062026143728032,-0.7334054062524108
12.800999999998345,0.5714986792459167,-0.7692955578128108
13.000999999998234,0.5243489175799461,-0.7885063900383738
13.200999999998123,0.46912212093838906,-0.7969929465239024
13.400999999998012,0.40706935382851217,-0.8027546546967661
13.600999999997901,0.35423996815790515,-0.8089231277655912
13.80099999999779,0.3002798295879425,-0.8057926143624042
14.00099999999768,0.25127446454048613,-0.8107701866417076
14.200999999997569,0.21191083029233196,-0.8268391218705243
14.400999999997458,0.170203270995053,-0.8475782246552567
14.600999999997347,0.12177926534784472,-0.8624256981039432
14.800999999997236,0.06556079023059493,-0.8736319521103147
15.000999999997125,0.0170445709924694,-0.8915290599913034
15.200999999997014,-0.04588512143062527,-0.9045780136469892
15.400999999996904,-0.1116531213446108,-0.9075126602674858
15.600999999996793,-0.17452593162034521,-0.9019076699731565
15.800999999996682,-0.2304207680310434,-0.901988122168988
16.000999999996573,-0.28254636309176495,-0.9061172298300222
16.200999999996817,-0.3277298800459816,-0.9144354398586645
16.40099999999706,-0.37713714279277194,-0.9210153757339261
16.600999999997306,-0.42171527449665036,-0.9242927899548037
16.80099999999755,-0.46375570485923606,-0.9030133744450327
17.000999999997795,-0.5060478646252096,-0.8645820293140918
17.20099999999804,-0.5416124638443014,-0.8164772608884278
17.400999999998284,-0.5699851414747701,-0.7736530652611413
17.60099999999853,-0.5995064429929433,-0.7373831097730521
17.800999999998773,-0.6279147872235049,-0.6974617005594383
18.000999999999017,-0.659237436715978,-0.6609352295518109
18.20099999999926,-0.6815811769994394,-0.613908129295941
18.400999999999506,-0.6966492546777846,-0.558679646667332
18.60099999999975,-0.7067936571642579,-0.5053233617818865
18.799999999999994,-0.719230175996116,-0.4512889558967111
19.000000000000238,-0.7352003443096784,-0.4107908923758627
19.200000000000482,-0.752861616764477,-0.35023846048358737
19.400000000000727,-0.771024844653749,-0.2943421202694724
19.60000000000097,-0.7937249918403538,-0.2458662982305943
19.800000000001216,-0.8113444392214175,-0.19262127660544393
20.00000000000146,-0.823138056878599,-0.14628122149423406
