Time (s),X (m),Y (m)
0.001,-0.0005090653149319316,-0.0007291460897812452
0.20000000000000015,0.004098311581880798,0.0027847781639612104
0.4000000000000003,0.007104966044084238,0.0024086164835427433
0.6000000000000004,0.017238201174427814,0.008543216961423895
0.8000000000000006,0.026871668839626713,0.005500291626574807
1.0000000000000007,0.035564364346207175,0.006201734073702525
1.2009999999999785,0.04279824130790792,0.005588126023555498
1.4009999999999565,0.054505608134286676,0.001024758173245681
1.6009999999999345,0.07279102582090703,0.00022494702426212527
1.8009999999999124,0.08664311155237121,0.0004877637628961844
2.0009999999998906,0.1013696021941829,0.0023680218832712275
2.2009999999998686,0.1156373413630377,0.00044229271790917997
2.4009999999998466,0.13783371992580618,0.009455081753491721
2.6009999999998246,0.16562316543868622,0.018418093740314258
2.8009999999998025,0.18781791649168803,0.023129241461428116
3.0009999999997805,0.2044423840267133,0.027295935954278264
3.2009999999997585,0.21597670176780587,0.028628229030524848
3.4009999999997365,0.2399472122997257,0.03729986198185941
3.6009999999997144,0.2630197266291461,0.050456283992335434
3.8009999999996924,0.28223722205911267,0.05697937934167308
4.000999999999671,0.3033582753425118,0.060323683418669526
4.200999999999738,0.3236750812851197,0.07070380136310143
4.400999999999804,0.3503694064838301,0.08528663267113815
4.600999999999871,0.37812957233499145,0.09545247173359066
4.800999999999938,0.407475861442056,0.10147354418215462
5.000000000000004,0.42976028151712126,0.10642619470470506
5.200000000000071,0.449316063782182,0.11207691822138001
5.400000000000138,0.47420250218252663,0.12472129772346201
5.600000000000205,0.4931720708305056,0.13959236620966517
5.800000000000272,0.5240794394341303,0.15321523203083653
6.000000000000338,0.5544283399148023,0.1584195923043253
6.200000000000405,0.5804007587871216,0.17705457693883755
6.400000000000472,0.6005806394699436,0.19465368956158965
6.600000000000539,0.6182441753374469,0.21133521807548628
6.800000000000606,0.6401884712314925,0.23067968866348057
7.000000000000672,0.6656518756338774,0.2518254126063503
7.200000000000739,0.6890165019110461,0.2676573399187717
7.400000000000806,0.7107573737337319,0.28539342644720384
7.600000000000873,0.7365492693675714,0.300896954727452
7.8000000000009395,0.7620048980215147,0.32257376895038226
8.000000000001005,0.7841633206079821,0.3404387740573722
8.200000000000895,0.798744145894206,0.3665997053212864
8.400000000000784,0.8194355195240304,0.3859115976496831
8.600000000000673,0.8375814788286046,0.40894649403449596
8.800000000000562,0.8516907157356649,0.43506439725169405
9.000000000000451,0.8683688094641732,0.4531599595101689
9.20000000000034,0.8887839818709904,0.4723427907703663
9.40000000000023,0.9091676223193493,0.48379415362217065
9.600000000000119,0.9250135157610876,0.5087145339798915
9.800000000000008,0.941217092868375,0.5354954340428252
10.000999999999896,0.961562270617609,0.556395041570631
10.200999999999786,0.9840336687879229,0.5722199954059388
10.400999999999675,1.0054354164681671,0.5937983924601269
10.600999999999564,1.0259471510416065,0.6161596552892006
10.800999999999453,1.047578170366371,0.6302761176061239
11.000999999999342,1.0714211193657308,0.6420143065129216
11.200999999999231,1.0915740581965363,0.6600401005788639
11.40099999999912,1.1108954779126605,0.6833706774996658
11.60099999999901,1.123294296762532,0.6978719951397805
11.800999999998899,1.1382808868580736,0.7140228116007346
12.000999999998788,1.1507270280179234,0.725812487698773
12.200999999998677,1.170981931601491,0.7442094897327669
12.400999999998566,1.1859533071867752,0.7649381168266125
12.600999999998455,1.1971469638730798,0.7902156994106866
12.800999999998345,1.2153297187875418,0.8228521499186308
13.000999999998234,1.231935900052182,0.8492818596725317
13.200999999998123,1.2487468908417365,0.8748281487898861
13.400999999998012,1.2640596117657283,0.9045513509762276
13.600999999997901,1.2775054763363545,0.9350462840791568
13.80099999999779,1.289100723110254,0.9600000843082085
14.00099999999768,1.3113581098556368,0.9778022335474138
14.200999999997569,1.3280751530158592,0.9902333848527999
14.400999999997458,1.3481668440507917,1.003389923260995
14.600999999997347,1.3668982687512037,1.0292674568755038
14.800999999997236,1.3857241794701307,1.0408788751786058
15.000999999997125,1.3979535590358767,1.073432607060377
15.200999999997014,1.4118124075343332,1.0890995403401498
15.400999999996904,1.4223986501381216,1.1169961986693198
15.600999999996793,1.430464406117334,1.1437407489094367
15.800999999996682,1.433217022477419,1.168917475003068
16.000999999996573,1.443618406726287,1.1855690050826926
16.200999999996817,1.4507414697048635,1.207827380117198
16.40099999999706,1.4524505633989935,1.2332075174094812
16.600999999997306,1.4568112324820075,1.2623203284740316
16.80099999999755,1.4653518691379421,1.297415790785649
17.000999999997795,1.4799172542807912,1.3297408849466898
17.20099999999804,1.49216370219482,1.360665482732126
17.400999999998284,1.4977820661481567,1.3901233046829873
17.60099999999853,1.5052186483130834,1.4197315098488925
17.800999999998773,1.5092753811914668,1.4428981335118296
18.000999999999017,1.513194268333551,1.4628564340385664
18.20099999999926,1.5110197533091558,1.4854154640820405
18.400999999999506,1.5123685222617536,1.512108663407472
18.60099999999975,1.5156048251341527,1.5414257617674543
18.799999999999994,1.515978257136652,1.5756843851459528
19.000000000000238,1.5229201227465603,1.6021713642744506
19.200000000000482,1.5260113925859948,1.6244957345213369
19.400000000000727,1.527650656847935,1.6502853174134322
19.60000000000097,1.5235495827741095,1.6841910424165263
19.800000000001216,1.5158181841276164,1.7113007747306772
20.00000000000146,1.507024490074324,1.742752160435971
