Time (s),X (m),Y (m)
0.001,-0.0006246028371892732,-0.0005914538325516239
0.20000000000000015,-0.003356333733283367,-0.0027754690800779647
0.4000000000000003,-0.0007193202807574507,-0.0028302275534195518
0.6000000000000004,-0.0006544747822533417,-0.007721681846207298
0.8000000000000006,0.005612387594614948,-0.004359091047499058
1.0000000000000007,0.009192774351437945,-0.004189886375300161
1.2009999999999785,0.01092069618090475,-0.0018812355994217564
1.4009999999999565,0.01880050402982298,0.005678341437252759
1.6009999999999345,0.02006440117854722,0.006260790676023532
1.8009999999999124,0.02663142427960277,0.00983288195086987
2.0009999999998906,0.029859055742669147,0.01074139075434347
2.2009999999998686,0.03685458451787642,0.014187789253749009
2.4009999999998466,0.043105563209934424,0.01583732836329017
2.6009999999998246,0.04594135399140866,0.01535057580482961
2.8009999999998025,0.05295233624091919,0.02370812272861605
3.0009999999997805,0.05870544848570287,0.024222939738762057
3.2009999999997585,0.06503758929565986,0.027507866458798675
3.4009999999997365,0.07192100823660076,0.02955551601255892
3.6009999999997144,0.07787765976295816,0.033972678533884755
3.8009999999996924,0.08433788139301666,0.03263934374541194
4.000999999999671,0.09075984297554199,0.036178853237812586
4.200999999999738,0.09529125087331589,0.044068784673472715
4.400999999999804,0.10319647669870635,0.05141084821082501
4.600999999999871,0.11073842337959845,0.05664740566710719
4.800999999999938,0.115690974640482,0.06704108313787711
5.000000000000004,0.12125105928437173,0.07540120016221745
5.200000000000071,0.12753042921377167,0.0803080862877946
5.400000000000138,0.1325831019698018,0.086462901067897
5.600000000000205,0.13616548862401903,0.09212930887635987
5.800000000000272,0.14036023733140351,0.09770722170807312
6.000000000000338,0.14929122881198104,0.10821400083855955
6.200000000000405,0.15555665969089286,0.11020588905495864
6.400000000000472,0.16110276577191854,0.11919094972978783
6.600000000000539,0.16761755436369702,0.128385847877254
6.800000000000606,0.1746289617601205,0.1348206070264196
7.000000000000672,0.18111300002846661,0.14381120819009835
7.200000000000739,0.1864745001483786,0.151612611961249
7.400000000000806,0.19224410151723717,0.15956088961122428
7.600000000000873,0.19203864455802128,0.16946158293321836
7.8000000000009395,0.19240827807605193,0.17700403711312593
8.000000000001005,0.19656709642605064,0.18727130757437296
8.200000000000895,0.19715834669877583,0.19652468393857947
8.400000000000784,0.2008599060558122,0.20855537273368588
8.600000000000673,0.20454073743490045,0.22027199604455366
8.800000000000562,0.20971437680286778,0.22748444388841674
9.000000000000451,0.20961300866212884,0.2330370156925742
9.20000000000034,0.20880766150858407,0.2416686145563249
9.40000000000023,0.20704387551779083,0.2539101992729312
9.600000000000119,0.20518213115160402,0.2648841038151567
9.800000000000008,0.20422278671378974,0.2734115905817263
10.000999999999896,0.2027463344548756,0.2852853122692379
10.200999999999786,0.2014187312118794,0.29885987548980736
10.400999999999675,0.2041408164273649,0.3072810352776224
10.600999999999564,0.19948296364110255,0.3166790205666606
10.800999999999453,0.1942522400568376,0.3288413844595394
11.000999999999342,0.19306729060183025,0.3399729173105889
11.200999999999231,0.1918332220570342,0.3492314726454651
11.40099999999912,0.19047859016576055,0.3578534986807045
11.60099999999901,0.18575236954180313,0.36923832142859025
11.800999999998899,0.18131645405876107,0.38106835917200566
12.000999999998788,0.17919465507919868,0.39057913654721554
12.200999999998677,0.1769848468596484,0.39914242502995506
12.400999999998566,0.16861462152855528,0.41122324150456974
12.600999999998455,0.16821308681156164,0.41754351905983783
12.800999999998345,0.1621078248865563,0.42729969011924573
13.000999999998234,0.1555874092040771,0.4373545349553618
13.200999999998123,0.15161619238246948,0.44741448079168167
13.400999999998012,0.14746782581678702,0.4564348663229776
13.600999999997901,0.14350626676370726,0.4642826152768762
13.80099999999779,0.13655208877589847,0.47378101874316664
14.00099999999768,0.12980404113870783,0.48393923178008
14.200999999997569,0.1249974286797743,0.4932782600765416
14.400999999997458,0.11635965426926236,0.502282724175774
14.600999999997347,0.11172745121635616,0.5107364596710479
14.800999999997236,0.10148038648734069,0.5184078642630389
15.000999999997125,0.0955651601353565,0.5258820837539347
15.200999999997014,0.08572904242312362,0.5331473866920031
15.400999999996904,0.07797084305990441,0.5385565644579502
15.600999999996793,0.06934728562329924,0.5419231382359816
15.800999999996682,0.06031476300337918,0.5446829860566154
16.000999999996573,0.05244907310019074,0.547834056623943
16.200999999996817,0.04006614765133169,0.5510334781643994
16.40099999999706,0.032622472897457885,0.5543468184487745
16.600999999997306,0.02540562786085394,0.5574746279838515
16.80099999999755,0.015733045108258202,0.56028338819321
17.000999999997795,0.005476065368941958,0.5613738976667254
17.20099999999804,-0.005301861412305642,0.5633205847368115
17.400999999998284,-0.013751202431510602,0.5655515364639097
17.60099999999853,-0.023630736623756414,0.5657908136963185
17.800999999998773,-0.03582082684585971,0.565967376090268
18.000999999999017,-0.04822577302632919,0.563986279071749
18.20099999999926,-0.06125889305232299,0.5620709411934869
18.400999999999506,-0.07356451198056368,0.5596576690001019
18.60099999999975,-0.0815342295588312,0.5582320047985951
18.799999999999994,-0.09155675585146039,0.5546575387490414
19.000000000000238,-0.10350240297135553,0.5511852867069011
19.200000000000482,-0.11461547181203913,0.5502289725590526
19.400000000000727,-0.12392694109428251,0.5489306456592882
19.60000000000097,-0.13468904944458066,0.5452111884927607
19.800000000001216,-0.14815984238439273,0.5379336519678382
20.00000000000146,-0.16031678163524174,0.5340712154911512
