Time (s),X (m),Y (m)
0.001,-0.0006729371591054965,0.000515584144559974
0.20000000000000015,0.007588335014531993,-0.004434257337155736
0.4000000000000003,0.00955988414460567,-0.004240767928754305
0.6000000000000004,0.015626732271789828,-0.004932300587863055
0.8000000000000006,0.031180718008016996,-0.005279509731758152
1.0000000000000007,0.052539166379096815,-0.004686439265396763
1.2009999999999785,0.07073835182297258,0.002168799382203521
1.4009999999999565,0.07466185325999444,0.01773916509746542
1.6009999999999345,0.09402122195499767,0.018283955015448484
1.8009999999999124,0.10226071355356084,0.017211150969405602
2.0009999999998906,0.11990745536682364,0.008491565369042253
2.2009999999998686,0.14262733778884795,0.007278250355765466
2.4009999999998466,0.16758922987504554,0.0011653217356129698
2.6009999999998246,0.19211086835875935,-0.0031488068946911056
2.8009999999998025,0.21184643573795262,0.0019121074962818194
3.0009999999997805,0.2241705638780449,-0.0005911705364593754
3.2009999999997585,0.2394362071856201,0.0031898882835458614
3.4009999999997365,0.262206873987527,0.0028971674357182223
3.6009999999997144,0.28637671796946595,0.0044261339887585755
3.8009999999996924,0.3055952352531588,-0.004419421643968892
4.000999999999671,0.32482929981598785,-0.02029943661287424
4.200999999999738,0.3410129604476983,-0.0471609446559498
4.400999999999804,0.35884425072702086,-0.060104604565421056
4.600999999999871,0.37648338356490135,-0.07027175701994455
4.800999999999938,0.38490736097637995,-0.08430230203539507
5.000000000000004,0.3934654551707907,-0.0970084937421685
5.200000000000071,0.40101831194629733,-0.11263451985124241
5.400000000000138,0.3991790091433918,-0.13605269438711018
5.600000000000205,0.40532864615391023,-0.15458435823872177
5.800000000000272,0.4099110603734778,-0.17100598344061357
6.000000000000338,0.40315272083695713,-0.1957388365326779
6.200000000000405,0.39151125603328296,-0.23253944287231718
6.400000000000472,0.3778868882476307,-0.2712428970354154
6.600000000000539,0.3631340315702269,-0.3123062274294637
6.800000000000606,0.3506572178447685,-0.343911813312667
7.000000000000672,0.3441718046711756,-0.3656451210762946
7.200000000000739,0.33096797929065663,-0.3941274392781993
7.400000000000806,0.3229917576179823,-0.4284080796416406
7.600000000000873,0.31561637103420703,-0.46434931091964765
7.8000000000009395,0.29815801128067265,-0.49516619302984904
8.000000000001005,0.2636500437605344,-0.523279086458187
8.200000000000895,0.2389982589866916,-0.5445208807581998
8.400000000000784,0.22622468390444778,-0.5622502091052001
8.600000000000673,0.1985482786535101,-0.5800673245716472
8.800000000000562,0.15001954558131228,-0.5808691035116522
9.000000000000451,0.10605970035731126,-0.5785936494274851
9.20000000000034,0.06321248646869852,-0.5681272198639764
9.40000000000023,0.019825948401028096,-0.5575735759811333
9.600000000000119,-0.021789993569495715,-0.5437704671869789
9.800000000000008,-0.06474176504218325,-0.5265738114547093
10.000999999999896,-0.10698784485584523,-0.5092724951612797
10.200999999999786,-0.14730674688474088,-0.4928461150064428
10.400999999999675,-0.18862615778605316,-0.47706856527164343
10.600999999999564,-0.22780536061830026,-0.4538632609196827
10.800999999999453,-0.25945997260917153,-0.44197168941498594
11.000999999999342,-0.2923828224614387,-0.4210372354000454
11.200999999999231,-0.3238587811385543,-0.3982715437601826
11.40099999999912,-0.35735345863661644,-0.38881338865413145
11.60099999999901,-0.3855682446524477,-0.3860874471790008
11.800999999998899,-0.4019979085540168,-0.3643432900661947
12.000999999998788,-0.4088851122662028,-0.330667328857265
12.200999999998677,-0.41180351505575774,-0.2973309134098922
12.400999999998566,-0.4114327133239421,-0.2609491171104202
12.600999999998455,-0.40899378770283906,-0.22157315613841258
12.800999999998345,-0.4021038185206074,-0.17326921529540157
13.000999999998234,-0.3848860263882167,-0.11678037788410287
13.200999999998123,-0.3765782536531102,-0.07336635471886392
13.400999999998012,-0.3735106910759567,-0.036452422788969284
13.600999999997901,-0.35276989442490503,-0.007693329738016476
13.80099999999779,-0.3266246947239423,0.013160446379431676
14.00099999999768,-0.2899271832655615,0.02798682479100926
14.200999999997569,-0.25437647707777444,0.042009790753219624
14.400999999997458,-0.23376123529079165,0.052126634805430457
14.600999999997347,-0.20193381329276172,0.05136091605253755
14.800999999997236,-0.17630893134537712,0.04792495782968403
15.000999999997125,-0.1568185880989137,0.049408710457269175
15.200999999997014,-0.13578197486680146,0.05520824029185108
15.400999999996904,-0.1131065205389588,0.054386270796353366
15.600999999996793,-0.08653610933312815,0.05823361700991978
15.800999999996682,-0.047406385804386796,0.053524815087517295
16.000999999996573,-0.0009529252222657315,0.047262886103777456
16.200999999996817,0.04124064748201953,0.039576927565930446
16.40099999999706,0.07341991052064545,0.018191672391355843
16.600999999997306,0.08984910552080921,-0.01218906854684876
16.80099999999755,0.09374013452551654,-0.049788725936460033
17.000999999997795,0.09124471578425981,-0.08204757937399089
17.20099999999804,0.086017281804856,-0.12351380129741547
17.400999999998284,0.08031234305971305,-0.16206380041844598
17.60099999999853,0.0709870275158186,-0.21064268602431332
17.800999999998773,0.06181711052073057,-0.2563737729093733
18.000999999999017,0.051261640837963085,-0.29349973164193693
18.20099999999926,0.04530874907630826,-0.3340960599567501
18.400999999999506,0.03135473331991035,-0.37746433645957606
18.60099999999975,0.007559128545694679,-0.4279359183362265
18.799999999999994,-0.011023404752692147,-0.46745450817854733
19.000000000000238,-0.03175430260882962,-0.5134606701884149
19.200000000000482,-0.04618464039088425,-0.5552060795252015
19.400000000000727,-0.05424957266279966,-0.5918617967798239
19.60000000000097,-0.078895141480574,-0.6306948793511767
19.800000000001216,-0.10620826705263739,-0.6649695074951016
20.00000000000146,-0.13607181640024454,-0.7015039534464452
