Time (s),X (m),Y (m)
0.001,0.0005727611008870025,-0.0009689812320744441
0.20000000000000015,0.002284086021458204,-0.0033430144929474707
0.4000000000000003,0.011622434658905091,-0.015352361573809065
0.6000000000000004,0.02409118167539786,-0.008118046806941281
0.8000000000000006,0.05504766853931371,-0.014738713911646538
1.0000000000000007,0.09935809336533821,-0.03308501225015468
1.2009999999999785,0.14523905871895432,-0.07598354845613277
1.4009999999999565,0.18943224717613766,-0.12886539187268212
1.6009999999999345,0.24229250965783689,-0.18376687279620438
1.8009999999999124,0.28847894069939706,-0.23915869651232102
2.0009999999998906,0.3082092869224657,-0.29925653086489823
2.2009999999998686,0.3091991438367254,-0.3669577550434049
2.4009999999998466,0.29448439340190163,-0.4344733014876658
2.6009999999998246,0.26722426758641965,-0.5000434614473029
2.8009999999998025,0.2391362988211098,-0.5689331751347954
3.0009999999997805,0.19331439668821546,-0.6294223549743986
3.2009999999997585,0.12830992578841305,-0.6684028407402304
3.4009999999997365,0.057107721265275226,-0.7077552134964323
3.6009999999997144,-0.014164607768655541,-0.7349000930112376
3.8009999999996924,-0.08225652882685622,-0.7236471860876832
4.000999999999671,-0.1417963472059548,-0.67852189707552
4.200999999999738,-0.20639725349601934,-0.6281256144027307
4.400999999999804,-0.2655846150768142,-0.5666999418642488
4.600999999999871,-0.3190617934751089,-0.5035923665557416
4.800999999999938,-0.37442941225931814,-0.45707802577058976
5.000000000000004,-0.4327820286195,-0.4107470021017871
5.200000000000071,-0.4921704538567261,-0.3537231020425835
5.400000000000138,-0.547741316065159,-0.2996532746745946
5.600000000000205,-0.60242308251566,-0.24618785357282616
5.800000000000272,-0.6483861006650018,-0.19127835945488667
6.000000000000338,-0.6535356749489335,-0.13409907549548986
6.200000000000405,-0.63890741173343,-0.08571721871035665
6.400000000000472,-0.5960442321991805,-0.060004475275368625
6.600000000000539,-0.538345021727925,-0.04736016396542857
6.800000000000606,-0.48002915704864624,-0.06991804994980896
7.000000000000672,-0.4240721002955983,-0.12488691150100935
7.200000000000739,-0.36828941339062476,-0.1970214750425363
7.400000000000806,-0.3135738721447516,-0.2761172362682129
7.600000000000873,-0.26119276063647356,-0.3443423086029857
7.8000000000009395,-0.19780745066696584,-0.4005182752165801
8.000000000001005,-0.13788009847701624,-0.4618845190867107
8.200000000000895,-0.09027262914429955,-0.5323308315818
8.400000000000784,-0.05175297312269047,-0.6183277177636105
8.600000000000673,-0.005592628232542929,-0.6950822663160292
8.800000000000562,0.048981138027771744,-0.7584708044908648
9.000000000000451,0.10520294710650309,-0.8052379596580994
9.20000000000034,0.16975091178659174,-0.8478387942627535
9.40000000000023,0.234409269138548,-0.8968612368096411
9.600000000000119,0.29645452664529565,-0.9479410464745914
9.800000000000008,0.36143130567030946,-0.9976275995753541
10.000999999999896,0.42947107985538563,-1.048065239519379
10.200999999999786,0.49126708622674076,-1.1136277227413094
10.400999999999675,0.5546319748315598,-1.1795860853442384
10.600999999999564,0.6208371784431436,-1.2412586361234152
10.800999999999453,0.6945193483532313,-1.2909874158202972
11.000999999999342,0.7519741339761951,-1.3524929149637783
11.200999999999231,0.7824646916111053,-1.4207145454830767
11.40099999999912,0.7950537742637801,-1.4972310864278267
11.60099999999901,0.8027439982697256,-1.5800647995482364
11.800999999998899,0.7885647997832561,-1.6574721937389785
12.000999999998788,0.7483420954545931,-1.7270532469188766
12.200999999998677,0.6843367821286507,-1.780616250565452
12.400999999998566,0.6247039298341457,-1.834060038702012
12.600999999998455,0.5554930925243383,-1.8801875269923956
12.800999999998345,0.48461116737354565,-1.913945197861822
13.000999999998234,0.4102850447651303,-1.939975979811618
13.200999999998123,0.3382706216323353,-1.944618517305477
13.400999999998012,0.2645058065407006,-1.9238450624491588
13.600999999997901,0.18687609150603693,-1.8944703739851398
13.80099999999779,0.10930780688808642,-1.8569063626541262
14.00099999999768,0.043863181417795924,-1.8050225924928103
14.200999999997569,-0.010152468149925882,-1.741552482635787
14.400999999997458,-0.04120117570928947,-1.6839990969855232
14.600999999997347,-0.041560202279879985,-1.6194962034840308
14.800999999997236,-0.004152738153852014,-1.5573756165195032
15.000999999997125,0.039696942924575124,-1.4911999327421588
15.200999999997014,0.08984462607226146,-1.4256731878103661
15.400999999996904,0.14208439195407674,-1.3705482379931655
15.600999999996793,0.19691828852837404,-1.339678405019236
15.800999999996682,0.2528310515144691,-1.3434878053102237
16.000999999996573,0.31022371192050385,-1.3669660036591709
16.200999999996817,0.3730947998373876,-1.3965561913643132
16.40099999999706,0.43512179690923924,-1.449095599889951
16.600999999997306,0.500427713205752,-1.5174887868764673
16.80099999999755,0.5644644862568907,-1.5824246072868886
17.000999999997795,0.6243666993671687,-1.6401628766671035
17.20099999999804,0.6775279706885133,-1.6988523451001314
17.400999999998284,0.7090273974680422,-1.7656340993026824
17.60099999999853,0.716804766862258,-1.8415445753707416
17.800999999998773,0.7030316661560656,-1.9170260611878513
18.000999999999017,0.6897375912245848,-1.9938637446632401
18.20099999999926,0.6354319467218218,-2.06252449053553
18.400999999999506,0.557896332406112,-2.128352816977325
18.60099999999975,0.47668137002863137,-2.1911284902383494
18.799999999999994,0.4058770655920492,-2.245893164096092
19.000000000000238,0.34122653767179323,-2.285233558628693
19.200000000000482,0.2675824365487415,-2.337622834350919
19.400000000000727,0.19776641638322556,-2.3818613030295595
19.60000000000097,0.12731401511110774,-2.3871034675925515
19.800000000001216,0.054678084382135984,-2.359056478866308
20.00000000000146,-0.015101880782378322,-2.3197982524331526
