Time (s),X (m),Y (m)
0.001,-0.0008071636076123137,-8.987223813608066e-05
0.20000000000000015,0.00443040292293621,0.00010237839434344425
0.4000000000000003,0.011185218449584491,0.0030758990170221046
0.6000000000000004,0.03500277452081754,0.0003452029400784653
0.8000000000000006,0.06838701084011363,-0.008558323700232053
1.0000000000000007,0.09930484831327559,-0.020943634098315556
1.2009999999999785,0.13111667127401386,-0.03724722079381931
1.4009999999999565,0.16165054725781944,-0.06320501779017358
1.6009999999999345,0.19039136428171416,-0.10175076137081747
1.8009999999999124,0.2171939060181582,-0.13161007588742082
2.0009999999998906,0.2326804534345236,-0.16784025249273984
2.2009999999998686,0.23764279555950849,-0.19570486454044964
2.4009999999998466,0.2192591126940592,-0.2502737330267181
2.6009999999998246,0.18892560987826768,-0.3117836446381535
2.8009999999998025,0.15872655065800018,-0.37584813100292835
3.0009999999997805,0.12497106705744215,-0.4340233462215442
3.2009999999997585,0.08884352353104208,-0.4686201512723632
3.4009999999997365,0.052924122133490875,-0.4756968982698582
3.6009999999997144,0.014494120305135885,-0.46780845795876674
3.8009999999996924,-0.02789354582559269,-0.4519245146036213
4.000999999999671,-0.05622323348573489,-0.4214497744989041
4.200999999999738,-0.0683946456274229,-0.3973513515105683
4.400999999999804,-0.07184680738418854,-0.37390464171332477
4.600999999999871,-0.07389354414702148,-0.369684422825211
4.800999999999938,-0.07057931075610042,-0.35569832564293374
5.000000000000004,-0.05674943173466213,-0.3314907062677486
5.200000000000071,-0.030749437628715254,-0.2929940525644661
5.400000000000138,0.0037971812885805264,-0.24605491729932957
5.600000000000205,0.03757250240033538,-0.19702429625912743
5.800000000000272,0.07478197493543459,-0.14859128376227404
6.000000000000338,0.12269904077093881,-0.12444728671172797
6.200000000000405,0.17506511588648677,-0.1270267587484915
6.400000000000472,0.23269699988532763,-0.14444973984971765
6.600000000000539,0.30671429325678545,-0.18231466942724409
6.800000000000606,0.3846440323292681,-0.22632058516571596
7.000000000000672,0.45763960407281384,-0.2728592911364812
7.200000000000739,0.5280372231571161,-0.3376617090630407
7.400000000000806,0.5707248631000545,-0.39783765426195516
7.600000000000873,0.5845637475592368,-0.4578621996600785
7.8000000000009395,0.5870981502738247,-0.5167730775228652
8.000000000001005,0.5853150874096872,-0.5636216882452443
8.200000000000895,0.5614472640862169,-0.6138928350846143
8.400000000000784,0.524652545514785,-0.6577214728460861
8.600000000000673,0.4684897211755056,-0.666631959727412
8.800000000000562,0.4114831271969841,-0.6504436490883793
9.000000000000451,0.3543823913225242,-0.6162774596924157
9.20000000000034,0.3109305326728719,-0.5666565928296636
9.40000000000023,0.2850891429677842,-0.5080684882297333
9.600000000000119,0.28472504693924694,-0.4404791940748173
9.800000000000008,0.3038990990703002,-0.36858398628318634
10.000999999999896,0.33486416136555597,-0.30508236504467956
10.200999999999786,0.37164368852250523,-0.23715761085902895
10.400999999999675,0.4113035790308937,-0.17135451726624393
10.600999999999564,0.4648167725836357,-0.11328822885720638
10.800999999999453,0.52377260187056,-0.06407774765774392
11.000999999999342,0.5850794512898195,-0.031883082876575534
11.200999999999231,0.6481718652633619,-0.025638279458288213
11.40099999999912,0.7130796722374565,-0.043144183679699855
11.60099999999901,0.7781653517829211,-0.07556954787353506
11.800999999998899,0.8397143155663314,-0.10631125753440751
12.000999999998788,0.9012546299871023,-0.13547524296582303
12.200999999998677,0.9666356786550657,-0.1830855398243069
12.400999999998566,1.0222123091288062,-0.2421660493633522
12.600999999998455,1.0385029012308673,-0.3072069114963815
12.800999999998345,1.0348932074165347,-0.3668897020382405
13.000999999998234,1.0082186521565946,-0.43435425728490346
13.200999999998123,0.9689386052606405,-0.5046053326864633
13.400999999998012,0.9330220632358771,-0.5712692432177521
13.600999999997901,0.8943542690127715,-0.6346797089418557
13.80099999999779,0.8526988004359706,-0.6980518454558488
14.00099999999768,0.7899778338170139,-0.7689075991519283
14.200999999997569,0.7101681907774453,-0.8263010344547942
14.400999999997458,0.6320254741564801,-0.8434412621688632
14.600999999997347,0.5684622884065218,-0.8341955833117681
14.800999999997236,0.5143799406585295,-0.7922159412532735
15.000999999997125,0.4854031573400541,-0.7423116997250369
15.200999999997014,0.4782622978279864,-0.692881268717939
15.400999999996904,0.4846638876851614,-0.6374613148897474
15.600999999996793,0.49753436548290386,-0.5824646580430064
15.800999999996682,0.5194188596082563,-0.5189220468707673
16.000999999996573,0.5455306105201361,-0.45851764629803277
16.200999999996817,0.5777789951173564,-0.3936590198373259
16.40099999999706,0.6144172312972925,-0.33022532375427344
16.600999999997306,0.6523727125732824,-0.26663498001121916
16.80099999999755,0.7026569721202482,-0.19335734970227214
17.000999999997795,0.769789821461024,-0.1157053652006075
17.20099999999804,0.8316640683567357,-0.04622431695053746
17.400999999998284,0.8929494851946107,0.006105374014980666
17.60099999999853,0.9626430111030008,0.03330996288175816
17.800999999998773,1.0306238369153533,0.03547296466192683
18.000999999999017,1.1021362205539793,0.005912774026521929
18.20099999999926,1.1667746835635824,-0.032121030274805944
18.400999999999506,1.2041822499004635,-0.0859875469304765
18.60099999999975,1.2055162103554447,-0.13818593240543756
18.799999999999994,1.1755737040971084,-0.18310039501945954
19.000000000000238,1.1427552435817272,-0.213780110106447
19.200000000000482,1.1048024531577705,-0.22531535582904563
19.400000000000727,1.0576743069820125,-0.20818482727126966
19.60000000000097,1.006724542247207,-0.16988006458712157
19.800000000001216,0.9672769352610295,-0.12444095760321339
20.00000000000146,0.9579715022446125,-0.06045582132540254
