Time (s),X (m),Y (m)
0.001,0.0006558713247593165,0.0009345558501746678
0.20000000000000015,-0.00203865629453035,-0.005615944545758792
0.4000000000000003,-0.00020857464459346747,-0.012557564505523132
0.6000000000000004,0.005781251044992015,-0.010376293070250852
0.8000000000000006,0.021496653031455797,0.003086744739394181
1.0000000000000007,0.04100975315098211,-0.003047295445375957
1.2009999999999785,0.0599498785323486,-0.01194508249046384
1.4009999999999565,0.08349641459490155,-0.011703980095914442
1.6009999999999345,0.10591754913765355,-0.020381022538418534
1.8009999999999124,0.13011972150485906,-0.020039438054980194
2.0009999999998906,0.16053149089444965,-0.010604215676404053
2.2009999999998686,0.19719405177972746,0.004652508643727934
2.4009999999998466,0.2355329818341538,0.01437106602652879
2.6009999999998246,0.26619793116228724,0.013016697019265465
2.8009999999998025,0.29064911973369584,0.019909028139533002
3.0009999999997805,0.3208866904783442,0.027785001962173463
3.2009999999997585,0.3490057582277517,0.037321173888236504
3.4009999999997365,0.3793469879365831,0.02876739055777508
3.6009999999997144,0.4135383935793687,0.03029122731119948
3.8009999999996924,0.44096705736170044,0.04542616526802374
4.000999999999671,0.4750290274043188,0.05703742059924375
4.200999999999738,0.5120628851425958,0.07089921301764567
4.400999999999804,0.5490929662022553,0.07989112453384466
4.600999999999871,0.5839422481762458,0.0961092436630339
4.800999999999938,0.6224091939385942,0.1092038612683287
5.000000000000004,0.6637305492787553,0.13098215620645368
5.200000000000071,0.7020059078416777,0.14278565867085413
5.400000000000138,0.733227834192087,0.15290617329552944
5.600000000000205,0.767873492001792,0.15847494381692845
5.800000000000272,0.7991909152114591,0.1681534974059045
6.000000000000338,0.8343743540345689,0.1855458565166465
6.200000000000405,0.8751585813854046,0.20494025148613726
6.400000000000472,0.9173517332469969,0.2235322153122684
6.600000000000539,0.9548838409714966,0.2414381236999115
6.800000000000606,0.9953088829146116,0.24903141160646738
7.000000000000672,1.038121635878192,0.24400212771709998
7.200000000000739,1.0751863277607292,0.23902277972356914
7.400000000000806,1.1081012436749127,0.23897414848631265
7.600000000000873,1.1404184246504898,0.25976874490929125
7.8000000000009395,1.1728478201775883,0.2964664637533482
8.000000000001005,1.2125915887206222,0.3249009622808232
8.200000000000895,1.2549314361120334,0.34443986151663153
8.400000000000784,1.2891696983559793,0.3659841935088577
8.600000000000673,1.3198686780488447,0.3813552740524378
8.800000000000562,1.3546670757050576,0.3924523729861056
9.000000000000451,1.3895029663929799,0.40925417627721505
9.20000000000034,1.4282642416932774,0.42049516821626004
9.40000000000023,1.4650364767404491,0.4418594494112709
9.600000000000119,1.5082969082313897,0.4555625629316569
9.800000000000008,1.5466403540849902,0.46468313545087286
10.000999999999896,1.5745252332584447,0.4751660259544904
10.200999999999786,1.6106166946040494,0.4900582981162538
10.400999999999675,1.649390967497569,0.5040045198016948
10.600999999999564,1.6877877243096968,0.5171513985086279
10.800999999999453,1.7294511889922675,0.5360841514975321
11.000999999999342,1.7655341530437434,0.5500945432426964
11.200999999999231,1.7976326672032559,0.5707038702664639
11.40099999999912,1.831142382036643,0.6006545167912655
11.60099999999901,1.8610960392317788,0.6300772350141151
11.800999999998899,1.8958780817114687,0.6575785416422729
12.000999999998788,1.9301114924624923,0.6862241249280274
12.200999999998677,1.9681150599144346,0.7091208253193585
12.400999999998566,2.0104556081406453,0.7411552933656456
12.600999999998455,2.048822952577663,0.7598458221972545
12.800999999998345,2.085102363031906,0.7825224336803468
13.000999999998234,2.122940969139879,0.7998971024726234
13.200999999998123,2.1641090465489166,0.8107440500257183
13.400999999998012,2.2010781686542553,0.8247983073234617
13.600999999997901,2.239556400992105,0.8313273988237905
13.80099999999779,2.269199066613237,0.8294327119224825
14.00099999999768,2.2994041054678247,0.8344686676228517
14.200999999997569,2.3326674477089373,0.8553002677371605
14.400999999997458,2.3682646429793888,0.879439628149187
14.600999999997347,2.4023202291589896,0.9080182453685779
14.800999999997236,2.436926776419153,0.9314097155762573
15.000999999997125,2.4673181295360784,0.9507798039392097
15.200999999997014,2.5006526256857877,0.9720008173291308
15.400999999996904,2.5350830563247464,1.0014180791766694
15.600999999996793,2.5649251429577618,1.0398863090086075
15.800999999996682,2.597000013678152,1.0745183759377852
16.000999999996573,2.6341978572323614,1.1039824838646166
16.200999999996817,2.670254794902093,1.1130571941416267
16.40099999999706,2.704989627669763,1.1278261329025374
16.600999999997306,2.7420597994721323,1.1511474389739613
16.80099999999755,2.7806372791307967,1.1807518269916681
17.000999999997795,2.81580670009209,1.220956649949799
17.20099999999804,2.855150147878542,1.2453318960809758
17.400999999998284,2.897655778255784,1.2558596066085033
17.60099999999853,2.926244924026238,1.2793503488064695
17.800999999998773,2.950474823408413,1.3024632011306643
18.000999999999017,2.977163078140376,1.3304254685504768
18.20099999999926,3.004559071907657,1.3695005791983883
18.400999999999506,3.0372642876319627,1.405421558855361
18.60099999999975,3.0654872053833495,1.441069267802096
18.799999999999994,3.0915207656046575,1.477038912877091
19.000000000000238,3.1217907534082037,1.4968787685579594
19.200000000000482,3.1539138216832727,1.519331455434019
19.400000000000727,3.183085050409295,1.5470621168097676
19.60000000000097,3.20546329151032,1.5758522786151405
19.800000000001216,3.224515730595807,1.591913751794826
20.00000000000146,3.2437252222489428,1.616805960993708
