Time (s),X (m),Y (m)
0.001,-0.0005090653149319316,0.0007291460897812449
0.20000000000000015,0.00386005480455372,-0.003986152446314035
0.4000000000000003,0.01110549788225344,-0.001938012061775489
0.6000000000000004,0.025230009352522818,-0.005379452490998325
0.8000000000000006,0.03809632975808213,-0.0034492065902417294
1.0000000000000007,0.05979702402157887,-0.009810082761353785
1.2009999999999785,0.09155886854915816,-0.015894489478160356
1.4009999999999565,0.12492517444107008,-0.03285439016541373
1.6009999999999345,0.15698605880560546,-0.05676352012472507
1.8009999999999124,0.1869355508751988,-0.0681849404637357
2.0009999999998906,0.2172524978792751,-0.07094493529423603
2.2009999999998686,0.24569838928419255,-0.08459547756774292
2.4009999999998466,0.27690072664565674,-0.10101696747767445
2.6009999999998246,0.2995173992396644,-0.12405451261242828
2.8009999999998025,0.32071053663651466,-0.15147040260353098
3.0009999999997805,0.3368340869455364,-0.17861452501760686
3.2009999999997585,0.3480028575385357,-0.20597583248713966
3.4009999999997365,0.3513581729309869,-0.23360331109989543
3.6009999999997144,0.35768628371335004,-0.267642785675855
3.8009999999996924,0.3587455122836424,-0.31008189318621304
4.000999999999671,0.36408772901773906,-0.34911188629782597
4.200999999999738,0.3769948009654808,-0.3839650810651599
4.400999999999804,0.3857588479884959,-0.4145454954375587
4.600999999999871,0.393033099695655,-0.4477920451488532
4.800999999999938,0.38463294820608834,-0.48203034295086256
5.000000000000004,0.3613257219031448,-0.5146386874518052
5.200000000000071,0.32771141411219495,-0.5436315029637275
5.400000000000138,0.2951132670721332,-0.5669670042171112
5.600000000000205,0.25909815574692174,-0.5842440983749081
5.800000000000272,0.21780679979502396,-0.5877877332062335
6.000000000000338,0.17962064800217545,-0.5933063980208605
6.200000000000405,0.1401585570871262,-0.5821928203934745
6.400000000000472,0.10344095246708163,-0.560424372495882
6.600000000000539,0.07787456894095819,-0.524094381653543
6.800000000000606,0.06244655334137884,-0.4955406297744209
7.000000000000672,0.050785217770106576,-0.45656896696281424
7.200000000000739,0.03964884575140085,-0.4149694938180726
7.400000000000806,0.0329755636823249,-0.37057185111815816
7.600000000000873,0.03168247772811148,-0.3252295439956115
7.8000000000009395,0.029674600667987123,-0.2797290456944343
8.000000000001005,0.036808324580514355,-0.23136995894640264
8.200000000000895,0.04699208316111256,-0.18601021544935192
8.400000000000784,0.061386692234419164,-0.141802579260938
8.600000000000673,0.0861094416565277,-0.09795815417559411
8.800000000000562,0.12268931968643004,-0.06313975747353104
9.000000000000451,0.16657451510912322,-0.03864726232004791
9.20000000000034,0.2239831090701488,-0.029556296829922887
9.40000000000023,0.27714278312904683,-0.01979142456643622
9.600000000000119,0.3316722778424003,-0.022429768859602735
9.800000000000008,0.3808860367853494,-0.04848071547082034
10.000999999999896,0.41929016965717925,-0.08422079220430614
10.200999999999786,0.440573030901359,-0.12146399432390728
10.400999999999675,0.44434986026622375,-0.16577857954044786
10.600999999999564,0.4357930837547834,-0.21428449087698062
10.800999999999453,0.42064310589138054,-0.2577247677300639
11.000999999999342,0.39270388040125015,-0.29213470673499925
11.200999999999231,0.3598145822385393,-0.3196487980130464
11.40099999999912,0.3181597216568218,-0.3379063234468346
11.60099999999901,0.27223538206681963,-0.34695685947582705
11.800999999998899,0.22038952848280163,-0.3487291643174306
12.000999999998788,0.17031512941429108,-0.3493933707574765
12.200999999998677,0.1162402273862813,-0.3439860109467831
12.400999999998566,0.06114547555482779,-0.32692885687686224
12.600999999998455,0.004579240602825445,-0.31136388155499234
12.800999999998345,-0.045093135401573885,-0.30870154134319266
13.000999999998234,-0.0989139905248271,-0.3102600158118318
13.200999999998123,-0.14911525294022412,-0.30092273292963234
13.400999999998012,-0.19055098152795064,-0.2690281537390958
13.600999999997901,-0.22628918758985558,-0.23776705912991664
13.80099999999779,-0.25377973145230226,-0.20556384428841648
14.00099999999768,-0.26956377093300077,-0.17113748608595555
14.200999999997569,-0.2841607111938308,-0.13102255292934215
14.400999999997458,-0.2878429899510776,-0.07725240105734074
14.600999999997347,-0.2902192657781716,-0.02518959499247765
14.800999999997236,-0.2818919253724618,0.026394840261896618
15.000999999997125,-0.2651693882589792,0.07796841567487102
15.200999999997014,-0.22193316104313981,0.12159801980957335
15.400999999996904,-0.1681108367662261,0.14892415432396774
15.600999999996793,-0.10186069222732237,0.16076256399858663
15.800999999996682,-0.029592487154145954,0.1634137823868733
16.000999999996573,0.04352742440580805,0.1665853269699821
16.200999999996817,0.10999963551258263,0.16940294119029098
16.40099999999706,0.16944555263639305,0.1638141847985754
16.600999999997306,0.22467557022396806,0.14266328268866632
16.80099999999755,0.27959530657447956,0.11693503665180162
17.000999999997795,0.32606140224444363,0.07985165177667618
17.20099999999804,0.36109756808701643,0.020329778335274582
17.400999999998284,0.3896257420236779,-0.026743472752882174
17.60099999999853,0.4046854633523297,-0.07673950928317778
17.800999999998773,0.40913958087348734,-0.12840289123418472
18.000999999999017,0.40226632858811884,-0.17818527679960128
18.20099999999926,0.3900558877764831,-0.22429553670580446
18.400999999999506,0.35572398328940597,-0.2543483737062167
18.60099999999975,0.31035386528072284,-0.2696998438975084
18.799999999999994,0.2689859846673937,-0.279846110543932
19.000000000000238,0.22883160980662343,-0.2830848305872291
19.200000000000482,0.1816325621535992,-0.2767276017278754
19.400000000000727,0.13665408114407657,-0.27623249499390157
19.60000000000097,0.09472421047939829,-0.27242011261200266
19.800000000001216,0.038383876827068314,-0.26623701447929604
20.00000000000146,-0.017764626278894233,-0.2566954180057158
