Time (s),X (m),Y (m)
0.001,-0.0005090653149319316,0.0007291460897812449
0.20000000000000015,0.0030036327477639974,-0.00010138699883061337
0.4000000000000003,0.014719387194721179,-0.0002647449809974479
0.6000000000000004,0.03118287200441773,0.011432561720504868
0.8000000000000006,0.053581370038887965,0.023875073523502256
1.0000000000000007,0.0843052373464468,0.024762602090625488
1.2009999999999785,0.11937246715371445,0.024967311604139158
1.4009999999999565,0.15466076526674383,0.015396845043019525
1.6009999999999345,0.1901756800017788,0.0010847413597111465
1.8009999999999124,0.20675591664670162,-0.03257453473627094
2.0009999999998906,0.20389381547745558,-0.0761675931947387
2.2009999999998686,0.18958549509551204,-0.11609964906510277
2.4009999999998466,0.15457717265559837,-0.15085552692470716
2.6009999999998246,0.10784993485191945,-0.17475227957194922
2.8009999999998025,0.055988719228299656,-0.18390319860666413
3.0009999999997805,0.005461078662920611,-0.18487862482913683
3.2009999999997585,-0.04292435726772923,-0.18220322644415307
3.4009999999997365,-0.0880886235082188,-0.16352238624650872
3.6009999999997144,-0.12384045345284471,-0.12529623937599324
3.8009999999996924,-0.14876930372652428,-0.07760805297133905
4.000999999999671,-0.15762397538218942,-0.02179735032258748
4.200999999999738,-0.1534974249279215,0.03418499358683775
4.400999999999804,-0.135907943591116,0.0843840419434029
4.600999999999871,-0.09733796631211279,0.1284015878426546
4.800999999999938,-0.039002071485750384,0.1594448335466383
5.000000000000004,0.028602440374375353,0.17012897312723307
5.200000000000071,0.09278188761115104,0.17963325329735944
5.400000000000138,0.1567124446721771,0.18123714900502674
5.600000000000205,0.2152587569285614,0.16629038722505077
5.800000000000272,0.26041106799334385,0.11938352130231134
6.000000000000338,0.29272864684198363,0.06786252450163892
6.200000000000405,0.3059011317568107,0.0042275578984880165
6.400000000000472,0.29598720383671123,-0.06389935620879546
6.600000000000539,0.27844057506680264,-0.13490482851363128
6.800000000000606,0.2685723140342834,-0.19731331463945218
7.000000000000672,0.2277362707544726,-0.2396513636222416
7.200000000000739,0.17265646080617858,-0.2564381769248558
7.400000000000806,0.10978786321796757,-0.2546895540126066
7.600000000000873,0.04774688810657207,-0.2512681133257312
7.8000000000009395,-0.006283800211244619,-0.23095652902530917
8.000000000001005,-0.050898317584610754,-0.18606367026400605
8.200000000000895,-0.09186796258717893,-0.1369082828629492
8.400000000000784,-0.12041701512770965,-0.08161615780694215
8.600000000000673,-0.12613269032770422,-0.013451863530450112
8.800000000000562,-0.11142962485556947,0.06148707601760263
9.000000000000451,-0.08916279586788176,0.13693223097456572
9.20000000000034,-0.0509721236303734,0.19577108135245092
9.40000000000023,0.004098841971502627,0.24136788117797794
9.600000000000119,0.06599011195791434,0.258860381563305
9.800000000000008,0.1299477185746263,0.2449264448050802
10.000999999999896,0.18200943785381182,0.1998631694477263
10.200999999999786,0.21352836911751646,0.146446905726876
10.400999999999675,0.21906554423922547,0.08912643219650215
10.600999999999564,0.20503848638155453,0.030146828803283815
10.800999999999453,0.1601782823993088,-0.009689150149554127
11.000999999999342,0.11098632223015617,-0.03476602241527188
11.200999999999231,0.05341189047565557,-0.03305908611097915
11.40099999999912,-0.005745767733940852,-0.019140842677526602
11.60099999999901,-0.058305115262037244,0.005260770115294166
11.800999999998899,-0.0978877736603714,0.041535251920997246
12.000999999998788,-0.11350012293431108,0.08579687793414778
12.200999999998677,-0.10010432686225774,0.13295288978867673
12.400999999998566,-0.0604292891798072,0.17509155145853064
12.600999999998455,-0.010296863187156701,0.20557765068308764
12.800999999998345,0.051564653212125944,0.21456619315966022
13.000999999998234,0.1264387062248404,0.1996202659568001
13.200999999998123,0.20597909772428685,0.1627142719493867
13.400999999998012,0.2762134619564659,0.11944340319650908
13.600999999997901,0.321739752289817,0.07045805634453448
13.80099999999779,0.3405610086370709,0.015343684013601113
14.00099999999768,0.33018049689653806,-0.04547193946264865
14.200999999997569,0.3101526169279938,-0.0865442792679227
14.400999999997458,0.2796053644664737,-0.09028348747629307
14.600999999997347,0.24254938240172516,-0.06493926783313844
14.800999999997236,0.21424609954874949,-0.022815411351618787
15.000999999997125,0.2055017763336323,0.021973603662640406
15.200999999997014,0.21370514541078156,0.07502270278804501
15.400999999996904,0.24077073404723237,0.11738227661567385
15.600999999996793,0.28538587687566025,0.13862648570069822
15.800999999996682,0.33331695428085745,0.1567256343496278
16.000999999996573,0.38004652790766075,0.1671584508219651
16.200999999996817,0.43197029167241907,0.16681044710533055
16.40099999999706,0.502187280586794,0.15616646569603837
16.600999999997306,0.5733269886995264,0.15345239597452867
16.80099999999755,0.6403961692608899,0.13654625122325653
17.000999999997795,0.6985546613051464,0.09066749153434579
17.20099999999804,0.7424394461700022,0.03651632675990495
17.400999999998284,0.7760494691661088,-0.013923854581862825
17.60099999999853,0.7903871355436166,-0.064634411229657
17.800999999998773,0.775112969846951,-0.11225008241481332
18.000999999999017,0.7489541000640354,-0.15555011556355203
18.20099999999926,0.7076077859719548,-0.18312505309640775
18.400999999999506,0.6621433006027078,-0.20589436412934725
18.60099999999975,0.6106106060680173,-0.21785910640619935
18.799999999999994,0.5557915615431557,-0.22381961539582274
19.000000000000238,0.5064724820785339,-0.21093230333629698
19.200000000000482,0.47792475834784204,-0.1703364043114508
19.400000000000727,0.4648948271197549,-0.11815948363073281
19.60000000000097,0.4744975361273607,-0.06167980058625005
19.800000000001216,0.5110143581906528,-0.008562569220679576
20.00000000000146,0.5614416120622953,0.026919875248054188
