Time (s),X (m),Y (m)
0.001,0.0003099530129853942,0.0010272443824616275
0.20000000000000015,0.0026603982418535407,-0.004693537090738626
0.4000000000000003,0.005410839539340295,-0.013390007541478845
0.6000000000000004,0.019364545598983488,-0.025379753036602653
0.8000000000000006,0.0468916721890322,-0.03938060600533515
1.0000000000000007,0.08381304472936513,-0.04872079323919065
1.2009999999999785,0.12453919497273429,-0.07196652654659313
1.4009999999999565,0.17222983557542332,-0.09340995672432938
1.6009999999999345,0.22875644748161,-0.1100356064243313
1.8009999999999124,0.2849978801285374,-0.12837389601090807
2.0009999999998906,0.32791775795333744,-0.1585885502108155
2.2009999999998686,0.34155879614525153,-0.20008359032786252
2.4009999999998466,0.3417486974898167,-0.24861455032128363
2.6009999999998246,0.3266177769916291,-0.2999758766413667
2.8009999999998025,0.2990993644575083,-0.3572019419643838
3.0009999999997805,0.2627768895238165,-0.38296076999654055
3.2009999999997585,0.2191859411285268,-0.37826920066655506
3.4009999999997365,0.16994323724836266,-0.35917437723106416
3.6009999999997144,0.14085822216893942,-0.3294589001018619
3.8009999999996924,0.11850801800469726,-0.28980726019137404
4.000999999999671,0.10721957451594842,-0.24120617667892322
4.200999999999738,0.11823889301563298,-0.1872229223729532
4.400999999999804,0.14574796422773983,-0.13992998641798338
4.600999999999871,0.1858541335542544,-0.0928789266734424
4.800999999999938,0.24773121961566416,-0.06260253367840744
5.000000000000004,0.28234440338794664,-0.053959606724709175
5.200000000000071,0.28975237546116966,-0.06476570616164112
5.400000000000138,0.2801672809552489,-0.06919645271791496
5.600000000000205,0.2555443394065576,-0.05065525811603006
5.800000000000272,0.22254788781191429,-0.04146699129822504
6.000000000000338,0.18300818715811304,-0.02798718152217039
6.200000000000405,0.13699293845436303,-0.011129278603031844
6.400000000000472,0.11776055026044487,0.012966980477573048
6.600000000000539,0.1147870368940448,0.051496889991294106
6.800000000000606,0.12005806563881227,0.1039164398448725
7.000000000000672,0.13713836581701785,0.1658252190330294
7.200000000000739,0.1646306270961667,0.2203446781206526
7.400000000000806,0.2001834489936852,0.26717268805729993
7.600000000000873,0.24061812726656667,0.3178362665685948
7.8000000000009395,0.2907042418590419,0.362266623976622
8.000000000001005,0.34735566053562206,0.3901499138629404
8.200000000000895,0.41469210251214605,0.40683851607572835
8.400000000000784,0.47949427595953104,0.4053669615668558
8.600000000000673,0.5424456375676953,0.396819915966396
8.800000000000562,0.6128299882167838,0.3898605005235294
9.000000000000451,0.6713492834546755,0.3722113436809649
9.20000000000034,0.7085461555362593,0.3322031221007032
9.40000000000023,0.7305648608829601,0.27819296333826177
9.600000000000119,0.7298501210859151,0.22603182082448278
9.800000000000008,0.7152628123658006,0.17394428121052852
10.000999999999896,0.6952820876009173,0.12213543251356902
10.200999999999786,0.6652127047219041,0.055542031986303
10.400999999999675,0.6291534923360685,-0.020378892681423486
10.600999999999564,0.5905438189534523,-0.10530002694675321
10.800999999999453,0.5437955859557682,-0.16972330415476533
11.000999999999342,0.4809996412785651,-0.21363513018079083
11.200999999999231,0.41878158851492553,-0.21992911642440927
11.40099999999912,0.3531916124488487,-0.211171249777194
11.60099999999901,0.2847984164033717,-0.19269466174421845
11.800999999998899,0.20633549443673832,-0.18149122006705834
12.000999999998788,0.12446073314671985,-0.17004387914169522
12.200999999998677,0.03548440645386587,-0.15057786829720726
12.400999999998566,-0.03525064472140326,-0.12111029758870036
12.600999999998455,-0.06567332819610837,-0.07310433753120292
12.800999999998345,-0.07688285931468561,-0.013469972369495388
13.000999999998234,-0.06888095592465603,0.044934588076352866
13.200999999998123,-0.04248726357574731,0.0895565115401816
13.400999999998012,0.00493861983763372,0.11321274521609702
13.600999999997901,0.07386720712247401,0.12402342992858793
13.80099999999779,0.1572755039135777,0.11741062337488588
14.00099999999768,0.21742542036228737,0.09910461279723234
14.200999999997569,0.2650693473451016,0.051708970083272944
14.400999999997458,0.2920406055542818,-0.002912159795699871
14.600999999997347,0.29939863576700804,-0.054485098198164515
14.800999999997236,0.28787190378012645,-0.0965830764035686
15.000999999997125,0.2604266317460022,-0.10720418124436265
15.200999999997014,0.20929543600872966,-0.11945217512833455
15.400999999996904,0.1546037120890762,-0.11399301959023546
15.600999999996793,0.08734389944092048,-0.10411789779471833
15.800999999996682,0.01901876939209243,-0.0885227991083074
16.000999999996573,-0.03960305622567963,-0.0567893644683952
16.200999999996817,-0.06890743629010994,-0.0024717843728970425
16.40099999999706,-0.0827370153714386,0.0617903383580329
16.600999999997306,-0.07440264656348734,0.11273335105633236
16.80099999999755,-0.0517873724363459,0.11851741244510088
17.000999999997795,-0.010765642864102603,0.1131092374487907
17.20099999999804,0.025524266938085762,0.10069500718370365
17.400999999998284,0.04255593700573944,0.0713442377518114
17.60099999999853,0.056567359163974464,0.025525817566295374
17.800999999998773,0.06602247437612442,-0.03213267616022833
18.000999999999017,0.06896873722105268,-0.09119606185765108
18.20099999999926,0.06267105087816201,-0.14872470754329878
18.400999999999506,0.05281962043985986,-0.20333662276013667
18.60099999999975,0.03230556311820038,-0.2548766294541397
18.799999999999994,0.00034492639882912566,-0.3011008638139585
19.000000000000238,-0.04330012518145862,-0.3265328243065837
19.200000000000482,-0.09658102114582165,-0.3317774755529841
19.400000000000727,-0.1590257867243176,-0.32821450142071773
19.60000000000097,-0.22624736166054035,-0.34027852161034766
19.800000000001216,-0.295269571880264,-0.3556763120475644
20.00000000000146,-0.3482329002449104,-0.35197431142401214
