Time (s),X (m),Y (m)
0.001,0.0002200807748493132,0.0010311682891199472
0.20000000000000015,0.0025374967028140736,0.004647109283439463
0.4000000000000003,0.003839357503274216,0.005299191790427996
0.6000000000000004,0.006963301832352905,0.004874784556034498
0.8000000000000006,0.009789769285917934,0.007220989442756328
1.0000000000000007,0.01541138803533402,0.008419879804275547
1.2009999999999785,0.019265082851761896,0.0141664566789423
1.4009999999999565,0.02141278881264512,0.018475940398834746
1.6009999999999345,0.02699191956568538,0.023651190150353215
1.8009999999999124,0.028861649130657824,0.027346605199139378
2.0009999999998906,0.03323451190413949,0.027830322670759126
2.2009999999998686,0.03760485957166892,0.026216720235099748
2.4009999999998466,0.04074306844035598,0.026690913511883626
2.6009999999998246,0.04572749227885498,0.030031936970790964
2.8009999999998025,0.04973722038360924,0.032714456553594735
3.0009999999997805,0.05455614657561638,0.029199501989679116
3.2009999999997585,0.060476486832590035,0.026506789092784224
3.4009999999997365,0.06370623216249205,0.028907814502014507
3.6009999999997144,0.06893959539166815,0.03128669320280939
3.8009999999996924,0.07195054572564136,0.03268048557480164
4.000999999999671,0.07423701851349673,0.03919038572843522
4.200999999999738,0.07904167687489724,0.039999391413049756
4.400999999999804,0.0843249369134278,0.039535408717922625
4.600999999999871,0.08960907508383843,0.04280630475168191
4.800999999999938,0.09466385314935791,0.047539652786309804
5.000000000000004,0.10187095388648727,0.04785071266624871
5.200000000000071,0.10616545416750788,0.051260191064621013
5.400000000000138,0.11371663948248528,0.05098552468352075
5.600000000000205,0.12158871424552711,0.05193766106047476
5.800000000000272,0.12569476482932587,0.056142410314145005
6.000000000000338,0.1328442753816109,0.056963938553807276
6.200000000000405,0.13673164419891898,0.05942980639659974
6.400000000000472,0.13963460514328901,0.06287670948900793
6.600000000000539,0.14254796308352213,0.06911803006448745
6.800000000000606,0.148287206307175,0.07044367520629727
7.000000000000672,0.153112897128777,0.07234208805360182
7.200000000000739,0.15659449899640573,0.07503433936910396
7.400000000000806,0.16370715418884726,0.07698965325941652
7.600000000000873,0.16823581339577642,0.07859917069389734
7.8000000000009395,0.17256204145616125,0.0849073988999834
8.000000000001005,0.17876048574054426,0.0863563163367654
8.200000000000895,0.18364547476206247,0.08999705990774995
8.400000000000784,0.18668483273941727,0.09711561772496859
8.600000000000673,0.19360801329438632,0.10161846483445179
8.800000000000562,0.1964542510644344,0.10638794523883885
9.000000000000451,0.19939392126840313,0.10999151688251585
9.20000000000034,0.2054250287140884,0.11424582294062399
9.40000000000023,0.20856009922473104,0.1187472388947629
9.600000000000119,0.20907814176420123,0.12423467210388965
9.800000000000008,0.21071749707308035,0.1292613577265688
10.000999999999896,0.2137803650507575,0.13343440989107808
10.200999999999786,0.21184854600400518,0.13956722922070403
10.400999999999675,0.2130636118377783,0.14457654744746642
10.600999999999564,0.2135203007919085,0.14895865947045697
10.800999999999453,0.2169796796658793,0.15462409093373858
11.000999999999342,0.22083723292042784,0.15906289969775692
11.200999999999231,0.22284537233333584,0.16436458334199025
11.40099999999912,0.23056482749888596,0.16910117819552575
11.60099999999901,0.23171557221092848,0.17446978590001339
11.800999999998899,0.23198440944363272,0.1792810735711104
12.000999999998788,0.2377419173501264,0.18475307496531698
12.200999999998677,0.2405307812496903,0.19067656919563455
12.400999999998566,0.2382275487986212,0.1959651618022344
12.600999999998455,0.23762203970462187,0.20211627942177
12.800999999998345,0.23516447804258128,0.20808236819009446
13.000999999998234,0.23537973405839785,0.21380491018272427
13.200999999998123,0.23488918091737615,0.2196179216432844
13.400999999998012,0.2347903863304909,0.22519997522704657
13.600999999997901,0.2350838072918167,0.23194465909001818
13.80099999999779,0.24092210249789522,0.23881124822510152
14.00099999999768,0.24296032059558298,0.24664667093526094
14.200999999997569,0.24445001688657733,0.2523038660993956
14.400999999997458,0.24382834785969995,0.25675943889145814
14.600999999997347,0.24755656365578205,0.2621125717465072
14.800999999997236,0.2477206198183177,0.2677016288155849
15.000999999997125,0.24683067758235294,0.2735304397968249
15.200999999997014,0.24266163823720205,0.2778620460338103
15.400999999996904,0.24454539312662563,0.28363443878876926
15.600999999996793,0.24796248577506275,0.29120387237869344
15.800999999996682,0.24654993783622128,0.2969643523461721
16.000999999996573,0.2419397499255083,0.30068302627237803
16.200999999996817,0.24440789374498958,0.3076504446508699
16.40099999999706,0.24229595579775717,0.3145005322461625
16.600999999997306,0.24501587303304462,0.32040822059631074
16.80099999999755,0.23978873754539284,0.3242556117733862
17.000999999997795,0.23952929072171758,0.32871855994147703
17.20099999999804,0.2365557960618646,0.3318391718795423
17.400999999998284,0.23512978679768656,0.3361733897839492
17.60099999999853,0.2361614728893651,0.34402234827229544
17.800999999998773,0.23745867554624622,0.3519150219884337
18.000999999999017,0.232177889669411,0.35841398497348126
18.20099999999926,0.23285217852688805,0.36479972736539357
18.400999999999506,0.22743201057770326,0.3704845621811489
18.60099999999975,0.22384438885807229,0.3752836643585361
18.799999999999994,0.2268234755089823,0.3825774551944473
19.000000000000238,0.2235261612613531,0.3884796034969515
19.200000000000482,0.22275538409557016,0.3956593174581676
19.400000000000727,0.21801508061533698,0.4016298384476718
19.60000000000097,0.21756579524342629,0.4067325773048215
19.800000000001216,0.21480756519292826,0.41058681787863543
20.00000000000146,0.21012894771737628,0.4156470057685217
