Time (s),X (m),Y (m)
0.001,0.0011130987088041246,-0.000515584144559974
0.20000000000000015,-0.0012356559617187628,0.001675072156655517
0.4000000000000003,0.0011512538328359515,0.010655157225975844
0.6000000000000004,0.017060932212827687,0.017245974435316544
0.8000000000000006,0.05205591288435452,0.017106416888276743
1.0000000000000007,0.09219096160979384,0.010731377610483941
1.2009999999999785,0.1295011458567898,0.007330636241456956
1.4009999999999565,0.16740917460709828,0.011003543801102881
1.6009999999999345,0.20383374389658268,0.017098427188015474
1.8009999999999124,0.24466697521659245,0.022136947306469198
2.0009999999998906,0.2917826279400586,0.017069573542553375
2.2009999999998686,0.334332051893121,0.003348218885506348
2.4009999999998466,0.36761340944019966,-0.015515246041695227
2.6009999999998246,0.3928315834750986,-0.03646149606430257
2.8009999999998025,0.4029527593543596,-0.06682634372232232
3.0009999999997805,0.3939106473504451,-0.10983941542429322
3.2009999999997585,0.37477711467511304,-0.1467109401679561
3.4009999999997365,0.3326089034728313,-0.1648726032082027
3.6009999999997144,0.2841006499190877,-0.1680218498017879
3.8009999999996924,0.23293177725596462,-0.16557779521276048
4.000999999999671,0.18721099178251946,-0.14360912584838162
4.200999999999738,0.1503672318745593,-0.10422748234399427
4.400999999999804,0.12800145842966495,-0.0573022737378396
4.600999999999871,0.11792414274008366,-0.00930393964582245
4.800999999999938,0.11705926839994611,0.044395312607254635
5.000000000000004,0.11872494971812447,0.0962771075401818
5.200000000000071,0.13696239006390404,0.1379158986172066
5.400000000000138,0.16279776187104464,0.16443350527759568
5.600000000000205,0.20016996679763013,0.16951571353694778
5.800000000000272,0.2375111554905739,0.14132723178639936
6.000000000000338,0.25148936847506825,0.09028744256549694
6.200000000000405,0.2558372926986466,0.036726651840742364
6.400000000000472,0.24213951336665895,-0.029160555296117673
6.600000000000539,0.22129562195095726,-0.09856443650689851
6.800000000000606,0.20132302557823908,-0.16298244980596188
7.000000000000672,0.16574896589099863,-0.22852195185769758
7.200000000000739,0.1301393688235236,-0.2713972948151522
7.400000000000806,0.08340881576457651,-0.2904142896323453
7.600000000000873,0.029774545901909394,-0.28991557202251567
7.8000000000009395,-0.02860928947804899,-0.27275407414204067
8.000000000001005,-0.09268288345566693,-0.24558430914828977
8.200000000000895,-0.1544986503688368,-0.1991530061565182
8.400000000000784,-0.2020379929001385,-0.15755469792121404
8.600000000000673,-0.23091252417815405,-0.10273070124713031
8.800000000000562,-0.22695037682765182,-0.026843590865400023
9.000000000000451,-0.20270066767566586,0.05181296203222546
9.20000000000034,-0.16492378707829028,0.12911186715622874
9.40000000000023,-0.12492303227198814,0.20075139978025147
9.600000000000119,-0.06608987725452084,0.2456485029039492
9.800000000000008,-0.0017881253441761986,0.26218312871391036
10.000999999999896,0.06927260165153509,0.25031791238580486
10.200999999999786,0.13361284834978276,0.21746662556682744
10.400999999999675,0.17498528343145692,0.17582180864581856
10.600999999999564,0.1905969630534961,0.12451423050165017
10.800999999999453,0.16714361632250962,0.06974277613028926
11.000999999999342,0.13433156608962993,0.019974739195050533
11.200999999999231,0.07854036418595144,-0.01522521537935476
11.40099999999912,0.023673347852593517,-0.030240671252033065
11.60099999999901,-0.02970472028254161,-0.009333583990767915
11.800999999998899,-0.07255543423083714,0.027091613402272386
12.000999999998788,-0.09581575733644039,0.07541082548305245
12.200999999998677,-0.10502843133897449,0.1285237204924859
12.400999999998566,-0.10004513649416827,0.17693684448140154
12.600999999998455,-0.07187694885206683,0.23056634360819836
12.800999999998345,-0.020680137094933777,0.2763711730783073
13.000999999998234,0.027657388286231547,0.30154587208330813
13.200999999998123,0.07167742016521352,0.3195846110251989
13.400999999998012,0.12542179792037575,0.32314837339984054
13.600999999997901,0.1783087956433936,0.3206947339150034
13.80099999999779,0.23464205443702413,0.31706888225820806
14.00099999999768,0.30512419574376815,0.29875765021305734
14.200999999997569,0.37326148459202074,0.2683523821072448
14.400999999997458,0.41417376671351186,0.23396199448858365
14.600999999997347,0.42812338684356077,0.1858074706249235
14.800999999997236,0.4258381591024873,0.12915632147338846
15.000999999997125,0.39863422186639846,0.08156438878552434
15.200999999997014,0.36695805095200806,0.05240739414491246
15.400999999996904,0.3235951501563131,0.0501373219920088
15.600999999996793,0.2695642539458765,0.07287137726060265
15.800999999996682,0.21559366453996312,0.10922823311441376
16.000999999996573,0.1722204997699342,0.15967974234612603
16.200999999996817,0.1474786522881169,0.22043901296083623
16.40099999999706,0.14235006998403343,0.28859856926869487
16.600999999997306,0.15012304968222923,0.36487794657800954
16.80099999999755,0.1565784628626081,0.4327447665327372
17.000999999997795,0.18141456774141723,0.5064809170494691
17.20099999999804,0.2085322586623661,0.5852202508414781
17.400999999998284,0.26392030620916596,0.6624673589590154
17.60099999999853,0.3311697472396599,0.715772757855174
17.800999999998773,0.3984020484799264,0.7421993835066507
18.000999999999017,0.4725816082255358,0.741911019133966
18.20099999999926,0.5479748484647874,0.7233906948217879
18.400999999999506,0.6237369525614949,0.6874060369499426
18.60099999999975,0.6749804267721429,0.6437552819458094
18.799999999999994,0.6974287280455185,0.587897603662144
19.000000000000238,0.7002672562268888,0.5264371347918694
19.200000000000482,0.6884803198797073,0.4614558423001582
19.400000000000727,0.6410411984896388,0.40730585704143984
19.60000000000097,0.5773580112381559,0.3807463113400178
19.800000000001216,0.5075131899655158,0.38294853856244987
20.00000000000146,0.4366938288684733,0.3941890006127689
