Time (s),X (m),Y (m)
0.001,0.0012512490639692614,0.0
0.20000000000000015,-0.004563175319047836,0.0003880753003747748
0.4000000000000003,0.0034987026366970634,0.0013791569464490802
0.6000000000000004,0.02173483414591861,-0.0070127189417568195
0.8000000000000006,0.040473689078597413,-0.016165192791622297
1.0000000000000007,0.06301432554730427,-0.023824541954838758
1.2009999999999785,0.08723047235772113,-0.03649891738961378
1.4009999999999565,0.1169143235676414,-0.05247658484469315
1.6009999999999345,0.1413091644332162,-0.062268748141963606
1.8009999999999124,0.1595385281467038,-0.07137628893440003
2.0009999999998906,0.19056732658325734,-0.08712132526489139
2.2009999999998686,0.22526370700399795,-0.10750940116544565
2.4009999999998466,0.2708466073434382,-0.12931771690441068
2.6009999999998246,0.32481422265458604,-0.153564222040459
2.8009999999998025,0.37839849628242506,-0.17686704530144756
3.0009999999997805,0.42793420403216187,-0.19880713826029048
3.2009999999997585,0.47647400083693486,-0.22603695394332257
3.4009999999997365,0.5243753909920402,-0.24997311490924057
3.6009999999997144,0.5738301667985185,-0.2773009793938952
3.8009999999996924,0.6181732669609722,-0.30045896039376485
4.000999999999671,0.6676898960347681,-0.3295479450024175
4.200999999999738,0.7167293765827102,-0.3663917269909331
4.400999999999804,0.7652367620641959,-0.39725716268738925
4.600999999999871,0.793831242254228,-0.42652847104480485
4.800999999999938,0.7991968381543312,-0.46495932938465323
5.000000000000004,0.7880245546312622,-0.5113527954220104
5.200000000000071,0.7732173444470691,-0.5587606285974145
5.400000000000138,0.7469245904709454,-0.6092986075664113
5.600000000000205,0.7180029191455131,-0.6611913849916128
5.800000000000272,0.6899943450769023,-0.7141579796224926
6.000000000000338,0.6604504094648721,-0.7641657894801034
6.200000000000405,0.6266351952833039,-0.810830569892085
6.400000000000472,0.5927412871643948,-0.8528805264676884
6.600000000000539,0.5340087390244624,-0.8838931401543222
6.800000000000606,0.479114504288437,-0.8918065029870904
7.000000000000672,0.4311985262435247,-0.8784351857199433
7.200000000000739,0.378818841129756,-0.8434223587328136
7.400000000000806,0.33346687676350417,-0.7961031817536134
7.600000000000873,0.3106578778534148,-0.7496551824263082
7.8000000000009395,0.31524807302093705,-0.6972560881639951
8.000000000001005,0.33809188775282517,-0.6420729564274549
8.200000000000895,0.3736364885779998,-0.5855960409730209
8.400000000000784,0.4078265394876974,-0.5346448870491102
8.600000000000673,0.4466534555805975,-0.4970633752800083
8.800000000000562,0.49110820476745537,-0.4798791858551708
9.000000000000451,0.5382306179285502,-0.4844890075644128
9.20000000000034,0.5872628914280716,-0.4974336252990172
9.40000000000023,0.6421353841205197,-0.5214382749570192
9.600000000000119,0.6891909021649717,-0.5463675923656452
9.800000000000008,0.7404760499885652,-0.577287052171852
10.000999999999896,0.7959416577095175,-0.6166286644440343
10.200999999999786,0.8572926485965671,-0.6618106088408235
10.400999999999675,0.9128341416965492,-0.6944716201864201
10.600999999999564,0.9719256925410397,-0.7290801710782617
10.800999999999453,1.0273301795805974,-0.7685688748566795
11.000999999999342,1.0716306678802299,-0.8202140023486431
11.200999999999231,1.0891667717185878,-0.8834205940756278
11.40099999999912,1.0788773731987666,-0.9475182295241996
11.60099999999901,1.049674553791739,-1.0129540513872402
11.800999999998899,1.0154435492902658,-1.0783157352965766
12.000999999998788,0.9641047967033899,-1.1391580834906863
12.200999999998677,0.9150036495432334,-1.1820115522402823
12.400999999998566,0.8625621166534676,-1.1919799555066672
12.600999999998455,0.8109430754025112,-1.1799989785587326
12.800999999998345,0.7592350832614161,-1.154732936844647
13.000999999998234,0.7074894453213285,-1.118180406009438
13.200999999998123,0.6691156115755278,-1.0756846480587918
13.400999999998012,0.6470208546403831,-1.0357190462813477
13.600999999997901,0.6447460152318145,-0.9885372792774823
13.80099999999779,0.6584695333085404,-0.9340482572096762
14.00099999999768,0.6804722695645052,-0.8714894041280253
14.200999999997569,0.7044952229250794,-0.8131181490690056
14.400999999997458,0.7289256531615119,-0.7561416541479344
14.600999999997347,0.7582420812138803,-0.6997645927725177
14.800999999997236,0.7943821692880332,-0.6415702555249705
15.000999999997125,0.8310628071656563,-0.5832122689939376
15.200999999997014,0.8753462479175883,-0.5405786376693277
15.400999999996904,0.9117160693941373,-0.5175941919237432
15.600999999996793,0.9507976947688128,-0.5154445336538211
15.800999999996682,0.9997021982498242,-0.5255929862707059
16.000999999996573,1.057787217898163,-0.5519938481484621
16.200999999996817,1.1090599852028853,-0.5778209595644225
16.40099999999706,1.1598980224674686,-0.6000674293808115
16.600999999997306,1.2139194506397468,-0.6252449325844986
16.80099999999755,1.2620656338113687,-0.6574994327610857
17.000999999997795,1.3026770130599121,-0.6958571905497638
17.20099999999804,1.3202973205885908,-0.7432889730395846
17.400999999998284,1.3081869765127558,-0.7939586098459873
17.60099999999853,1.2866242968496981,-0.8445773628825822
17.800999999998773,1.253266517744537,-0.8999526845921805
18.000999999999017,1.2295023506568057,-0.9491741520164011
18.20099999999926,1.2065800819178565,-0.9982929215754328
18.400999999999506,1.1742426542713176,-1.0498267859807906
18.60099999999975,1.1541223088045438,-1.0867611124092489
18.799999999999994,1.1280363884837856,-1.1216106841811935
19.000000000000238,1.0937586287029772,-1.1455696620160178
19.200000000000482,1.0444441637317932,-1.1539852687381553
19.400000000000727,0.9899818703949047,-1.1459492024945594
19.60000000000097,0.9360416220469587,-1.1246991497856378
19.800000000001216,0.8820810206514209,-1.0986530943045363
20.00000000000146,0.8270592395570754,-1.0596861288548247
