Time (s),X (m),Y (m)
0.001,0.00048696676677933824,-0.0009960320817112695
0.20000000000000015,0.0014382716524149093,0.009433424109197135
0.4000000000000003,0.010729766493177448,0.02581921308202409
0.6000000000000004,0.03469973725514524,0.037475935785370916
0.8000000000000006,0.07178205340780963,0.024139123696545212
1.0000000000000007,0.10225892094846267,-0.016059025097830804
1.2009999999999785,0.13201275544394075,-0.06375701530511668
1.4009999999999565,0.13834722057521465,-0.123900673596107
1.6009999999999345,0.12102210109567763,-0.19555974304031384
1.8009999999999124,0.09212950020814777,-0.2768567528196402
2.0009999999998906,0.0515765645099352,-0.34785416349460807
2.2009999999998686,0.002825326107716448,-0.3578818635973199
2.4009999999998466,-0.05566702559104032,-0.33495056652097105
2.6009999999998246,-0.11435087277781693,-0.29802827104122454
2.8009999999998025,-0.15864705600695603,-0.24513625465756206
3.0009999999997805,-0.1822127548042355,-0.19133352720132793
3.2009999999997585,-0.17138641457306883,-0.13462737081802928
3.4009999999997365,-0.12448209481620164,-0.07669862798803433
3.6009999999997144,-0.07477251811931859,-0.01931700573299567
3.8009999999996924,-0.012101907404980586,0.029781975077853223
4.000999999999671,0.056190133524280886,0.07809481413500212
4.200999999999738,0.13310039119828174,0.12971376967567025
4.400999999999804,0.20691127666373238,0.19187142683126446
4.600999999999871,0.28392085732734157,0.24479187601589178
4.800999999999938,0.3616108294237823,0.27611489456679167
5.000000000000004,0.43957790876689024,0.24686362601712886
5.200000000000071,0.5122761411233958,0.18699317530655418
5.400000000000138,0.5745698892066919,0.12067092989818609
5.600000000000205,0.6031065176430908,0.04463624099114336
5.800000000000272,0.6178535770281508,-0.048605410662780145
6.000000000000338,0.6056097521992689,-0.12975657305623303
6.200000000000405,0.5744810496614121,-0.18360671199983508
6.400000000000472,0.531246980823587,-0.2180720637545256
6.600000000000539,0.4783852087032121,-0.21968995632803875
6.800000000000606,0.41986072871915436,-0.18475174288528687
7.000000000000672,0.36590783913527963,-0.15084748112834095
7.200000000000739,0.3210633969473393,-0.10233795201381969
7.400000000000806,0.29426469198833927,-0.03558056129429519
7.600000000000873,0.2852796427052239,0.035666547724383865
7.8000000000009395,0.3055829945760814,0.10638585264907913
8.000000000001005,0.3401146324923089,0.1468284649913548
8.200000000000895,0.3936767615056668,0.16167437386006672
8.400000000000784,0.4654924293186679,0.15721948432693117
8.600000000000673,0.5324166059438438,0.12624993154977343
8.800000000000562,0.5848802347607003,0.08098071191843924
9.000000000000451,0.6401442885169342,0.020267677372834702
9.20000000000034,0.6842981640643516,-0.044447114004075944
9.40000000000023,0.6999964268829562,-0.11649131793736446
9.600000000000119,0.686551978171454,-0.19813709844438146
9.800000000000008,0.6529369547992085,-0.28254257531228194
10.000999999999896,0.6008075594720201,-0.36490317121751314
10.200999999999786,0.5541175703023609,-0.4529146855292203
10.400999999999675,0.5013455890921478,-0.5435529190402967
10.600999999999564,0.44835501464925553,-0.6371183615990831
10.800999999999453,0.3832082962321018,-0.7265064298756271
11.000999999999342,0.3080188179086049,-0.811915749649582
11.200999999999231,0.24252102128103561,-0.8904495753220565
11.40099999999912,0.18344874914635842,-0.9696317539731699
11.60099999999901,0.10956154653179423,-1.044020097818858
11.800999999998899,0.031749532133905856,-1.1207710818242749
12.000999999998788,-0.04918860316530339,-1.200622234573407
12.200999999998677,-0.1301041189212179,-1.2775311977416115
12.400999999998566,-0.22387432351215955,-1.3429769758566061
12.600999999998455,-0.3266316572345191,-1.3925030828882203
12.800999999998345,-0.4311306845199164,-1.414257104713993
13.000999999998234,-0.5311472119619356,-1.4063337160014444
13.200999999998123,-0.6275583331289021,-1.3818531150895346
13.400999999998012,-0.6945564162342144,-1.3337808226446757
13.600999999997901,-0.7313103988533297,-1.27121935254232
13.80099999999779,-0.7322519523976472,-1.1935653573755824
14.00099999999768,-0.7134951972908479,-1.1146792402115109
14.200999999997569,-0.6684937054788459,-1.038074115005017
14.400999999997458,-0.611288260195958,-0.9658254672387289
14.600999999997347,-0.5466450905203107,-0.8948093780053319
14.800999999997236,-0.4688530928095966,-0.8503256679236711
15.000999999997125,-0.3997005938153128,-0.8375772910367948
15.200999999997014,-0.3652043070734946,-0.851157431977486
15.400999999996904,-0.3865348559211063,-0.8826548524141111
15.600999999996793,-0.430932638762645,-0.9383656515708185
15.800999999996682,-0.5050605236295129,-0.9908444235840402
16.000999999996573,-0.5762001655012287,-1.0506272348465509
16.200999999996817,-0.6498828626178862,-1.1042121334716324
16.40099999999706,-0.7335624227816263,-1.1393995833141373
16.600999999997306,-0.8228922723186938,-1.1570928122777058
16.80099999999755,-0.9112745942971567,-1.1542695252380841
17.000999999997795,-0.9932538756713906,-1.1232641964154817
17.20099999999804,-1.0699972106302449,-1.0704427757167498
17.400999999998284,-1.1346479681975217,-0.9952054414046289
17.60099999999853,-1.2023256566931229,-0.9086779514477581
17.800999999998773,-1.2545887713974633,-0.8196825062275032
18.000999999999017,-1.2863719672852525,-0.726323301533143
18.20099999999926,-1.2888040512374501,-0.6271813274810164
18.400999999999506,-1.2676119803366337,-0.5258160424058639
18.60099999999975,-1.2281368220241875,-0.42859171375082844
18.799999999999994,-1.170389576524667,-0.3394022667169381
19.000000000000238,-1.0968408786109753,-0.28392889257578185
19.200000000000482,-1.013850481310461,-0.2414057255115859
19.400000000000727,-0.9268722348167016,-0.2285710362615024
19.60000000000097,-0.8393187572436371,-0.2467064419650455
19.800000000001216,-0.7721769230464465,-0.28594931793733663
20.00000000000146,-0.7426613970038498,-0.33929916583142583
