Time (s),X (m),Y (m)
0.001,-0.0003713730577023104,0.0008446836120385872
0.20000000000000015,0.00647567652824268,-0.004476216711400897
0.4000000000000003,0.014891374222054627,-0.0026446022656431275
0.6000000000000004,0.0282628490650997,0.009573367685569722
0.8000000000000006,0.05726746306310011,0.004816288858654498
1.0000000000000007,0.08763122733443637,-0.010314455669876531
1.2009999999999785,0.1217446136515801,-0.018987027205006984
1.4009999999999565,0.1588745350612644,-0.0339370141962216
1.6009999999999345,0.19604332691935408,-0.06769616245579588
1.8009999999999124,0.2390437540507711,-0.08400498704863472
2.0009999999998906,0.2815839931576799,-0.09693441145423547
2.2009999999998686,0.31649428015316045,-0.10515638784685227
2.4009999999998466,0.3450569408419512,-0.12822914312334452
2.6009999999998246,0.3754422452999921,-0.14748213301535443
2.8009999999998025,0.40525345864799056,-0.17055634518458282
3.0009999999997805,0.4278858405612828,-0.21464862786928923
3.2009999999997585,0.4469109298005224,-0.2716656255523866
3.4009999999997365,0.45772586629449274,-0.3377647258714673
3.6009999999997144,0.47071320454786547,-0.3855324232275554
3.8009999999996924,0.47961775365729487,-0.43412263236622495
4.000999999999671,0.46693536059579466,-0.48146312224859816
4.200999999999738,0.42872488904627987,-0.5272436111861812
4.400999999999804,0.40059829988939966,-0.5694000492630051
4.600999999999871,0.37068809194394226,-0.6115964882425639
4.800999999999938,0.32229818459526544,-0.6469076029417056
5.000000000000004,0.2720975886065456,-0.6734888841074358
5.200000000000071,0.2313588686122059,-0.7067336231739544
5.400000000000138,0.19355449873219588,-0.7239919711787122
5.600000000000205,0.15258431780206777,-0.7049310297228437
5.800000000000272,0.10998258471261066,-0.6790954598286871
6.000000000000338,0.07129209458624836,-0.6538966562491315
6.200000000000405,0.03785298873301146,-0.6163378442442801
6.400000000000472,0.0028909999920912473,-0.5838311192449792
6.600000000000539,-0.028231425962423735,-0.5467629148417874
6.800000000000606,-0.05087018550224921,-0.49725927129999004
7.000000000000672,-0.055850979423696406,-0.4445330726391882
7.200000000000739,-0.037583278755794834,-0.3984598097695276
7.400000000000806,-0.0037813162411610914,-0.35259854027805737
7.600000000000873,0.04690375355825059,-0.3174679227093035
7.8000000000009395,0.12042684159909992,-0.303094954043537
8.000000000001005,0.19016073012681006,-0.295524148831809
8.200000000000895,0.24591868323823338,-0.27958282611631025
8.400000000000784,0.31394297923245285,-0.2656616621327091
8.600000000000673,0.380739749790875,-0.25304885976841823
8.800000000000562,0.4445931377361103,-0.2388521485459374
9.000000000000451,0.4944654895109419,-0.22243091746291624
9.20000000000034,0.549861943439157,-0.22567576590201427
9.40000000000023,0.6049082321612749,-0.25472351397120624
9.600000000000119,0.651551627764264,-0.27692133935181146
9.800000000000008,0.6888463167111145,-0.3080293218798151
10.000999999999896,0.7268157801150233,-0.3495408034087319
10.200999999999786,0.759764311141089,-0.4036503753492708
10.400999999999675,0.7877795841520143,-0.45606781330638224
10.600999999999564,0.7978836378396779,-0.5109381176249487
10.800999999999453,0.7885312491513204,-0.5608796851307152
11.000999999999342,0.7377215789989429,-0.6044874044885739
11.200999999999231,0.68051990188968,-0.6472253178546437
11.40099999999912,0.6377008013810359,-0.6908140151717792
11.60099999999901,0.59609719765146,-0.7335618408117398
11.800999999998899,0.5662366117984636,-0.7749336563198389
12.000999999998788,0.5314286062749533,-0.8176021488356919
12.200999999998677,0.4787774724631801,-0.8538429700342791
12.400999999998566,0.410158251233402,-0.876034238705816
12.600999999998455,0.34626641575876294,-0.8951742018441242
12.800999999998345,0.2855672240324283,-0.9111325820373598
13.000999999998234,0.23078475264832277,-0.929055414624348
13.200999999998123,0.1785570900240308,-0.9333502118047919
13.400999999998012,0.1276349635110099,-0.9344415086042438
13.600999999997901,0.07620452821832431,-0.9320081114259097
13.80099999999779,0.03332110608614734,-0.911159797788214
14.00099999999768,0.003560099514281981,-0.8649390099430927
14.200999999997569,-0.007753690095323994,-0.8002423806261544
14.400999999997458,-0.01300944857512334,-0.7340795258236283
14.600999999997347,-0.006221895008606811,-0.6699825988296861
14.800999999997236,-0.009963923371095555,-0.6132291752821556
15.000999999997125,-0.002397582017099999,-0.5593285094874215
15.200999999997014,0.02122381589983403,-0.5074484740208675
15.400999999996904,0.06187857686585155,-0.4680309747649586
15.600999999996793,0.1220163781400303,-0.44922052542065605
15.800999999996682,0.1793765048402009,-0.43447074673127495
16.000999999996573,0.2364142796747583,-0.4276473403678298
16.200999999996817,0.2924373279342598,-0.42887107371538025
16.40099999999706,0.3461501034826703,-0.4428776012484977
16.600999999997306,0.3968892671633129,-0.4678658947528282
16.80099999999755,0.44648790626084944,-0.5093911614869518
17.000999999997795,0.4851922283465901,-0.5609246215420307
17.20099999999804,0.5124277045910723,-0.6142251748339708
17.400999999998284,0.5248667333865511,-0.6732515179995295
17.60099999999853,0.5118109798829353,-0.728888958061149
17.800999999998773,0.49415128988733265,-0.7843533433233317
18.000999999999017,0.4745190465273125,-0.8363660376280263
18.20099999999926,0.44305108518167824,-0.8840009102318134
18.400999999999506,0.4056999356282485,-0.925026728101407
18.60099999999975,0.36026727214493115,-0.948678684470723
18.799999999999994,0.30990687348489887,-0.9650158939059601
19.000000000000238,0.26638537014671076,-0.9728167468668439
19.200000000000482,0.21640503375893175,-0.9468416586777212
19.400000000000727,0.1686015397210623,-0.8938512296875509
19.60000000000097,0.12771189479665435,-0.8385203752115716
19.800000000001216,0.08815098628863326,-0.7898293888549428
20.00000000000146,0.06395424701950321,-0.7379473205154911
