Time (s),X (m),Y (m)
0.001,0.0005727611008870025,-0.0009689812320744441
0.20000000000000015,-0.00010191389683314278,0.006579433792280411
0.4000000000000003,0.0018952773076753437,0.0120160918987415
0.6000000000000004,0.012919904605328597,0.0035095584796738834
0.8000000000000006,0.03590701553932328,-0.023015007951361816
1.0000000000000007,0.06711421028991517,-0.07115085858212584
1.2009999999999785,0.09875161249860188,-0.12633730206635935
1.4009999999999565,0.13339993351332366,-0.18185707311867041
1.6009999999999345,0.1739384312294789,-0.23802575082802066
1.8009999999999124,0.2185530409393917,-0.2943388254342187
2.0009999999998906,0.26113514956328165,-0.35390267908851597
2.2009999999998686,0.3041502172532262,-0.40702809595181705
2.4009999999998466,0.3529795131515034,-0.4574656608590766
2.6009999999998246,0.3998082296315186,-0.5094787900385694
2.8009999999998025,0.4385969492379775,-0.5777721640690058
3.0009999999997805,0.47049342144734896,-0.6505389775866703
3.2009999999997585,0.5092772240935044,-0.7123616661550299
3.4009999999997365,0.5526660022536436,-0.768982200594959
3.6009999999997144,0.5840162449892587,-0.8405354949485964
3.8009999999996924,0.6137950485383994,-0.9128522089619421
4.000999999999671,0.6362967030077971,-0.9820947221661562
4.200999999999738,0.6472779070120938,-1.0531345042831561
4.400999999999804,0.6469822449052827,-1.12041579954039
4.600999999999871,0.6446243316693043,-1.1854103160809262
4.800999999999938,0.6265828021319156,-1.2530582585067955
5.000000000000004,0.5975753737482842,-1.3194436900722721
5.200000000000071,0.552479604767208,-1.3789201009661949
5.400000000000138,0.5087156345464644,-1.439396218514463
5.600000000000205,0.4689708182145182,-1.4952931371651104
5.800000000000272,0.4178899730431962,-1.5400487805603031
6.000000000000338,0.3647537412251588,-1.5696253032899963
6.200000000000405,0.3069276446925546,-1.5956872133395261
6.400000000000472,0.24990676469048523,-1.586601899213791
6.600000000000539,0.18723032508485835,-1.5521834270957173
6.800000000000606,0.12645357893783676,-1.5048800112847254
7.000000000000672,0.07240731789179916,-1.4537278328111538
7.200000000000739,0.01301514619770422,-1.4125046303719033
7.400000000000806,-0.03680958174619025,-1.3606117218280573
7.600000000000873,-0.0735782647414845,-1.3082196119341105
7.8000000000009395,-0.10762009770474071,-1.2537670940119268
8.000000000001005,-0.14953637470411202,-1.2075574760442491
8.200000000000895,-0.15355025998376595,-1.1546372664292543
8.400000000000784,-0.13334824584615218,-1.0971450640577025
8.600000000000673,-0.09494753103827175,-1.042649640916027
8.800000000000562,-0.038400174403296974,-0.9957383170037256
9.000000000000451,0.028672529343531934,-0.9552997289067445
9.20000000000034,0.09750193639066305,-0.9270774960584194
9.40000000000023,0.17292779617637805,-0.9165624687815698
9.600000000000119,0.24963112842839433,-0.9185326918311831
9.800000000000008,0.3188780080387701,-0.9441592492725841
10.000999999999896,0.3840162524796732,-0.9805419466365309
10.200999999999786,0.4488139374257089,-1.0208876566146172
10.400999999999675,0.5130056167164321,-1.0646639326161098
10.600999999999564,0.5537906606770475,-1.1134625553350852
10.800999999999453,0.564852337468719,-1.1686548453187509
11.000999999999342,0.5587206474531918,-1.2292740151853794
11.200999999999231,0.5372974422073588,-1.2909813452153682
11.40099999999912,0.5079355820288206,-1.3570948004446783
11.60099999999901,0.4646901610052636,-1.405685631104718
11.800999999998899,0.4181709190506516,-1.4415512965766781
12.000999999998788,0.3643655332482577,-1.4578498367894612
12.200999999998677,0.30566796309772526,-1.4489890814458548
12.400999999998566,0.24584967516399575,-1.4276785825849845
12.600999999998455,0.18772964214742804,-1.3975809911216395
12.800999999998345,0.12884839410719698,-1.3515738330542624
13.000999999998234,0.07002434221684341,-1.299835729584598
13.200999999998123,0.009064410758604462,-1.2565788862018596
13.400999999998012,-0.0526174268641817,-1.219751783700951
13.600999999997901,-0.10600676430388367,-1.1694963442730855
13.80099999999779,-0.1632500132872973,-1.1162997137860973
14.00099999999768,-0.2211594272708414,-1.0626697187342569
14.200999999997569,-0.2579143653621213,-0.9992744950813077
14.400999999997458,-0.2860798658886268,-0.93420099439948
14.600999999997347,-0.3229258143962648,-0.87144364822734
14.800999999997236,-0.31898936400822864,-0.80992055807875
15.000999999997125,-0.29161029816878525,-0.7521388320213774
15.200999999997014,-0.2583458542542749,-0.6962863465084481
15.400999999996904,-0.2243186273688107,-0.6422747860567489
15.600999999996793,-0.17708213052688135,-0.5898364515043214
15.800999999996682,-0.11408376718207838,-0.5550997830634962
16.000999999996573,-0.0473474082005385,-0.5319436271192296
16.200999999996817,0.022535759328721167,-0.5177341471777559
16.40099999999706,0.09462250178659327,-0.5203566924463492
16.600999999997306,0.1578381562946398,-0.5524769742820633
16.80099999999755,0.21557827916419622,-0.5989623579356216
17.000999999997795,0.2680287793767979,-0.6577500749246814
17.20099999999804,0.3196938290088267,-0.7041326766831817
17.400999999998284,0.37455037462018803,-0.7415580561796743
17.60099999999853,0.4253725754498785,-0.795286124691612
17.800999999998773,0.47738942406626755,-0.8410476266224386
18.000999999999017,0.5235670567911214,-0.8863030714252131
18.20099999999926,0.5733566007816224,-0.9267429068521882
18.400999999999506,0.6149537754164618,-0.9734816571814767
18.60099999999975,0.6369744616741502,-1.0227699841065663
18.799999999999994,0.6285040087615219,-1.0785270211124476
19.000000000000238,0.6114795357386981,-1.1387926647115905
19.200000000000482,0.584387993055094,-1.1979485999478523
19.400000000000727,0.5434895043237404,-1.2554691242092748
19.60000000000097,0.5018733959881281,-1.314586593988944
19.800000000001216,0.4519101313106628,-1.3712134872823445
20.00000000000146,0.3905920216160082,-1.4168776055665542
