Time (s),X (m),Y (m)
0.001,0.0012161128565605834,-0.00026688599193002474
0.20000000000000015,-0.00034988556910918537,0.0006983915504935494
0.4000000000000003,0.006160575064753579,-0.000754889449191019
0.6000000000000004,0.025688686365345402,-0.009157096470356663
0.8000000000000006,0.04857233628846004,-0.020200490262326863
1.0000000000000007,0.06836544340110408,-0.029984862063321096
1.2009999999999785,0.09613757058582334,-0.03711691894698293
1.4009999999999565,0.11820052523279766,-0.04028513031238984
1.6009999999999345,0.13908915035257186,-0.04383327313925919
1.8009999999999124,0.15693591767659026,-0.0475833362189024
2.0009999999998906,0.18223849987171983,-0.056031258354275824
2.2009999999998686,0.21482011423018357,-0.06947716984663835
2.4009999999998466,0.2460304941513449,-0.07940578676139728
2.6009999999998246,0.28129852601113664,-0.09935171046911971
2.8009999999998025,0.30948034472156877,-0.11365723510052714
3.0009999999997805,0.31921955798471685,-0.14235792800656194
3.2009999999997585,0.31959688615104875,-0.17070284754745635
3.4009999999997365,0.3118558189455113,-0.2020718238088151
3.6009999999997144,0.30569648636512187,-0.23002636351658098
3.8009999999996924,0.29090111628227805,-0.2597133474994293
4.000999999999671,0.27321120684231875,-0.29861584708503996
4.200999999999738,0.2560501328864414,-0.3375195917659001
4.400999999999804,0.2357278729182338,-0.37014562584080735
4.600999999999871,0.21136664050857554,-0.4062738272937087
4.800999999999938,0.16879235601969764,-0.4425147581437008
5.000000000000004,0.1416585742533453,-0.4705492230216746
5.200000000000071,0.11866909549834175,-0.48475182761896124
5.400000000000138,0.09496453709617848,-0.48842486153508397
5.600000000000205,0.07367114553197249,-0.49086206404729543
5.800000000000272,0.03287543176329741,-0.4884800885512525
6.000000000000338,-0.009792464112103983,-0.47794333780026615
6.200000000000405,-0.04128716463824834,-0.4721855143331934
6.400000000000472,-0.07171853638708872,-0.46638787295439404
6.600000000000539,-0.10528536495645692,-0.447944109604744
6.800000000000606,-0.14801842831414214,-0.4268899180118052
7.000000000000672,-0.20248956182771277,-0.3942507708486812
7.200000000000739,-0.2567165459164872,-0.3622162933178133
7.400000000000806,-0.30569691352142175,-0.3247609446812674
7.600000000000873,-0.3526514047702349,-0.29764608121768177
7.8000000000009395,-0.3908126620939494,-0.2765110726642382
8.000000000001005,-0.43013179432314974,-0.23698285757305163
8.200000000000895,-0.4507465503710672,-0.18732937061498675
8.400000000000784,-0.4446494308382311,-0.13763321352643032
8.600000000000673,-0.4239070737286037,-0.08284218895178767
8.800000000000562,-0.3983722899227359,-0.03132703483600126
9.000000000000451,-0.3756945932352955,0.004107515942245983
9.20000000000034,-0.3634988282191986,0.03188609330996504
9.40000000000023,-0.350932142841934,0.06731151823979196
9.600000000000119,-0.3222612321658423,0.11982679301458304
9.800000000000008,-0.29417861339971246,0.17050043424158856
10.000999999999896,-0.2721917807848399,0.21618582467662473
10.200999999999786,-0.24368937863159307,0.26556491553846545
10.400999999999675,-0.21431400039874035,0.3121582824097809
10.600999999999564,-0.1668616560077087,0.33343393754823436
10.800999999999453,-0.11179678084855729,0.3288168629049509
11.000999999999342,-0.05698804442939391,0.3167724556502367
11.200999999999231,-0.0035498316623178306,0.30146564975897644
11.40099999999912,0.043902648575128066,0.2862063517233811
11.60099999999901,0.0870718122276775,0.2655635902012936
11.800999999998899,0.11889089232817732,0.2320118670818916
12.000999999998788,0.1394531299455082,0.18992771623483978
12.200999999998677,0.14543355289986015,0.14167087690922262
12.400999999998566,0.14200853367604674,0.09462502586741076
12.600999999998455,0.1347929401150168,0.04775336928397428
12.800999999998345,0.11961145809607701,-0.0037810612811394373
13.000999999998234,0.10113606898831752,-0.05899010996701334
13.200999999998123,0.08822638772372025,-0.11387657137752513
13.400999999998012,0.07110158736502323,-0.17085920617618555
13.600999999997901,0.039901743841472125,-0.22561257252022088
13.80099999999779,0.01909187737833456,-0.2724313818741196
14.00099999999768,-0.015919838429340097,-0.29730336588089795
14.200999999997569,-0.06355287856278513,-0.29427831792182585
14.400999999997458,-0.10974512638959585,-0.2788194210241213
14.600999999997347,-0.15889000134166917,-0.25307665861700696
14.800999999997236,-0.20793320858171607,-0.22605462576713206
15.000999999997125,-0.2551620521182067,-0.1959305665549298
15.200999999997014,-0.29877517511407226,-0.17253998367578358
15.400999999996904,-0.3477500361408374,-0.14659853351421195
15.600999999996793,-0.39537347898774977,-0.11434077961374647
15.800999999996682,-0.4398005955671033,-0.08116697560262799
16.000999999996573,-0.4711061136422162,-0.04777833175268634
16.200999999996817,-0.4796540531412612,-0.004312056950203129
16.40099999999706,-0.4674560054040947,0.04814777010879373
16.600999999997306,-0.45385817685603286,0.10317908427331746
16.80099999999755,-0.4385915132712732,0.15322790814427348
17.000999999997795,-0.4298792325782684,0.19862858207938433
17.20099999999804,-0.4144176408400979,0.23755529264650152
17.400999999998284,-0.4049332777007612,0.26614781211062233
17.60099999999853,-0.38679629998431625,0.28745129614081016
17.800999999998773,-0.37175836713141464,0.31026230954310036
18.000999999999017,-0.3490212691092327,0.3293644838941992
18.20099999999926,-0.3187311826233772,0.33737707020338936
18.400999999999506,-0.26808835930034963,0.3348883018425291
18.60099999999975,-0.21144416530526708,0.32529811673568965
18.799999999999994,-0.1582524452886013,0.3112976672877183
19.000000000000238,-0.10612125748620814,0.28903051917353234
19.200000000000482,-0.05143629841095289,0.26472287333913563
19.400000000000727,-0.0043166816895789046,0.2464458359619409
19.60000000000097,0.04996042896011138,0.21425859235835779
19.800000000001216,0.08924083742972923,0.17806317012871123
20.00000000000146,0.10052644305842734,0.1414347640478282
