Time (s),X (m),Y (m)
0.001,0.0012355833006349717,-0.00017906049427360483
0.20000000000000015,0.00013324228314117714,7.59263106235725e-05
0.4000000000000003,0.004905199191917276,0.0025926480781164603
0.6000000000000004,0.01024123726129981,0.003265771119279604
0.8000000000000006,0.008999831475073867,0.007356401917275471
1.0000000000000007,0.005598634296096373,0.012252359974365768
1.2009999999999785,0.011887558770864485,0.0126688062914494
1.4009999999999565,0.024901639435401347,0.009605128776023084
1.6009999999999345,0.044657276164911976,0.004516800402463284
1.8009999999999124,0.07040612813350976,-0.008017359301274778
2.0009999999998906,0.100628352282592,-0.028480091868859463
2.2009999999998686,0.13036143354467514,-0.04642414559717684
2.4009999999998466,0.14735759615626168,-0.06223813992329456
2.6009999999998246,0.14578220284381274,-0.08544946264132193
2.8009999999998025,0.1378541028017856,-0.11326547596070063
3.0009999999997805,0.12368324470542995,-0.14667658323594596
3.2009999999997585,0.11441052744794973,-0.18185746869622227
3.4009999999997365,0.09361773729630396,-0.22445332217195815
3.6009999999997144,0.0788519563712672,-0.26144912097447415
3.8009999999996924,0.06196751070336636,-0.3002547007281276
4.000999999999671,0.03548356909391222,-0.3453274695388125
4.200999999999738,0.010769993110078339,-0.3916539594640047
4.400999999999804,-0.006300921661312521,-0.4322113125152938
4.600999999999871,-0.025631297292169362,-0.4720954879612368
4.800999999999938,-0.0442666468887187,-0.5156804643808706
5.000000000000004,-0.07082694382015685,-0.5531782543425386
5.200000000000071,-0.1097789526603435,-0.5740599589583169
5.400000000000138,-0.15207569911282173,-0.5731189650256596
5.600000000000205,-0.1888899158203394,-0.5571430233878487
5.800000000000272,-0.23587650173807062,-0.5339869127169532
6.000000000000338,-0.28481268712410096,-0.5116958143773013
6.200000000000405,-0.33463380461666303,-0.4849396902146973
6.400000000000472,-0.37935867350035773,-0.46822971733232127
6.600000000000539,-0.423874470655829,-0.447750228132894
6.800000000000606,-0.46504466221693885,-0.4203247280934893
7.000000000000672,-0.49131660851316833,-0.39379826509886035
7.200000000000739,-0.5008884855201985,-0.35803339534597
7.400000000000806,-0.5020054200830022,-0.33015544568646926
7.600000000000873,-0.4881377526136255,-0.29091352190807623
7.8000000000009395,-0.47295289516950917,-0.2528151228533957
8.000000000001005,-0.4656009279165848,-0.22400030344984906
8.200000000000895,-0.45505626058395443,-0.19028853249881147
8.400000000000784,-0.43114277108169075,-0.1460339319704828
8.600000000000673,-0.4119939674686817,-0.1019799771803748
8.800000000000562,-0.38465641657946564,-0.05694157502857398
9.000000000000451,-0.35109945516456353,-0.0018332380041895975
9.20000000000034,-0.3208586640917032,0.04985623294626605
9.40000000000023,-0.28838519214646924,0.0949104059528934
9.600000000000119,-0.24796836402885133,0.12491742655296816
9.800000000000008,-0.19234500862179799,0.13131818322863895
10.000999999999896,-0.13751683509978874,0.11491144545554134
10.200999999999786,-0.09047437761658644,0.09899732355640772
10.400999999999675,-0.04050242448942499,0.08223322735799093
10.600999999999564,0.012002406983228181,0.06343088899022566
10.800999999999453,0.06321245974195942,0.04648727924570299
11.000999999999342,0.11771435390490088,0.023011787270290712
11.200999999999231,0.16722311882777485,-0.004150561549735059
11.40099999999912,0.20254964546030627,-0.03777164159649144
11.60099999999901,0.21832439044141888,-0.07696886966278965
11.800999999998899,0.21573966878122888,-0.12331750968951062
12.000999999998788,0.2043425187078845,-0.16464057694702186
12.200999999998677,0.19093298328004502,-0.20611791064654494
12.400999999998566,0.1712879872075567,-0.25414923132967027
12.600999999998455,0.1504479662388148,-0.30472386560249165
12.800999999998345,0.12143891947466633,-0.3641653798531334
13.000999999998234,0.08300862253852165,-0.41919834067897066
13.200999999998123,0.0456569645396347,-0.46225858487079063
13.400999999998012,0.008261363548325854,-0.48263695469379014
13.600999999997901,-0.0323867096933128,-0.4889718238918907
13.80099999999779,-0.08588421528883068,-0.48042720056212534
14.00099999999768,-0.1300613649393382,-0.47138524888940153
14.200999999997569,-0.16951562763608,-0.46121089771849333
14.400999999997458,-0.21741884050495383,-0.4430618528671103
14.600999999997347,-0.2669981077322705,-0.40414614952757405
14.800999999997236,-0.3029849790150378,-0.35964280598737997
15.000999999997125,-0.31303531472650487,-0.318980413493933
15.200999999997014,-0.3039924277762335,-0.27231363755633387
15.400999999996904,-0.2827612649255186,-0.22248630607471262
15.600999999996793,-0.25945143593089437,-0.1712540855346691
15.800999999996682,-0.23439321382619613,-0.11702426040272329
16.000999999996573,-0.20348890999121547,-0.07481405417595662
16.200999999996817,-0.16284947458187063,-0.05290382301028116
16.40099999999706,-0.11604766730360065,-0.05318402975367326
16.600999999997306,-0.06843814309351123,-0.06744176335233013
16.80099999999755,-0.013763474453208241,-0.0907755468859623
17.000999999997795,0.0447921433890102,-0.11761064197663935
17.20099999999804,0.10011313064811367,-0.15115325461685059
17.400999999998284,0.15507104377445005,-0.18375390224651458
17.60099999999853,0.2031396312309502,-0.21278933666904207
17.800999999998773,0.2268072516410707,-0.2504951894764977
18.000999999999017,0.22912914023767966,-0.2938869670662869
18.20099999999926,0.21530494102032935,-0.33646837119882084
18.400999999999506,0.1872165137999222,-0.39019926771606334
18.60099999999975,0.1584133106622268,-0.4467500519179254
18.799999999999994,0.12783297331625404,-0.4994895100743728
19.000000000000238,0.09558793982404358,-0.5377951939432379
19.200000000000482,0.05461315274444749,-0.5605675313382934
19.400000000000727,0.010387415687203786,-0.5582953287554804
19.60000000000097,-0.0391008622616421,-0.5397021327005426
19.800000000001216,-0.09240795178033386,-0.5210651468510091
20.00000000000146,-0.14208749773068846,-0.5021523444302892
