Time (s),X (m),Y (m)
0.001,0.0006558713247593165,-0.0009345558501746678
0.20000000000000015,0.000712118700366928,0.004825235181987566
0.4000000000000003,0.0031983147706754157,0.010071497426906412
0.6000000000000004,0.006096024014378232,0.021133849967647445
0.8000000000000006,0.017135669078613806,0.025337050090125924
1.0000000000000007,0.03222380322478639,0.0253928728121312
1.2009999999999785,0.051200513077336966,0.007697171526559375
1.4009999999999565,0.08354095041890255,-0.008915926709444461
1.6009999999999345,0.11671762022540963,-0.023597644781548712
1.8009999999999124,0.14606930387551612,-0.06368418119110014
2.0009999999998906,0.16955889405096927,-0.09873871834016605
2.2009999999998686,0.19444704991719794,-0.12781117420058927
2.4009999999998466,0.21510070037783452,-0.14581188056244737
2.6009999999998246,0.24460663507459027,-0.15762906088548637
2.8009999999998025,0.2686909085912392,-0.17813988450109938
3.0009999999997805,0.29517245780207124,-0.18666918970864624
3.2009999999997585,0.33133980885753556,-0.1913987260179664
3.4009999999997365,0.3555880556445736,-0.21264861030990753
3.6009999999997144,0.3769760339684263,-0.236982430405164
3.8009999999996924,0.40047799128454614,-0.25351947693009924
4.000999999999671,0.42572985116661877,-0.27014938254177484
4.200999999999738,0.4487365973789377,-0.28245651530724575
4.400999999999804,0.4642181855763973,-0.3021871780461034
4.600999999999871,0.48349957309328,-0.32791437266870455
4.800999999999938,0.4955490076400004,-0.35921415851074184
5.000000000000004,0.5130509046972556,-0.384990529261208
5.200000000000071,0.5386385791077124,-0.41194844299983513
5.400000000000138,0.5606510074727094,-0.43715039044478354
5.600000000000205,0.5804022699812448,-0.45562075315417605
5.800000000000272,0.599564849298248,-0.4842718349392364
6.000000000000338,0.6213842579925362,-0.5041163449726357
6.200000000000405,0.6464096903951737,-0.5271412040586233
6.400000000000472,0.6810957390702613,-0.549884391906672
6.600000000000539,0.7013567947357844,-0.5712128400170765
6.800000000000606,0.7225343567464592,-0.5908743281175866
7.000000000000672,0.7451435105856292,-0.6150885762100275
7.200000000000739,0.7664677688939607,-0.6310870946378966
7.400000000000806,0.7843371223184594,-0.6515596963082219
7.600000000000873,0.7929526002114909,-0.6840178805628129
7.8000000000009395,0.8097704062945927,-0.7220024625968838
8.000000000001005,0.8174596312567222,-0.7704373577746214
8.200000000000895,0.8348020405911589,-0.8087131116150356
8.400000000000784,0.8562901773937242,-0.844791369512169
8.600000000000673,0.8793719630564965,-0.8837114698699788
8.800000000000562,0.8928860611391263,-0.928153989060114
9.000000000000451,0.9030822052355352,-0.9580549016999361
9.20000000000034,0.9117076217830516,-0.989780967682653
9.40000000000023,0.9257100203906107,-1.0269114665088142
9.600000000000119,0.9381192059955026,-1.0749916962613948
9.800000000000008,0.9576580001002845,-1.1139156145326157
10.000999999999896,0.9792927561169212,-1.1486536628270463
10.200999999999786,0.9888671117243139,-1.1850995708664687
10.400999999999675,0.991968338956722,-1.2209454888564009
10.600999999999564,0.9818859449456244,-1.2553142385353182
10.800999999999453,0.9693897320200263,-1.2934626720469795
11.000999999999342,0.9426320960121903,-1.3243141439025818
11.200999999999231,0.9035214939355549,-1.3472900092554325
11.40099999999912,0.8630028828099976,-1.3607267756715933
11.60099999999901,0.8242974991312145,-1.362771130461025
11.800999999998899,0.7904339180845659,-1.3687135220690794
12.000999999998788,0.7550443058261972,-1.3787395615156413
12.200999999998677,0.7225606835868787,-1.3588940981890802
12.400999999998566,0.6870639243285913,-1.3452202434834368
12.600999999998455,0.6578180588650208,-1.313496504782185
12.800999999998345,0.6401855987677884,-1.286406957696382
13.000999999998234,0.6152624280998107,-1.2611058091503708
13.200999999998123,0.5962513815810696,-1.2280216810059408
13.400999999998012,0.5723024377848388,-1.2041752427453305
13.600999999997901,0.548220031899267,-1.1759206982807922
13.80099999999779,0.5232265232775779,-1.1542086109250325
14.00099999999768,0.49582889402590824,-1.1264013786217273
14.200999999997569,0.47802469277397996,-1.0756422835171895
14.400999999997458,0.46152175195013706,-1.039550150420906
14.600999999997347,0.4364795776767019,-1.0010875259803593
14.800999999997236,0.41186427846579116,-0.9727287096510988
15.000999999997125,0.3875681491604392,-0.9488015111248317
15.200999999997014,0.3668781105002146,-0.9213314751408137
15.400999999996904,0.34637275071506723,-0.8836237063102728
15.600999999996793,0.32183015363079187,-0.8477582614150778
15.800999999996682,0.29637752130458345,-0.8226885178184623
16.000999999996573,0.27551097891031956,-0.7926711875825915
16.200999999996817,0.2558523194100252,-0.7624806044333667
16.40099999999706,0.24064680126729737,-0.7313172062463112
16.600999999997306,0.23638769432421325,-0.6885714945106899
16.80099999999755,0.22909924379343008,-0.6503640241273793
17.000999999997795,0.21730195372518482,-0.6124021916256506
17.20099999999804,0.20762678874139098,-0.5711614517978103
17.400999999998284,0.20540861320910234,-0.5286507862975807
17.60099999999853,0.20499447880982416,-0.4870750753885391
17.800999999998773,0.21059819969856033,-0.44480054652449175
18.000999999999017,0.22629818420008482,-0.4010662236075397
18.20099999999926,0.2501522915983443,-0.36117767567119113
18.400999999999506,0.27722719496284104,-0.32919978478543865
18.60099999999975,0.30156565496702115,-0.29706793427007805
18.799999999999994,0.3262305093419579,-0.26940510303573584
19.000000000000238,0.34503374750684057,-0.2526681092586431
19.200000000000482,0.3591023790973568,-0.22908007352406282
19.400000000000727,0.37328134396085527,-0.2089711130108278
19.60000000000097,0.3968026136679709,-0.179061223268073
19.800000000001216,0.42455220250108416,-0.15791977328952145
20.00000000000146,0.46240553614756885,-0.13785344026195756
