Time (s),X (m),Y (m)
0.001,0.0008829029745972832,0.0007899207378008392
0.20000000000000015,0.005723176190861568,0.004213403311514587
0.4000000000000003,0.006668946846345511,0.004133955426900231
0.6000000000000004,0.009914178772568704,0.003273352780692125
0.8000000000000006,0.009700120609474314,-0.0024699973344926834
1.0000000000000007,0.01530646194366284,-0.003652569881487217
1.2009999999999785,0.020450518333776004,-0.0023643705392522095
1.4009999999999565,0.024946493174443786,-0.0018277353417464506
1.6009999999999345,0.0311430335186644,0.0015825696989639612
1.8009999999999124,0.035825051096501456,0.0030858270404140278
2.0009999999998906,0.04005799185454767,0.0017097987885666879
2.2009999999998686,0.04478128458127449,-0.0005604243949696677
2.4009999999998466,0.050312885333684644,0.0009980905041626904
2.6009999999998246,0.054920695439825175,0.000505778831100216
2.8009999999998025,0.06052545402830012,0.006778177605965656
3.0009999999997805,0.06548546338711012,0.008512239618054734
3.2009999999997585,0.07011596295587405,0.007933240580859187
3.4009999999997365,0.07449101610171763,0.013434121198705008
3.6009999999997144,0.07884120922100156,0.019617324575967175
3.8009999999996924,0.0824432117702303,0.020474257712640304
4.000999999999671,0.08709862904061826,0.022747691657640744
4.200999999999738,0.09113829064821263,0.024538528565391925
4.400999999999804,0.09353582886822377,0.028454743166277975
4.600999999999871,0.0964190745094461,0.03044225544623988
4.800999999999938,0.09837138226444658,0.03512860048427606
5.000000000000004,0.10148716381747956,0.0382024348579058
5.200000000000071,0.10390520002384777,0.04094664988725476
5.400000000000138,0.10554467977075349,0.045405295883421494
5.600000000000205,0.10875733655917466,0.05013058533502406
5.800000000000272,0.11017978324732126,0.05475437100047025
6.000000000000338,0.11346893846023424,0.05592918754711392
6.200000000000405,0.11645166358552281,0.05861234982737482
6.400000000000472,0.11763170761802251,0.06322528690703756
6.600000000000539,0.12109270982408027,0.06410778628913294
6.800000000000606,0.12385029863416834,0.06600332924097874
7.000000000000672,0.12427956201696866,0.0700802956263197
7.200000000000739,0.1260554238390311,0.07311449789727607
7.400000000000806,0.12848419881144396,0.07671414096075235
7.600000000000873,0.13297821561866568,0.07800031051244508
7.8000000000009395,0.13519213126035134,0.08133429937988935
8.000000000001005,0.13566175200423153,0.08523542379792018
8.200000000000895,0.1357117381755322,0.09085758950066287
8.400000000000784,0.13741071110738853,0.09427633101230673
8.600000000000673,0.13771824082293924,0.10124465211966302
8.800000000000562,0.14074239550032008,0.10557014409531079
9.000000000000451,0.14356704213569466,0.10874813595378208
9.20000000000034,0.14390370706183728,0.11357030192430884
9.40000000000023,0.1455936215034458,0.11776211637222771
9.600000000000119,0.14672209708284165,0.12248212288931068
9.800000000000008,0.14647011059830903,0.12824726952384602
10.000999999999896,0.14955061554288457,0.13239006638377232
10.200999999999786,0.14925525740477552,0.13764370960243805
10.400999999999675,0.14738772253302315,0.1441570757044589
10.600999999999564,0.1468503755095372,0.15107705223491907
10.800999999999453,0.1443600270968938,0.15811928233764042
11.000999999999342,0.14001845541680927,0.1658975258345614
11.200999999999231,0.13429532046117465,0.17334532274968056
11.40099999999912,0.13529744455994244,0.1789274666521234
11.60099999999901,0.1344895866272941,0.18581092309371644
11.800999999998899,0.1334452455029333,0.19228598957558635
12.000999999998788,0.13373923115832084,0.19740364769662366
12.200999999998677,0.1309671066205525,0.2044293447872786
12.400999999998566,0.12956268234697843,0.21012115537872958
12.600999999998455,0.12784437231965678,0.21553856556006784
12.800999999998345,0.1251909472331322,0.22099317087304365
13.000999999998234,0.12118472503630087,0.2251985665022224
13.200999999998123,0.11705730296262164,0.2301771088254386
13.400999999998012,0.11327882799966076,0.23433618887868404
13.600999999997901,0.11028927975236769,0.23827390691757877
13.80099999999779,0.10948988071150582,0.24228454242007477
14.00099999999768,0.10757162864922426,0.2462623925970928
14.200999999997569,0.10505408374122446,0.24977392734661766
14.400999999997458,0.09995922856331885,0.2527849117175104
14.600999999997347,0.09719136827761345,0.2563392981548039
14.800999999997236,0.09221407288074016,0.25883891312831103
15.000999999997125,0.08679125350707814,0.2613560453727709
15.200999999997014,0.08368134820748546,0.26455701444137886
15.400999999996904,0.0795535436039559,0.26640862097391355
15.600999999996793,0.07716576687812869,0.2700063062282275
15.800999999996682,0.0746931567058348,0.2725397667659343
16.000999999996573,0.07287000263653697,0.2765290875833074
16.200999999996817,0.06906497186070427,0.2786671881409101
16.40099999999706,0.06576253404299218,0.28221754208177896
16.600999999997306,0.06396269429367857,0.2854355798801673
16.80099999999755,0.059305816683580946,0.28580758991433197
17.000999999997795,0.055953190025022664,0.2872537768890065
17.20099999999804,0.05224277357165311,0.2896044509151735
17.400999999998284,0.04712433187045786,0.2916844364946431
17.60099999999853,0.04205332835778996,0.292241710981626
17.800999999998773,0.03897949416025535,0.2945420450787149
18.000999999999017,0.03301850470507196,0.2952760494488305
18.20099999999926,0.028535933247119005,0.29726634075123476
18.400999999999506,0.024737597726737538,0.29879675282896084
18.60099999999975,0.021560675736753725,0.30003709886452057
18.799999999999994,0.016282255993523686,0.3014157709480998
19.000000000000238,0.009011010780725566,0.3000889318040391
19.200000000000482,0.0015963002044042818,0.2986014917143991
19.400000000000727,-0.005372271752020908,0.2981218205656625
19.60000000000097,-0.010606046568807658,0.3005587163788014
19.800000000001216,-0.01705736731322118,0.2985032181424357
20.00000000000146,-0.024341567933295734,0.29701527935967104
