Time (s),X (m),Y (m)
0.001,-0.0006729371591054965,0.000515584144559974
0.20000000000000015,0.004964303207301312,-0.0015921931889662513
0.4000000000000003,0.006758930421116613,-0.005513566398510845
0.6000000000000004,0.01335100222424689,-0.00043314204237517815
0.8000000000000006,0.027386673804777426,0.005404365069968224
1.0000000000000007,0.04466290175475781,0.009377512445550015
1.2009999999999785,0.05447029282476126,0.01866693561932085
1.4009999999999565,0.07019129382787312,0.027550815177933122
1.6009999999999345,0.0906630356844117,0.029384851071083434
1.8009999999999124,0.11283617136621131,0.03181326033635825
2.0009999999998906,0.14188269372611187,0.03508773853100629
2.2009999999998686,0.16713388123179898,0.03815233049918619
2.4009999999998466,0.195745392166487,0.03848743645551548
2.6009999999998246,0.22573860028542575,0.01768865431260113
2.8009999999998025,0.25689564751384925,-0.010991879988397556
3.0009999999997805,0.28703900788464287,-0.04200778108751317
3.2009999999997585,0.30896391045449995,-0.06985289698502176
3.4009999999997365,0.32003821326830084,-0.0948112769190797
3.6009999999997144,0.31676972070863063,-0.13292113675993225
3.8009999999996924,0.3168203913682114,-0.16309228633551237
4.000999999999671,0.3192129823820685,-0.18672940576837435
4.200999999999738,0.3238799152337916,-0.21525332067077663
4.400999999999804,0.32814576021243075,-0.25558227379477194
4.600999999999871,0.32798700264029146,-0.2951237725877202
4.800999999999938,0.32223991133878416,-0.33501716654546465
5.000000000000004,0.3166356481828678,-0.3761800854600542
5.200000000000071,0.3099384536599527,-0.41787029996326763
5.400000000000138,0.27149415000590826,-0.4580417545538663
5.600000000000205,0.21808967121385586,-0.48828924803142826
5.800000000000272,0.1720225928298733,-0.5013199441622441
6.000000000000338,0.12232367099223596,-0.5006415822696026
6.200000000000405,0.07509039451863182,-0.494121509080485
6.400000000000472,0.028823671533271422,-0.4901935658211804
6.600000000000539,-0.021305555841165398,-0.474442949064896
6.800000000000606,-0.06173912722500441,-0.44743609830208403
7.000000000000672,-0.08097123452975266,-0.4108159193928388
7.200000000000739,-0.08209437042793294,-0.36037972566251275
7.400000000000806,-0.06959157843208816,-0.30665402679428083
7.600000000000873,-0.05297355942481429,-0.2507761772626499
7.8000000000009395,-0.02456224810755404,-0.20802766219127714
8.000000000001005,0.01647118064976702,-0.18364901095632594
8.200000000000895,0.06287163361498076,-0.16725236801810758
8.400000000000784,0.11429745900613342,-0.16438760836738756
8.600000000000673,0.17025987702322382,-0.17163139312725698
8.800000000000562,0.2212084478086912,-0.17678279014903142
9.000000000000451,0.2718707632714772,-0.1829161556677402
9.20000000000034,0.3308889771895279,-0.20901940011518994
9.40000000000023,0.3827185919942089,-0.242385239140389
9.600000000000119,0.4103097929161913,-0.28830117318236764
9.800000000000008,0.4152506708878459,-0.3374716397385602
10.000999999999896,0.40626455427982106,-0.39077239687558135
10.200999999999786,0.38564736107063746,-0.4460484707794678
10.400999999999675,0.363766099957529,-0.5027550592030954
10.600999999999564,0.3398880016377815,-0.5613568697290127
10.800999999999453,0.3187333328857275,-0.6236610572332961
11.000999999999342,0.2943190357208233,-0.6844209786626362
11.200999999999231,0.2582837724266697,-0.7455358601843988
11.40099999999912,0.21793066369472663,-0.798557904084587
11.60099999999901,0.17485235937238197,-0.8389860470173436
11.800999999998899,0.11191590003612012,-0.846587143157551
12.000999999998788,0.05737070013664333,-0.8488308073897298
12.200999999998677,-0.0005413947739108746,-0.8453482670653951
12.400999999998566,-0.06151430753078215,-0.8289378325892749
12.600999999998455,-0.12377228671863458,-0.8068950009736915
12.800999999998345,-0.18221648718596353,-0.7779903165405768
13.000999999998234,-0.23932487562736876,-0.7424079296485382
13.200999999998123,-0.2894761995534831,-0.6977060081550467
13.400999999998012,-0.32515120801337855,-0.6614162793313162
13.600999999997901,-0.34435133686127456,-0.6235731505100367
13.80099999999779,-0.3428017519270453,-0.5752900138740021
14.00099999999768,-0.3260960926719068,-0.5190992459312785
14.200999999997569,-0.29069976404195685,-0.4594464502917934
14.400999999997458,-0.2521429373895356,-0.406668706502343
14.600999999997347,-0.19857736963746944,-0.3732644113576873
14.800999999997236,-0.13563104960887695,-0.3684343890502439
15.000999999997125,-0.07617924682478243,-0.3760125864446224
15.200999999997014,-0.01504773760364867,-0.39502988299159886
15.400999999996904,0.04158570699352656,-0.4273815323629501
15.600999999996793,0.07889646125179701,-0.46818008228562996
15.800999999996682,0.08646603180513762,-0.5208758365943347
16.000999999996573,0.07009545635164081,-0.5725431754865583
16.200999999996817,0.04417408965510064,-0.6189770224975745
16.40099999999706,0.007579843215583169,-0.6533342157522287
16.600999999997306,-0.043496657882572246,-0.6687901557581145
16.80099999999755,-0.09664317076147406,-0.6701368628905793
17.000999999997795,-0.15711370777559683,-0.6577122783023089
17.20099999999804,-0.22390507540579518,-0.6329789045776482
17.400999999998284,-0.28690138991109165,-0.6140395500480655
17.60099999999853,-0.3422745995110137,-0.595603568975935
17.800999999998773,-0.3988335000226687,-0.5720237307445761
18.000999999999017,-0.4600635687929099,-0.5494987311871318
18.20099999999926,-0.5177211859898785,-0.5324904582965425
18.400999999999506,-0.5724353557930405,-0.5009452632583438
18.60099999999975,-0.6198697541680478,-0.4808597586849274
18.799999999999994,-0.6486720856494423,-0.455953020353473
19.000000000000238,-0.6601065222973275,-0.4178158086759578
19.200000000000482,-0.6592098154833047,-0.3727828485172006
19.400000000000727,-0.6433613890111333,-0.32382705171870546
19.60000000000097,-0.6191908901138856,-0.2711128013696064
19.800000000001216,-0.5984357764452533,-0.21928767844722064
20.00000000000146,-0.5627216694567876,-0.17840442205254942
