Time (s),X (m),Y (m)
0.001,0.00013020853671323254,0.0010272443824616275
0.20000000000000015,0.0014818728598508437,0.0004458011042188058
0.4000000000000003,0.0037648765028628502,0.006965721869120276
0.6000000000000004,0.00771698501378155,0.010364780683129033
0.8000000000000006,0.013186166637207158,0.016599368376673303
1.0000000000000007,0.019154105890019094,0.0066307816799155645
1.2009999999999785,0.02854529985628013,0.010036047581219058
1.4009999999999565,0.03942113836485559,0.008808756211549805
1.6009999999999345,0.04523762197945954,0.015011432375492418
1.8009999999999124,0.05324352263702918,0.016034833802872153
2.0009999999998906,0.06779287103512253,0.023124009370718273
2.2009999999998686,0.0840236403464744,0.02882030241558809
2.4009999999998466,0.09233284986792165,0.0291373254868004
2.6009999999998246,0.10379394505478368,0.03240458894064897
2.8009999999998025,0.11205046207660306,0.018336713862590094
3.0009999999997805,0.11830154975081525,0.006513198206980277
3.2009999999997585,0.1283743295736868,-0.0013555518981705373
3.4009999999997365,0.14332016508642775,0.0012037575447657247
3.6009999999997144,0.15841390075667386,-0.0007064087363483221
3.8009999999996924,0.1750250971497932,0.000888056059235972
4.000999999999671,0.19426062683585016,0.0009396074786041434
4.200999999999738,0.20633564465033608,-0.004584532951263927
4.400999999999804,0.20966160123347163,-0.024634267350320867
4.600999999999871,0.21287011206239526,-0.04222166247021916
4.800999999999938,0.21707070215522936,-0.053711442135990266
5.000000000000004,0.22374834705000798,-0.053998983141220244
5.200000000000071,0.2362963339432094,-0.058838994459019876
5.400000000000138,0.2454354521337185,-0.0663352154487771
5.600000000000205,0.2582170354948399,-0.07114030994178991
5.800000000000272,0.2713928690118534,-0.08101807188590383
6.000000000000338,0.2863891751350409,-0.08188759320636128
6.200000000000405,0.29864007506904205,-0.08704785305331986
6.400000000000472,0.3125202860590146,-0.08734498839840868
6.600000000000539,0.31789674668777324,-0.09935138166728798
6.800000000000606,0.32155297349388856,-0.11049804448839065
7.000000000000672,0.322704725089134,-0.1268968221028008
7.200000000000739,0.33329566540224115,-0.1319309317127146
7.400000000000806,0.3479320444455545,-0.13888007812970543
7.600000000000873,0.35422206093389563,-0.14879466948203102
7.8000000000009395,0.3649248034847549,-0.15254901857019065
8.000000000001005,0.3723875877899805,-0.16038721527522623
8.200000000000895,0.38758067906216775,-0.16128134220410614
8.400000000000784,0.39622961438587395,-0.16898353779465605
8.600000000000673,0.405680667696014,-0.17866309894934354
8.800000000000562,0.4180378608195082,-0.18776499072819336
9.000000000000451,0.4321174740269194,-0.18342782305567829
9.20000000000034,0.4432872542495951,-0.18862704867660185
9.40000000000023,0.4561800125439584,-0.20286087923287358
9.600000000000119,0.470288987937553,-0.21085825342104206
9.800000000000008,0.4846836331455824,-0.2156422955588758
10.000999999999896,0.5020868982228682,-0.21297296506228153
10.200999999999786,0.5165729998282893,-0.21769312012110642
10.400999999999675,0.5288615932644727,-0.22328942562748183
10.600999999999564,0.5439883351982645,-0.23129905594476086
10.800999999999453,0.5509751174482155,-0.239169223745935
11.000999999999342,0.5627535227787346,-0.23994528257532297
11.200999999999231,0.578530511289094,-0.24715088336507104
11.40099999999912,0.5895471016009292,-0.25502200681472825
11.60099999999901,0.6059535120053499,-0.25491291380143755
11.800999999998899,0.6144556914590371,-0.2656140115142533
12.000999999998788,0.6210896627207602,-0.2752792640516366
12.200999999998677,0.633583534416035,-0.280587783624014
12.400999999998566,0.6452248592232236,-0.2836253175269178
12.600999999998455,0.6588537642753924,-0.29044913257439936
12.800999999998345,0.6706915527890809,-0.2898935711345958
13.000999999998234,0.6804339909497515,-0.3008780510496428
13.200999999998123,0.6949563771195058,-0.29682475236248324
13.400999999998012,0.705815996833177,-0.30292634112634564
13.600999999997901,0.7176330692513998,-0.3099279675085474
13.80099999999779,0.7309336780557154,-0.3052137871501234
14.00099999999768,0.744039109524142,-0.313764163667067
14.200999999997569,0.7546411912875309,-0.3254128804526502
14.400999999997458,0.770410392015543,-0.32886374415878317
14.600999999997347,0.7844315097121183,-0.3414289023761816
14.800999999997236,0.7997786804988001,-0.34909233406837803
15.000999999997125,0.8126864647770766,-0.3530401512177118
15.200999999997014,0.8280772510993076,-0.3470535216103064
15.400999999996904,0.8469951475806775,-0.35229040898089403
15.600999999996793,0.8647118827452199,-0.3507459187680722
15.800999999996682,0.8797917990087277,-0.35321887306401567
16.000999999996573,0.8926714170402653,-0.3650436992218619
16.200999999996817,0.9026891693709135,-0.38264044597234487
16.40099999999706,0.9149959861960695,-0.3890931630514451
16.600999999997306,0.9268825704127197,-0.3865972153614308
16.80099999999755,0.9444284467173039,-0.38662690309203357
17.000999999997795,0.9571352755996033,-0.39776113877211994
17.20099999999804,0.9664569202388928,-0.4041983141433192
17.400999999998284,0.9763544724572556,-0.41172618264078653
17.60099999999853,0.9896621734035926,-0.4189924236105238
17.800999999998773,1.0025163390498575,-0.42381364800079924
18.000999999999017,1.0182717593232977,-0.4221250086136251
18.20099999999926,1.0352395364869977,-0.4341511034097871
18.400999999999506,1.0494577231479176,-0.4330353197183411
18.60099999999975,1.069870463332368,-0.4269327304422583
18.799999999999994,1.090206376576032,-0.4245947974577066
19.000000000000238,1.1033913047722053,-0.43009255345041736
19.200000000000482,1.1143988060170162,-0.4416304051664682
19.400000000000727,1.122865350779469,-0.4503545582440596
19.60000000000097,1.1341357589180148,-0.4574267414487081
19.800000000001216,1.144930071945894,-0.46097744236241295
20.00000000000146,1.1618596916847213,-0.4646726421883392
