Time (s),X (m),Y (m)
0.001,4.1020280575708355e-05,-0.0010155025257856578
0.20000000000000015,-3.5670942262761125e-05,-0.004689525736274423
0.4000000000000003,0.002782245564962296,-0.005797178286659359
0.6000000000000004,0.00723115035180297,-0.008946712469025364
0.8000000000000006,0.01171343073772835,-0.011816555549844418
1.0000000000000007,0.017297146914558817,-0.003125588876874113
1.2009999999999785,0.02570986790808828,-0.003235922369870364
1.4009999999999565,0.03531510255638145,0.010919849745678521
1.6009999999999345,0.04445636356626812,0.010393969085339082
1.8009999999999124,0.05402338537341317,0.011589911540241873
2.0009999999998906,0.06665579170462378,0.01568143111111805
2.2009999999998686,0.07625965694878913,0.019887405346502143
2.4009999999998466,0.08353107192901765,0.018911185802672117
2.6009999999998246,0.09480741391963132,0.0218110655606779
2.8009999999998025,0.10243136251229139,0.023012110890186427
3.0009999999997805,0.11098963192074783,0.02181609346364926
3.2009999999997585,0.11650645671873688,0.019599042770516707
3.4009999999997365,0.12174198164208565,0.02072804510955929
3.6009999999997144,0.13180260016519366,0.02090218127767127
3.8009999999996924,0.14433792759281763,0.028604604119068875
4.000999999999671,0.15460233828091302,0.032559336071370494
4.200999999999738,0.16191736666642745,0.026744811902569766
4.400999999999804,0.1693280919548138,0.02142188059693825
4.600999999999871,0.17274458923770517,0.014652711281170485
4.800999999999938,0.18018857497651747,0.021253196396513886
5.000000000000004,0.19001419464163216,0.022718209352706086
5.200000000000071,0.2001033917494498,0.022784043986690473
5.400000000000138,0.20796447225425055,0.022863532779302947
5.600000000000205,0.21828472510318941,0.027051065235257604
5.800000000000272,0.22825071187313883,0.024827650987051888
6.000000000000338,0.23690193600329648,0.02672458088452994
6.200000000000405,0.2475146880158801,0.03161437902721713
6.400000000000472,0.25605120784242685,0.027708154861052384
6.600000000000539,0.26634452502996514,0.03637814906605623
6.800000000000606,0.2743367352568534,0.035692001044802
7.000000000000672,0.2828711631041719,0.02963090654068864
7.200000000000739,0.2930650395876657,0.03352242412821423
7.400000000000806,0.3040478063954092,0.040157664334190275
7.600000000000873,0.311061432366094,0.03801778933738985
7.8000000000009395,0.31751706228963916,0.036737531788084365
8.000000000001005,0.3271912865471836,0.042816206040701466
8.200000000000895,0.3385532249481368,0.0444649057780797
8.400000000000784,0.34854274892526343,0.04667503973690374
8.600000000000673,0.3592487855910817,0.046826207885508675
8.800000000000562,0.3660175065814735,0.04021901721046442
9.000000000000451,0.3719731603456568,0.03729313980803985
9.20000000000034,0.38309841809237016,0.04213481202003632
9.40000000000023,0.3938017420153374,0.047795171053271225
9.600000000000119,0.4088565920521462,0.06013307950913195
9.800000000000008,0.4209739634092198,0.06142342106987534
10.000999999999896,0.42997200922808343,0.06362750724301112
10.200999999999786,0.4394322084576822,0.0653013182866624
10.400999999999675,0.45030008654739984,0.06877648451741923
10.600999999999564,0.4636848141733383,0.0784745626382422
10.800999999999453,0.4717592115718726,0.06868963747723343
11.000999999999342,0.48026595250959736,0.07420626294207175
11.200999999999231,0.49000164669302404,0.07457962636110352
11.40099999999912,0.4989251772446358,0.07509233995718081
11.60099999999901,0.5083179780230386,0.07701535932755763
11.800999999998899,0.5189825093243317,0.08033210123759425
12.000999999998788,0.5268854810045704,0.07960225041123327
12.200999999998677,0.5376280504411196,0.08458658121745932
12.400999999998566,0.5463987332990972,0.08281886414558229
12.600999999998455,0.5561537389956536,0.08486018653494959
12.800999999998345,0.5653824751970276,0.09006444401896833
13.000999999998234,0.576892695373311,0.09275547501677332
13.200999999998123,0.5860626546469947,0.09250947339551349
13.400999999998012,0.5948504732313592,0.09667911156941285
13.600999999997901,0.605229626973255,0.1044334070925856
13.80099999999779,0.6155335274466254,0.10570762631830813
14.00099999999768,0.6249336485359912,0.11420688047519977
14.200999999997569,0.6373127000460735,0.12008850228217315
14.400999999997458,0.6499457201725445,0.13107980055523538
14.600999999997347,0.6611030070755778,0.12873019638140476
14.800999999997236,0.6731582567057959,0.1306491101523305
15.000999999997125,0.6838369705811982,0.136587050545458
15.200999999997014,0.6927540081311626,0.1319716582903933
15.400999999996904,0.7055101698882146,0.1369533657404658
15.600999999996793,0.7155188719786836,0.1399963948966237
15.800999999996682,0.7275791224057719,0.1442094733999799
16.000999999996573,0.7379105945454834,0.14623832816504984
16.200999999996817,0.7493447228461436,0.14411980485852838
16.40099999999706,0.757304349620816,0.14651702715218023
16.600999999997306,0.7674040849818788,0.14953700608216386
16.80099999999755,0.7788299332685271,0.1574992439216731
17.000999999997795,0.7897756490826638,0.16055294533105158
17.20099999999804,0.7994325709700489,0.16097690225076616
17.400999999998284,0.8083245170936769,0.16735132406667594
17.60099999999853,0.8184506062948047,0.166653028308845
17.800999999998773,0.8292544766817717,0.17062580103237843
18.000999999999017,0.8376597170448986,0.16344688718774336
18.20099999999926,0.8468827948623419,0.17100899329375646
18.400999999999506,0.8592515392418482,0.178916714281616
18.60099999999975,0.8680853109199793,0.17581403474843188
18.799999999999994,0.8788795089793279,0.1837532055950196
19.000000000000238,0.8866804896473297,0.1751243417445618
19.200000000000482,0.8927790500441212,0.16781276275687024
19.400000000000727,0.8991667257011658,0.1599273265424037
19.60000000000097,0.9064428612078056,0.16216829700179192
19.800000000001216,0.911912376254731,0.16107119202286752
20.00000000000146,0.923200578288153,0.16610853826343813
