Time (s),X (m),Y (m)
0.001,0.00013020853671323254,0.0010272443824616275
0.20000000000000015,0.0017826658019581532,0.0031738529319059404
0.4000000000000003,0.005443814773161462,-0.000812676724949888
0.6000000000000004,0.010192896201883874,-0.001457521038219058
0.8000000000000006,0.01428790127763779,-0.005668554953487308
1.0000000000000007,0.01962273386633465,-0.0050895487622807135
1.2009999999999785,0.027670608153912823,-0.005504948427815718
1.4009999999999565,0.036254047102598726,-0.006072218554330509
1.6009999999999345,0.04737037430700783,0.0009614581598210968
1.8009999999999124,0.05838324332091611,0.0047754219983405025
2.0009999999998906,0.0677565340448687,0.007098870779836947
2.2009999999998686,0.07464644061031328,0.00440343375095937
2.4009999999998466,0.08341710820144234,0.007469858902172274
2.6009999999998246,0.091342249906646,0.011863993187792153
2.8009999999998025,0.10033026530390249,0.011654097680007944
3.0009999999997805,0.10835027515354007,0.01571411410446152
3.2009999999997585,0.1132056605062135,0.017188274345274254
3.4009999999997365,0.11732314828155656,0.025220501044957565
3.6009999999997144,0.1273727431216018,0.022028654999575282
3.8009999999996924,0.13963858755897765,0.0237121105193759
4.000999999999671,0.14976938596547953,0.02099262863403058
4.200999999999738,0.1610284303538593,0.020774450988079264
4.400999999999804,0.1694467220113724,0.012190060394113123
4.600999999999871,0.17821697439748854,0.008704984858619888
4.800999999999938,0.18749937769803202,0.007463260695468468
5.000000000000004,0.19742204917008468,0.0021391246264119822
5.200000000000071,0.20821942860560408,-0.0015497382736653401
5.400000000000138,0.22103106989635385,-0.0029864645152662805
5.600000000000205,0.2315660452455012,0.00039160383562036156
5.800000000000272,0.2422715720754564,-0.005116141355665774
6.000000000000338,0.251086767697491,-0.011156540030455213
6.200000000000405,0.26303852810681433,-0.013734362228145775
6.400000000000472,0.2736787973674375,-0.015513206777352599
6.600000000000539,0.2859077484638588,-0.01886148788020236
6.800000000000606,0.29866302002248746,-0.019899329473071197
7.000000000000672,0.30996117919687727,-0.029108633022144705
7.200000000000739,0.32088765077003556,-0.035956536651773265
7.400000000000806,0.33344281626215855,-0.03769242570770236
7.600000000000873,0.3462329171272255,-0.04360781992620548
7.8000000000009395,0.3575207605665403,-0.05223322914957803
8.000000000001005,0.36883246433625483,-0.05384355924393578
8.200000000000895,0.38222477867412036,-0.05043562666580799
8.400000000000784,0.39393604240994007,-0.05241749630640285
8.600000000000673,0.40508637404389086,-0.057320084566055834
8.800000000000562,0.41364186269139147,-0.05755049012955967
9.000000000000451,0.42661009202608935,-0.06382197204898225
9.20000000000034,0.4366758641313728,-0.06900610434586381
9.40000000000023,0.4470109863201138,-0.07336897787730311
9.600000000000119,0.45702966185644195,-0.0792105286495503
9.800000000000008,0.4691414252935406,-0.08015583636959958
10.000999999999896,0.48329450729274587,-0.0856614502850159
10.200999999999786,0.4950156576780771,-0.08921254491279547
10.400999999999675,0.5070143042992051,-0.09240854820855192
10.600999999999564,0.5208444043271242,-0.09278688913347254
10.800999999999453,0.5328087642130758,-0.09385908963202645
11.000999999999342,0.5430540222686391,-0.09556019153542428
11.200999999999231,0.5568048010659493,-0.09895082362318385
11.40099999999912,0.5671402255905369,-0.10917999428068272
11.60099999999901,0.5766664615607661,-0.12005560993649661
11.800999999998899,0.5863163705521425,-0.12105293300111772
12.000999999998788,0.595200791206888,-0.12386618670614233
12.200999999998677,0.6094677590071228,-0.13366031658101887
12.400999999998566,0.6208693375453059,-0.13780222933987382
12.600999999998455,0.6296864525166019,-0.14426999801360213
12.800999999998345,0.6396902415098211,-0.14773161656185602
13.000999999998234,0.6512358111304971,-0.15292239462054869
13.200999999998123,0.6637807041365215,-0.15188472466379668
13.400999999998012,0.6749233905482952,-0.15670790953392175
13.600999999997901,0.6818827488431656,-0.1613376021405281
13.80099999999779,0.6919371117323688,-0.16943037808350578
14.00099999999768,0.6997616286470697,-0.1813445719750278
14.200999999997569,0.71150115256853,-0.18613237894594534
14.400999999997458,0.724564927893918,-0.17906380815081
14.600999999997347,0.7360685088350939,-0.17900243281038472
14.800999999997236,0.7467972036978527,-0.18343756533887667
15.000999999997125,0.7617444217150523,-0.18560703106666415
15.200999999997014,0.7733381020882927,-0.19102017605430027
15.400999999996904,0.7854077418676678,-0.19093448479297098
15.600999999996793,0.7956910477051898,-0.18784537598038975
15.800999999996682,0.8049084959063888,-0.18445950205150669
16.000999999996573,0.8133386544989621,-0.19149641864754702
16.200999999996817,0.81916460884178,-0.20027133171471423
16.40099999999706,0.8257467078100462,-0.21031761922276784
16.600999999997306,0.8374729282401231,-0.21374244212411062
16.80099999999755,0.8473405200083733,-0.21799555193139458
17.000999999997795,0.8547215534328397,-0.22611762247500375
17.20099999999804,0.8606574936961389,-0.23655553323138362
17.400999999998284,0.8703172450832537,-0.24353045984738714
17.60099999999853,0.8797556460071857,-0.25428599530120916
17.800999999998773,0.8884798810087524,-0.26373997710510344
18.000999999999017,0.8946313807928787,-0.27737587825112253
18.20099999999926,0.8993230096942558,-0.2879839335229595
18.400999999999506,0.908876581819318,-0.2901297635277967
18.60099999999975,0.9185482854223386,-0.29633815052993445
18.799999999999994,0.9273086308938993,-0.3032353413225812
19.000000000000238,0.9355861689568791,-0.31300068633798406
19.200000000000482,0.941550652557732,-0.32223786700455037
19.400000000000727,0.9519818198014344,-0.3278568010141407
19.60000000000097,0.958365719887957,-0.33232591797390665
19.800000000001216,0.9662580633136286,-0.33937722565429973
20.00000000000146,0.9756674186534143,-0.35399455453225026
