Time (s),X (m),Y (m)
0.001,0.0012355833006349717,-0.00017906049427360483
0.20000000000000015,0.001037148871355331,-0.0007373058052938183
0.4000000000000003,0.006495132884446339,-0.003731918480777087
0.6000000000000004,0.016442509835439732,-0.0057044514950808384
0.8000000000000006,0.04111562450927721,-0.011843544758290598
1.0000000000000007,0.07436868173773209,-0.029826250686343987
1.2009999999999785,0.11265102716865706,-0.054900605901540715
1.4009999999999565,0.15164677204209365,-0.08867259557917198
1.6009999999999345,0.1802077575449082,-0.10806837472266509
1.8009999999999124,0.1943756042867479,-0.1291717482436704
2.0009999999998906,0.20423994263077985,-0.15546577253352933
2.2009999999998686,0.20132654652181323,-0.183076143855905
2.4009999999998466,0.17835473377254046,-0.20259418011952277
2.6009999999998246,0.16519246507339283,-0.2144546036631278
2.8009999999998025,0.14326566433422216,-0.21461950300457175
3.0009999999997805,0.11584525234765941,-0.1999383946575494
3.2009999999997585,0.0923987492133775,-0.16369648739269924
3.4009999999997365,0.07940114660087995,-0.11190597894815177
3.6009999999997144,0.08181922562599082,-0.05114621673248943
3.8009999999996924,0.09361818174635436,0.009671693280100846
4.000999999999671,0.11088562986860945,0.07023765500018357
4.200999999999738,0.13575904170855266,0.1279419641917417
4.400999999999804,0.15717097615981374,0.1827120749227544
4.600999999999871,0.1904578771584601,0.23775057167540603
4.800999999999938,0.234372687666034,0.28092105864054273
5.000000000000004,0.2874898169365757,0.30153327798567486
5.200000000000071,0.3458515294996121,0.29682058786196514
5.400000000000138,0.4017165082074369,0.27856092745985755
5.600000000000205,0.4573081925093699,0.2530227154649123
5.800000000000272,0.49132118889721194,0.22044093896355704
6.000000000000338,0.4944916232050918,0.1723698664545356
6.200000000000405,0.47792706219260406,0.11698083353908911
6.400000000000472,0.4512116115727106,0.054000514281325046
6.600000000000539,0.4276596506748832,-0.010902868712201724
6.800000000000606,0.4050642467565419,-0.07170313482676798
7.000000000000672,0.3794910241057178,-0.13516708176722514
7.200000000000739,0.3583231934068064,-0.19474478007971618
7.400000000000806,0.3348133607422544,-0.25632061321944377
7.600000000000873,0.3012339988338103,-0.3273196385012149
7.8000000000009395,0.27411301845432007,-0.3942755696251958
8.000000000001005,0.23461099201966168,-0.42951202100471336
8.200000000000895,0.18941772200680154,-0.44340752573070863
8.400000000000784,0.1237266909093687,-0.43861099814598475
8.600000000000673,0.054156229690092414,-0.42780695290716686
8.800000000000562,-0.021791139312673534,-0.40774847189171565
9.000000000000451,-0.09052599515262678,-0.3803942409089428
9.20000000000034,-0.16280881838881953,-0.34463210647266507
9.40000000000023,-0.23586181675138693,-0.3087265974589128
9.600000000000119,-0.30748040497363766,-0.27493127424862956
9.800000000000008,-0.37324937043863726,-0.230374390715823
10.000999999999896,-0.41278722923044164,-0.1810709086252539
10.200999999999786,-0.41746168679311474,-0.1221145022413954
10.400999999999675,-0.3944070460927473,-0.06362852105432039
10.600999999999564,-0.3624342184555671,-0.021680231133467037
10.800999999999453,-0.32070319783545,-0.008473379752144222
11.000999999999342,-0.27097166901967346,-0.014534024937256395
11.200999999999231,-0.20562656106954352,-0.03273836951743054
11.40099999999912,-0.13817344393352327,-0.05637693893565686
11.60099999999901,-0.07360882559847146,-0.0846263973573313
11.800999999998899,-0.004918740253047153,-0.11756364717310584
12.000999999998788,0.06488925181853272,-0.160167480089442
12.200999999998677,0.12266189500468468,-0.20870254589537937
12.400999999998566,0.14529081584780434,-0.26572010948440195
12.600999999998455,0.1317574264443318,-0.3306949745612667
12.800999999998345,0.09912428966091538,-0.38437374256042556
13.000999999998234,0.06809028061154682,-0.41585364475830155
13.200999999998123,0.029119885825349547,-0.4185931300931936
13.400999999998012,-0.016646306769180493,-0.3999428442592607
13.600999999997901,-0.0671206283447824,-0.37547421410955745
13.80099999999779,-0.12783775510782466,-0.34108033553825423
14.00099999999768,-0.1979224621915258,-0.2886746084135182
14.200999999997569,-0.2556275869360991,-0.21679734193716385
14.400999999997458,-0.28789114255844966,-0.12965048974536994
14.600999999997347,-0.3008908116470942,-0.051436666313428574
14.800999999997236,-0.284964772707745,0.02510953342568564
15.000999999997125,-0.24970029250703907,0.10833738052084152
15.200999999997014,-0.19494594053520023,0.1863444710397183
15.400999999996904,-0.13938054311964151,0.2349913568993901
15.600999999996793,-0.08268551006718208,0.2558029255271232
15.800999999996682,-0.033765006483571475,0.261820866422361
16.000999999996573,0.010799435056306319,0.254376265895829
16.200999999996817,0.04003259451830165,0.2342252363296775
16.40099999999706,0.04972620587166481,0.20403077189867805
16.600999999997306,0.03837772442861856,0.16169480605661382
16.80099999999755,0.012850386826499211,0.11778222041078466
17.000999999997795,-0.026809516564141087,0.09446144805752414
17.20099999999804,-0.07006695654628532,0.0861589185417078
17.400999999998284,-0.11372833300625325,0.08705384579546935
17.60099999999853,-0.16464682902755923,0.10632441723924002
17.800999999998773,-0.20956007298033483,0.1415886933605855
18.000999999999017,-0.23251640980422994,0.1798605474407279
18.20099999999926,-0.2166197926081908,0.23531095533274002
18.400999999999506,-0.1939277020758041,0.2903045914473292
18.60099999999975,-0.1604368187443792,0.3238136553120971
18.799999999999994,-0.12107998611402514,0.3338923793499908
19.000000000000238,-0.0751507768473013,0.32232773059772446
19.200000000000482,-0.024699587374758074,0.29928379476019196
19.400000000000727,0.02740919695723697,0.2702629520097654
19.60000000000097,0.08328017889641802,0.23664167997560775
19.800000000001216,0.13851764992500193,0.1973099229198158
20.00000000000146,0.19372448436598713,0.14926957296463295
