Time (s),X (m),Y (m)
0.001,0.0011890620069237587,0.00035268032603768894
0.20000000000000015,-0.0021849180749885545,-0.0014905736950176604
0.4000000000000003,0.0055496338950331466,0.00032675094442478355
0.6000000000000004,0.008582180211149862,0.0036292194391303475
0.8000000000000006,0.007725251132260622,-0.002181282813044268
1.0000000000000007,0.017544173658869514,-0.00821110896502929
1.2009999999999785,0.02117870273280415,-0.013940742026850994
1.4009999999999565,0.03140530705296766,-0.015705359766450062
1.6009999999999345,0.05414623459113079,-0.028380993224653733
1.8009999999999124,0.08476869803097525,-0.04341586583466981
2.0009999999998906,0.10693014151053458,-0.054877968835007486
2.2009999999998686,0.12864094181241878,-0.06966949353590285
2.4009999999998466,0.15590724292376432,-0.0887054168055176
2.6009999999998246,0.1786053328774393,-0.1050295220077034
2.8009999999998025,0.21286804815260138,-0.12973221234075025
3.0009999999997805,0.24762411265963144,-0.15721430995640906
3.2009999999997585,0.2836283442137317,-0.1860119931578213
3.4009999999997365,0.32108985632538156,-0.21614725498181994
3.6009999999997144,0.3479824594466083,-0.25122535452402184
3.8009999999996924,0.35632707343965214,-0.2914409958541815
4.000999999999671,0.34798021409555724,-0.33147638596031137
4.200999999999738,0.3311466165235692,-0.3664827327911282
4.400999999999804,0.30856094470952455,-0.41533660543146655
4.600999999999871,0.28536410652005173,-0.4520825186407703
4.800999999999938,0.2657130887701528,-0.4893845067321313
5.000000000000004,0.25725274113113333,-0.5315183073543707
5.200000000000071,0.2513150833899876,-0.5757570659376176
5.400000000000138,0.2340241710522559,-0.6200596885160078
5.600000000000205,0.21820967228451932,-0.6707247382271744
5.800000000000272,0.20404159796435006,-0.7183309730680238
6.000000000000338,0.1822090334770852,-0.7584083262387715
6.200000000000405,0.1504534255737187,-0.7963748799605416
6.400000000000472,0.12268312028512963,-0.8244304158068343
6.600000000000539,0.09882663886476611,-0.8665421538296825
6.800000000000606,0.07201873307583168,-0.906272557582091
7.000000000000672,0.04295365818875621,-0.9365000221482002
7.200000000000739,0.005472704910516823,-0.9738309475363522
7.400000000000806,-0.03914192116377892,-1.016872897932923
7.600000000000873,-0.08624350685175447,-1.062920340122597
7.8000000000009395,-0.1367075863830682,-1.1074872322825158
8.000000000001005,-0.18987937694955395,-1.1561583787939567
8.200000000000895,-0.2336237624533596,-1.1924046380251023
8.400000000000784,-0.2651920635354749,-1.2143632049925088
8.600000000000673,-0.29416865377407053,-1.2256577809377824
8.800000000000562,-0.3348149501208762,-1.2401601825151876
9.000000000000451,-0.3700578299159375,-1.2566171202459724
9.20000000000034,-0.4134906963842736,-1.2618353771810031
9.40000000000023,-0.4568539969419769,-1.2549155051370666
9.600000000000119,-0.4934133687781738,-1.2414813851401165
9.800000000000008,-0.5185068864572385,-1.2230018458846321
10.000999999999896,-0.5403135890265301,-1.2050474157349074
10.200999999999786,-0.5774093599497446,-1.1804639294480277
10.400999999999675,-0.625857460796816,-1.148911852916592
10.600999999999564,-0.6644295905447999,-1.112848055884995
10.800999999999453,-0.7115937763355044,-1.0680968959290886
11.000999999999342,-0.7585485047994517,-1.0256376358557273
11.200999999999231,-0.8140471173940035,-0.9769047618005483
11.40099999999912,-0.8710147291307465,-0.9241237641964493
11.60099999999901,-0.9275257669094292,-0.8692375002387144
11.800999999998899,-0.9816752128803257,-0.815569715451793
12.000999999998788,-1.0326946810527926,-0.767986298039555
12.200999999998677,-1.0884715527594684,-0.710613861459655
12.400999999998566,-1.1438121845006304,-0.64938919668712
12.600999999998455,-1.1963356974998387,-0.5887009386847375
12.800999999998345,-1.2365789594860195,-0.5307757224519759
13.000999999998234,-1.2541011831579882,-0.4771058638639208
13.200999999998123,-1.2468707117732414,-0.4286457737168632
13.400999999998012,-1.2151025020559665,-0.371956796296898
13.600999999997901,-1.1713617229092876,-0.3154660600122554
13.80099999999779,-1.1337613208497,-0.2759255490774671
14.00099999999768,-1.1006592227209908,-0.24796484555451723
14.200999999997569,-1.0565148198930252,-0.2205911505753826
14.400999999997458,-1.0112765280084663,-0.19446473533597536
14.600999999997347,-0.9555081947609418,-0.1776606596763419
14.800999999997236,-0.9049472679032106,-0.16811119088374332
15.000999999997125,-0.8528237134041573,-0.17552103020133175
15.200999999997014,-0.8003527820920445,-0.19775120324111603
15.400999999996904,-0.7420395768345319,-0.23101037537065974
15.600999999996793,-0.688428394152008,-0.27001580071743037
15.800999999996682,-0.6367214049799743,-0.3134789980345119
16.000999999996573,-0.5830798218747227,-0.3640321062023284
16.200999999996817,-0.5358764083619952,-0.4114733557787254
16.40099999999706,-0.48430129161287083,-0.45852537333252835
16.600999999997306,-0.4369448486617747,-0.5006985599904353
16.80099999999755,-0.3856096377326634,-0.5404211307148137
17.000999999997795,-0.3356327969101854,-0.583076972737499
17.20099999999804,-0.28005313906855955,-0.6319066852285165
17.400999999998284,-0.21973982711489876,-0.684573280538483
17.60099999999853,-0.1659534647658893,-0.7328297773872029
17.800999999998773,-0.10939949177984444,-0.7798434810397104
18.000999999999017,-0.059164613750027996,-0.8206665904699375
18.20099999999926,-0.00643731843634977,-0.8698309140556421
18.400999999999506,0.04573277059179511,-0.9264098447660074
18.60099999999975,0.09058817912189053,-0.9908960274476177
18.799999999999994,0.12237810181486393,-1.0456983083990157
19.000000000000238,0.14661043909886,-1.0979482823894469
19.200000000000482,0.14692765958858808,-1.168974825549311
19.400000000000727,0.12091390695849882,-1.244388208431574
19.60000000000097,0.0871038256508809,-1.3075872591382285
19.800000000001216,0.052855683105339855,-1.3594088356887226
20.00000000000146,0.01884520974066314,-1.4067275437062883
