Time (s),X (m),Y (m)
0.001,-0.0007759513068619564,-0.00026688599193002436
0.20000000000000015,0.0025548066375869843,0.00029549770263167857
0.4000000000000003,0.010245667957769935,0.004399815238422065
0.6000000000000004,0.0303915066244847,0.010069124668255883
0.8000000000000006,0.04757961534748534,0.0064206931087498935
1.0000000000000007,0.06516385038439192,-0.001195123550633538
1.2009999999999785,0.08699716204683283,-0.015538571700409806
1.4009999999999565,0.11368454774567006,-0.034213493868295274
1.6009999999999345,0.14046416312966792,-0.0658301141914383
1.8009999999999124,0.1696812689623537,-0.09875092589762616
2.0009999999998906,0.18879753258702023,-0.12097408772088503
2.2009999999998686,0.1945029499721257,-0.14172730161876076
2.4009999999998466,0.18691799728772246,-0.16227900781259294
2.6009999999998246,0.1731089271201388,-0.20131272985506163
2.8009999999998025,0.154304336332083,-0.21965693412349105
3.0009999999997805,0.12767274820906574,-0.25581707944950577
3.2009999999997585,0.09557591338224494,-0.29150817702506837
3.4009999999997365,0.06721003564033053,-0.32849610757067316
3.6009999999997144,0.03732459574667643,-0.36504888865337987
3.8009999999996924,0.012843647235633304,-0.4039666846791947
4.000999999999671,-0.012222760704883859,-0.45275093477545514
4.200999999999738,-0.043714595767570634,-0.5024310219763232
4.400999999999804,-0.08624409085432706,-0.5508670349915332
4.600999999999871,-0.13352171751869593,-0.5891319280848986
4.800999999999938,-0.18414029746117005,-0.6094138410654408
5.000000000000004,-0.25028421497915426,-0.6022078868341502
5.200000000000071,-0.3133773385968265,-0.5794332458985509
5.400000000000138,-0.37260381073669574,-0.5489657395195547
5.600000000000205,-0.4177691437045969,-0.5197768918377421
5.800000000000272,-0.4374359171400543,-0.487350507379202
6.000000000000338,-0.44040290555305106,-0.45864779433009883
6.200000000000405,-0.4188032412915355,-0.41418646974616236
6.400000000000472,-0.37088712914605076,-0.35702853502593185
6.600000000000539,-0.31812539019355834,-0.30135656292177315
6.800000000000606,-0.26606056706955467,-0.2548288673516122
7.000000000000672,-0.21159686445440898,-0.2129721529247396
7.200000000000739,-0.15305779145120774,-0.17808052291562404
7.400000000000806,-0.0964787789730429,-0.1651146509787763
7.600000000000873,-0.04704220984256613,-0.17181175817436461
7.8000000000009395,0.007575368874485503,-0.19841334139553202
8.000000000001005,0.06310052452127947,-0.2399167723471405
8.200000000000895,0.12142017544985038,-0.27984130542724456
8.400000000000784,0.1776140620111909,-0.32180887553263043
8.600000000000673,0.21882377496250494,-0.37165832086796735
8.800000000000562,0.23272316297166054,-0.42643001299817435
9.000000000000451,0.22222368861290104,-0.4843520536665913
9.20000000000034,0.197805592755556,-0.536977245313493
9.40000000000023,0.15960424937427328,-0.5887610492396848
9.600000000000119,0.11574699002536272,-0.6414216383680662
9.800000000000008,0.07085386346515758,-0.687024972347566
10.000999999999896,0.025280938437944336,-0.7132285189360531
10.200999999999786,-0.01379909046238548,-0.7286736043922334
10.400999999999675,-0.06567141235608608,-0.7255292439207787
10.600999999999564,-0.11302968644110813,-0.7079437970662702
10.800999999999453,-0.16295307091595562,-0.6791755663820501
11.000999999999342,-0.23119087657134235,-0.6403957188488275
11.200999999999231,-0.29679643336269074,-0.5955831944599851
11.40099999999912,-0.35510696517099655,-0.5509754028232487
11.60099999999901,-0.41557235681243304,-0.5067818877801858
11.800999999998899,-0.47914657211742095,-0.4648922099385054
12.000999999998788,-0.5511342422393714,-0.4128527885903958
12.200999999998677,-0.6261219634070591,-0.35413453602449685
12.400999999998566,-0.6979002629317181,-0.28786266767426516
12.600999999998455,-0.7703684171279312,-0.21778583471876548
12.800999999998345,-0.8419723051373028,-0.14804809814126607
13.000999999998234,-0.907623973233497,-0.07499073724256415
13.200999999998123,-0.9605101560068229,-0.0006802405688730082
13.400999999998012,-0.990370929170023,0.08375493724277293
13.600999999997901,-0.988832255292976,0.160351848996296
13.80099999999779,-0.9597754452975373,0.22886195083026206
14.00099999999768,-0.9123362096762505,0.29798447060865624
14.200999999997569,-0.8645711469625457,0.3587935618843516
14.400999999997458,-0.8081033127894341,0.3919903905673001
14.600999999997347,-0.7431200582159884,0.3865859239023023
14.800999999997236,-0.6733516235840822,0.3590312359687986
15.000999999997125,-0.6015240339346516,0.31102118662574085
15.200999999997014,-0.5344862825947503,0.26185027751734985
15.400999999996904,-0.47014014170110346,0.2081959910144332
15.600999999996793,-0.4324073232343283,0.15284135741077715
15.800999999996682,-0.4240146707723267,0.09697147042990242
16.000999999996573,-0.4406605060230913,0.04196842255435582
16.200999999996817,-0.466278695507135,-0.009493411606097868
16.40099999999706,-0.5014864244623365,-0.060085140035511846
16.600999999997306,-0.5493058269720344,-0.11126801494985916
16.80099999999755,-0.6035314006806771,-0.15546084756433626
17.000999999997795,-0.6448367257664127,-0.17899958745017666
17.20099999999804,-0.6862673006736936,-0.17879200919153876
17.400999999998284,-0.7397544664767008,-0.15361915144757754
17.60099999999853,-0.7930089282176004,-0.11837680134012524
17.800999999998773,-0.8486040315904081,-0.07850363256602612
18.000999999999017,-0.9074479584538399,-0.03811696906005298
18.20099999999926,-0.9637733770559066,-0.0007227098624439677
18.400999999999506,-1.0193810706746607,0.039841907188189675
18.60099999999975,-1.0780481936545312,0.08098696233036895
18.799999999999994,-1.1401344211177709,0.12801519889701288
19.000000000000238,-1.205469245633783,0.19265195048320272
19.200000000000482,-1.2702592012307767,0.27796831898665586
19.400000000000727,-1.3209525764358878,0.3506937389252763
19.60000000000097,-1.3580230155144593,0.40714868404285903
19.800000000001216,-1.3663557230202483,0.4631913813503747
20.00000000000146,-1.3560121673552095,0.5128337961735381
