Time (s),X (m),Y (m)
0.001,0.0002200807748493132,-0.0010311682891199468
0.20000000000000015,0.0023418677484794144,0.007243443979063386
0.4000000000000003,0.01353027843533873,0.012863374066497978
0.6000000000000004,0.036151127904265154,0.008170246504175863
0.8000000000000006,0.06799151416964488,0.009808264789132548
1.0000000000000007,0.10544549154473976,0.015300860510744488
1.2009999999999785,0.14790253808632622,0.012676019264547117
1.4009999999999565,0.19302104510611884,0.02264811702899396
1.6009999999999345,0.2445779176249143,0.04370255634279943
1.8009999999999124,0.2980661082358691,0.05173951476249884
2.0009999999998906,0.34009994619240613,0.04673131211693394
2.2009999999998686,0.3640521290406078,0.01541219723846035
2.4009999999998466,0.37370999634559565,-0.032310518639430165
2.6009999999998246,0.3645679074108033,-0.07546249053802595
2.8009999999998025,0.3388480893678711,-0.09685358083070825
3.0009999999997805,0.2997166891705436,-0.10018985099959372
3.2009999999997585,0.2452112920491773,-0.09192624413411211
3.4009999999997365,0.1951902992968852,-0.07748048631193452
3.6009999999997144,0.15197950566518198,-0.05552365447064624
3.8009999999996924,0.1218780395383706,-0.022135715553849706
4.000999999999671,0.10811072454467198,0.025515899741710844
4.200999999999738,0.11666109669667517,0.08021729969353111
4.400999999999804,0.13256382478958467,0.14662695554177685
4.600999999999871,0.15152340387272925,0.21148061211961725
4.800999999999938,0.18203796123334107,0.24546802968877354
5.000000000000004,0.2274217361525735,0.2669357667190415
5.200000000000071,0.28353934780222945,0.27064167448367954
5.400000000000138,0.3454926626224258,0.26330993368892525
5.600000000000205,0.4034049420483772,0.24226007085690626
5.800000000000272,0.44559012523696656,0.20706932623834448
6.000000000000338,0.45733378477671394,0.1594942176893958
6.200000000000405,0.4505121602884166,0.10135835590275197
6.400000000000472,0.44104717193860005,0.04190772014773646
6.600000000000539,0.4234634379966564,-0.00389866861863747
6.800000000000606,0.39143052447275994,-0.044401498417034974
7.000000000000672,0.34668055921436985,-0.05231568806671896
7.200000000000739,0.2938435489335218,-0.04512753447433844
7.400000000000806,0.23772535634972222,-0.030353897378304934
7.600000000000873,0.19689198647452477,-0.002664373927756051
7.8000000000009395,0.17434942472040926,0.04791114153012123
8.000000000001005,0.1825722764013016,0.10623594895418732
8.200000000000895,0.20571473768561935,0.1646707568385577
8.400000000000784,0.22174294853328322,0.2370153345465382
8.600000000000673,0.23660170850096893,0.3098883888572864
8.800000000000562,0.25991837124723893,0.38060098837151635
9.000000000000451,0.30157722296606226,0.43706535737410523
9.20000000000034,0.353993325845033,0.47678558054895237
9.40000000000023,0.41200814251522694,0.4925356942658895
9.600000000000119,0.477367762149547,0.486890570785048
9.800000000000008,0.546363592482264,0.4768252539732319
10.000999999999896,0.6184150910548393,0.460523710693159
10.200999999999786,0.6735151741658278,0.42647622833562404
10.400999999999675,0.7161757476087818,0.3876681593138349
10.600999999999564,0.7328490939628537,0.33669516015755746
10.800999999999453,0.7354108737678873,0.27552623019423617
11.000999999999342,0.7329455036268977,0.20702267338925315
11.200999999999231,0.7175356787420775,0.1420568465322953
11.40099999999912,0.6835837527970152,0.10304789733613623
11.60099999999901,0.62619387182565,0.06923734621083719
11.800999999998899,0.5533033862178777,0.0481817793894845
12.000999999998788,0.4808073754481828,0.048776057270408915
12.200999999998677,0.40516471520367103,0.05172722455386178
12.400999999998566,0.34573520929585655,0.06678835953027339
12.600999999998455,0.3326680108363175,0.10116742063549569
12.800999999998345,0.3369952231560964,0.15391882466695525
13.000999999998234,0.35673592712299174,0.18907436633644248
13.200999999998123,0.402123726672424,0.20473496848615996
13.400999999998012,0.45530433986596675,0.19492484124451903
13.600999999997901,0.4971590911967009,0.17313479008307692
13.80099999999779,0.5125998862606926,0.1381343786998431
14.00099999999768,0.5116642392267046,0.08578474426447365
14.200999999997569,0.49084539666071914,0.03287583856392365
14.400999999997458,0.45920507636365065,-0.0019880622942886057
14.600999999997347,0.4181656436994376,-0.0007979277653345541
14.800999999997236,0.3721594188407458,0.022012089534386717
15.000999999997125,0.3207855074283952,0.05864839389864973
15.200999999997014,0.26334189572877725,0.10276412482722766
15.400999999996904,0.2048327630206952,0.1447639343596279
15.600999999996793,0.1803553422335081,0.19025120037869728
15.800999999996682,0.1780917685355012,0.24567833744822495
16.000999999996573,0.1920118729039714,0.29651404649440033
16.200999999996817,0.22075835920702258,0.3414040095646228
16.40099999999706,0.26300168614017544,0.36787230744962
16.600999999997306,0.31369043399909513,0.37859267686317805
16.80099999999755,0.37182174345925817,0.37574707635716065
17.000999999997795,0.422358472750013,0.350356698302366
17.20099999999804,0.46074638368359155,0.3148888895733185
17.400999999998284,0.48915650940734584,0.2631489653435374
17.60099999999853,0.5093724497995248,0.19622012513637663
17.800999999998773,0.5102465186689882,0.13088200632655933
18.000999999999017,0.48913374831421436,0.10418674193701134
18.20099999999926,0.4389761680293396,0.08528365796142276
18.400999999999506,0.37321877022890887,0.07806589931507461
18.60099999999975,0.32155501377358475,0.09823310854684819
18.799999999999994,0.2799834639886513,0.1292007229431171
19.000000000000238,0.27061300285595946,0.16586356200062766
19.200000000000482,0.27596321882685554,0.21591544304124435
19.400000000000727,0.2889061446618945,0.2786535929813725
19.60000000000097,0.31359753694638604,0.3312000394005417
19.800000000001216,0.35365991761298954,0.3743808663005422
20.00000000000146,0.402866809562694,0.40550974050977956
