Time (s),X (m),Y (m)
0.001,-0.0005090653149319316,0.0007291460897812449
0.20000000000000015,-0.000570866446516027,0.0021140117060203384
0.4000000000000003,0.0014628345668628053,0.0037764449054339755
0.6000000000000004,0.013787272727824406,-0.003451583134760664
0.8000000000000006,0.02088201883598445,-0.0071023370180829494
1.0000000000000007,0.029643076887993367,-0.004669876688201875
1.2009999999999785,0.03984050984325742,-0.00918841253377645
1.4009999999999565,0.04830373658744898,-0.007597713816557445
1.6009999999999345,0.054349832239325824,-0.002813672347734384
1.8009999999999124,0.057097694914243956,0.006528970323781863
2.0009999999998906,0.06055860215879546,0.01056383895907909
2.2009999999998686,0.06657434426625461,0.00645434768900277
2.4009999999998466,0.07024479536717027,0.009535823620385433
2.6009999999998246,0.07601853437663444,0.008923008392647777
2.8009999999998025,0.08597351028924755,0.00962082726155353
3.0009999999997805,0.09471043522608599,0.008032093519867644
3.2009999999997585,0.10411514473987694,0.007160067098897628
3.4009999999997365,0.10680210054333045,0.011921005129692429
3.6009999999997144,0.11184995763532629,0.015651160323659614
3.8009999999996924,0.12382050405048167,0.015851903928309364
4.000999999999671,0.12969638346467702,0.017848323949006522
4.200999999999738,0.14143450991022727,0.012303162149348176
4.400999999999804,0.15061673389242666,0.008679535508498027
4.600999999999871,0.15965050208066345,0.007428128854574992
4.800999999999938,0.17100274697571707,0.009872059588513287
5.000000000000004,0.1760363789451015,0.013901213395773378
5.200000000000071,0.1876018106144167,0.013406399462540533
5.400000000000138,0.19554118354820296,0.01316557527228803
5.600000000000205,0.20351202520137335,0.012621406361525006
5.800000000000272,0.2108724056417956,0.015315227383748171
6.000000000000338,0.22017525562203702,0.01581895868554751
6.200000000000405,0.23307341574731424,0.01744273760073425
6.400000000000472,0.24555038141270843,0.018555475361220222
6.600000000000539,0.24802700980236672,0.02309343895914099
6.800000000000606,0.26001851864080233,0.022313227100761647
7.000000000000672,0.271874332147327,0.02408420839282055
7.200000000000739,0.28435078819697895,0.024154713393565196
7.400000000000806,0.2875612818726598,0.029148834595076827
7.600000000000873,0.2971594213831063,0.03099908739148381
7.8000000000009395,0.30327700030848165,0.031638663077591576
8.000000000001005,0.3136126835217311,0.03247544845003596
8.200000000000895,0.3219105469290459,0.03366918739370021
8.400000000000784,0.3297714480383088,0.039964556161208656
8.600000000000673,0.3395703314234719,0.04100746254557239
8.800000000000562,0.35416635030749577,0.03879742858006036
9.000000000000451,0.3649101259060808,0.040365876217452384
9.20000000000034,0.3781094543906584,0.03904882707783156
9.40000000000023,0.38469249808324446,0.04221396709484531
9.600000000000119,0.3973802534779255,0.04257213461455892
9.800000000000008,0.41436439964208155,0.040037773177962574
10.000999999999896,0.4207876889295545,0.044999110800742856
10.200999999999786,0.43212662767110754,0.047817526582221784
10.400999999999675,0.4450483589160655,0.045572712418287774
10.600999999999564,0.4510471529170861,0.051473202139436645
10.800999999999453,0.46113043207733356,0.05560610057031187
11.000999999999342,0.4657182066525438,0.06044459086427288
11.200999999999231,0.4751667416084076,0.062258430339089545
11.40099999999912,0.49053953209405965,0.06220232517620905
11.60099999999901,0.5011279077056207,0.06192897570155176
11.800999999998899,0.5109912773568944,0.06684176013721549
12.000999999998788,0.5257348111080309,0.06785229973087703
12.200999999998677,0.5346967827510152,0.07134258130299355
12.400999999998566,0.5413548536498274,0.07564011027729435
12.600999999998455,0.5502847896384134,0.07754572789903763
12.800999999998345,0.5596718004582336,0.08078216705404208
13.000999999998234,0.5714393248788954,0.08024344217234071
13.200999999998123,0.5747573809489509,0.08305326948310619
13.400999999998012,0.5813245631589486,0.0838731894854094
13.600999999997901,0.5901479690217042,0.08449222082491467
13.80099999999779,0.6042220730369589,0.08215700513703723
14.00099999999768,0.6124813441897692,0.08652801929556433
14.200999999997569,0.6156695657444293,0.09202172878967146
14.400999999997458,0.627727865297288,0.09316021916302172
14.600999999997347,0.639817376766703,0.09190846476774561
14.800999999997236,0.6456205090219634,0.09539950781404374
15.000999999997125,0.6602382632117827,0.09324738576919932
15.200999999997014,0.6745436141000243,0.09332643647491445
15.400999999996904,0.6862659473184772,0.0948643619648414
15.600999999996793,0.694404227439415,0.10074701256371585
15.800999999996682,0.7019578783251381,0.10387951147040463
16.000999999996573,0.7049470120478224,0.11047798210852995
16.200999999996817,0.7153514227397505,0.11253508935348817
16.40099999999706,0.72509456604054,0.11486034069829458
16.600999999997306,0.7340516543766609,0.11401921702009292
16.80099999999755,0.7452972251071569,0.11279091350633669
17.000999999997795,0.7587037886748376,0.11449028811290685
17.20099999999804,0.762232381122507,0.12076779182350099
17.400999999998284,0.7668263050001736,0.12542629670772767
17.60099999999853,0.7720450422286774,0.13148795023610416
17.800999999998773,0.7835668644143823,0.13349532983115614
18.000999999999017,0.7908368623885181,0.1365000709009093
18.20099999999926,0.7957953300040415,0.14273641717579277
18.400999999999506,0.8004769644238844,0.14518716101417142
18.60099999999975,0.80952860367585,0.14441148240309942
18.799999999999994,0.818610251483213,0.1439830266203982
19.000000000000238,0.8231433651275514,0.144231095801856
19.200000000000482,0.83111029476437,0.14472258830765822
19.400000000000727,0.8394621522218553,0.14530134713553475
19.60000000000097,0.8411139775557381,0.14812582758133225
19.800000000001216,0.8458159582865041,0.15360822576884683
20.00000000000146,0.85570575755448,0.1542878378609892
