Time (s),X (m),Y (m)
0.001,0.0011890620069237587,-0.00035268032603768894
0.20000000000000015,0.00031262587253003387,3.480799564117706e-05
0.4000000000000003,0.007936812524980259,-0.003942814594463054
0.6000000000000004,0.02596416278984366,-0.00870744465885242
0.8000000000000006,0.04577256047850528,-0.007245650051525698
1.0000000000000007,0.06131254821088026,-0.007220895540099209
1.2009999999999785,0.09110988347091122,-0.020964739059795953
1.4009999999999565,0.12099324256111015,-0.03914231910147802
1.6009999999999345,0.15135289082399309,-0.05703497190309873
1.8009999999999124,0.18138610354220636,-0.08238757641280539
2.0009999999998906,0.20492121005563294,-0.09918277824576517
2.2009999999998686,0.2172070417871354,-0.11419985068659151
2.4009999999998466,0.22392763021422127,-0.13759842294041283
2.6009999999998246,0.23075356113404968,-0.16562983155760488
2.8009999999998025,0.219281164308055,-0.2053677973555273
3.0009999999997805,0.19603167073991917,-0.24208710324554644
3.2009999999997585,0.17063076160844462,-0.2780307944866583
3.4009999999997365,0.14323623625152437,-0.3045878179227685
3.6009999999997144,0.10868693026564356,-0.3180106386892746
3.8009999999996924,0.06850457226461232,-0.31431697957891347
4.000999999999671,0.0272796677388794,-0.30699106502143947
4.200999999999738,-0.018377444797001492,-0.2956786185502404
4.400999999999804,-0.06312269242221472,-0.27991202052794767
4.600999999999871,-0.10980527116435637,-0.2540852323895456
4.800999999999938,-0.15313868994178728,-0.2293478471815095
5.000000000000004,-0.19066035595329467,-0.18855959784624954
5.200000000000071,-0.20999814169236078,-0.14868502904900163
5.400000000000138,-0.21556830084489054,-0.11190882064306663
5.600000000000205,-0.21003972348288533,-0.06480685324964719
5.800000000000272,-0.19750379059963183,-0.014224757400557689
6.000000000000338,-0.1749266338076411,0.04789813008268923
6.200000000000405,-0.15927068049437293,0.109329992919697
6.400000000000472,-0.12788711138592296,0.16660198077379088
6.600000000000539,-0.10756276905620664,0.2175200082552039
6.800000000000606,-0.08238825631981019,0.2565670553332882
7.000000000000672,-0.041228831483781404,0.27794638359903906
7.200000000000739,0.0001756447390904441,0.282656600644377
7.400000000000806,0.04508621404381854,0.27214088606183945
7.600000000000873,0.08453019195530857,0.23640858254542302
7.8000000000009395,0.11164893509828562,0.1890354345624672
8.000000000001005,0.12045226758710124,0.14383927956051967
8.200000000000895,0.1139979738519137,0.09416701846725462
8.400000000000784,0.09997942226681389,0.047977364927949503
8.600000000000673,0.06792374324046392,-0.0041442981416917315
8.800000000000562,0.03311044288187847,-0.05798116191878023
9.000000000000451,-0.007301274054771851,-0.0979622938329822
9.20000000000034,-0.04885079907701025,-0.11631756155020208
9.40000000000023,-0.0932510009985026,-0.10976837913311607
9.600000000000119,-0.14074267392139692,-0.09528575755863994
9.800000000000008,-0.19564626543361,-0.07477469083633963
10.000999999999896,-0.2527499969387993,-0.055337949119741936
10.200999999999786,-0.3159408836050517,-0.03120904110276748
10.400999999999675,-0.376992217780742,-0.0022402445569246676
10.600999999999564,-0.4302048203095367,0.03147946803683303
10.800999999999453,-0.4596507874288297,0.07317664849628226
11.000999999999342,-0.4634271894124409,0.12721869097715824
11.200999999999231,-0.4573513401075131,0.17800396878472682
11.40099999999912,-0.4318619685756766,0.23153315884393158
11.60099999999901,-0.4006675507431612,0.2806101279638231
11.800999999998899,-0.3585355311573716,0.31700054913323233
12.000999999998788,-0.30935650935163345,0.3448943818530797
12.200999999998677,-0.27222643465792074,0.35950611057815646
12.400999999998566,-0.25542782852186524,0.36290019007589236
12.600999999998455,-0.2338008728696602,0.3552728272014988
12.800999999998345,-0.21185962220593335,0.348225044886875
13.000999999998234,-0.16748389073980063,0.33489667252547806
13.200999999998123,-0.12331702859261448,0.31830832427252287
13.400999999998012,-0.07716069995325023,0.3064887114748752
13.600999999997901,-0.012204633532427886,0.2815426052427876
13.80099999999779,0.04880114179108496,0.25469942125954514
14.00099999999768,0.11206308383377961,0.2262959532917274
14.200999999997569,0.17559015830257235,0.19769487260376023
14.400999999997458,0.23548157020775198,0.15442625240437685
14.600999999997347,0.27098582350002787,0.09390899582838903
14.800999999997236,0.2706351723658812,0.022788783003385837
15.000999999997125,0.26052958785997216,-0.04751721433656269
15.200999999997014,0.22665420539553582,-0.09552478272729212
15.400999999996904,0.17834456789175365,-0.1142225309376867
15.600999999996793,0.12626705971911378,-0.11285597378577418
15.800999999996682,0.07479464631058304,-0.10064966240129025
16.000999999996573,0.03500703885069799,-0.07677070976222404
16.200999999996817,0.014413847692708967,-0.04429090353043047
16.40099999999706,0.005173447226914968,-0.011671482350562206
16.600999999997306,6.283506370183941e-05,0.0345529849897225
16.80099999999755,0.0022223832478958936,0.08274528593100701
17.000999999997795,0.00837407302522828,0.13304753225236507
17.20099999999804,0.019586813540139327,0.17822009759047755
17.400999999998284,0.03615166231710692,0.22595368361359014
17.60099999999853,0.0541634299809626,0.27110486137376233
17.800999999998773,0.0726317719317491,0.31263823327690793
18.000999999999017,0.10347969198564451,0.3649541238994643
18.20099999999926,0.1332302059842852,0.4204578887706064
18.400999999999506,0.1680592589314827,0.4794367350322191
18.60099999999975,0.2127956857017887,0.5260816316106289
18.799999999999994,0.25786941904062843,0.5471319657235734
19.000000000000238,0.30186135143261794,0.5484128349957798
19.200000000000482,0.3529244626144646,0.537311607434645
19.400000000000727,0.4041074844537858,0.5233867958929543
19.60000000000097,0.46096900343164016,0.5042979594583582
19.800000000001216,0.5144063102077632,0.46910958303213685
20.00000000000146,0.5582315542785963,0.4226436895475119
