Time (s),X (m),Y (m)
0.001,-0.0005090653149319316,0.0007291460897812449
0.20000000000000015,0.00417367833475171,-0.003733717617339654
0.4000000000000003,0.007559109559134558,0.0021643536608610516
0.6000000000000004,0.016554903716507304,0.01808754253886637
0.8000000000000006,0.029436022921163516,0.025084088274558023
1.0000000000000007,0.03755868237130747,0.028138355326325467
1.2009999999999785,0.055171094014086076,0.03988912685884175
1.4009999999999565,0.07322277247379777,0.04611716523047609
1.6009999999999345,0.09605765683810476,0.044590856358119185
1.8009999999999124,0.11893765669887293,0.05002727525293839
2.0009999999998906,0.14249375621828578,0.05288218829600559
2.2009999999998686,0.1669170918265655,0.03502394866578673
2.4009999999998466,0.18898344181889812,0.02319365063645484
2.6009999999998246,0.20803068509455896,0.0009789951301974907
2.8009999999998025,0.22313200066422212,-0.02800100926358498
3.0009999999997805,0.23918468887523986,-0.05417899270565473
3.2009999999997585,0.23921743026554648,-0.07643979819930197
3.4009999999997365,0.2221758501364517,-0.09752522773129882
3.6009999999997144,0.1928268023067723,-0.11609230891537126
3.8009999999996924,0.1770841482114447,-0.13208009788233827
4.000999999999671,0.15357157740141666,-0.142474707224587
4.200999999999738,0.11836288258795458,-0.14411885884079836
4.400999999999804,0.08746670566456288,-0.1500668052499169
4.600999999999871,0.06038193100824248,-0.159828526875305
4.800999999999938,0.03021296510472081,-0.1626308016009534
5.000000000000004,-0.004083492129436389,-0.16697699769167368
5.200000000000071,-0.03908009360809826,-0.17095926505883577
5.400000000000138,-0.08307549243054506,-0.17190606101458178
5.600000000000205,-0.12189317968569559,-0.1671740483731018
5.800000000000272,-0.15481127152652419,-0.15223907860236321
6.000000000000338,-0.18637067958398604,-0.13105123881868064
6.200000000000405,-0.21139319452990402,-0.09927573027317547
6.400000000000472,-0.2395604260132745,-0.077446750570909
6.600000000000539,-0.2533287595533243,-0.05105525762324252
6.800000000000606,-0.2621389122735348,-0.022388853534776352
7.000000000000672,-0.2678022806482033,0.007789319568949937
7.200000000000739,-0.2759458247518866,0.03714932116951832
7.400000000000806,-0.284436174908111,0.06573636639898267
7.600000000000873,-0.2775190586899857,0.09693977016939781
7.8000000000009395,-0.26043706619792556,0.13225209643985178
8.000000000001005,-0.2272072832381535,0.16237743791216377
8.200000000000895,-0.19840897528426416,0.1858987728904771
8.400000000000784,-0.17069927289515105,0.2053698481985015
8.600000000000673,-0.13210074723384432,0.2167614577735894
8.800000000000562,-0.09833211781583315,0.22133575017095708
9.000000000000451,-0.058812061957011746,0.22878702915225377
9.20000000000034,-0.020871743425464648,0.22636240058241686
9.40000000000023,0.01425470101007241,0.21998836364355612
9.600000000000119,0.05728164985133428,0.21592705808211585
9.800000000000008,0.10516294937273066,0.21606182510833025
10.000999999999896,0.14655961081240235,0.2186574380386679
10.200999999999786,0.18111491824780065,0.2181262723253106
10.400999999999675,0.2145656492010676,0.21922565516676745
10.600999999999564,0.24785632578615266,0.22325045142102595
10.800999999999453,0.2891388172163898,0.2236866711918197
11.000999999999342,0.3261518852117133,0.22415489030391839
11.200999999999231,0.3628594164744655,0.21484289472918408
11.40099999999912,0.40920432950916286,0.1955509257662011
11.60099999999901,0.45267499506951425,0.19018681900223353
11.800999999998899,0.4919443430468879,0.201465220970725
12.000999999998788,0.5364894703643747,0.20845694520498545
12.200999999998677,0.5715065056447645,0.1854650610703202
12.400999999998566,0.5964429535480418,0.15575702870221536
12.600999999998455,0.6092349365428615,0.12124946911543444
12.800999999998345,0.6184210421943793,0.09047911432173805
13.000999999998234,0.6253102997681771,0.05712888388042804
13.200999999998123,0.6324555080957732,0.02036440834552707
13.400999999998012,0.626610293642126,-0.019571058731237347
13.600999999997901,0.6286322646255165,-0.051999056980572736
13.80099999999779,0.6238222930549807,-0.08037462407893503
14.00099999999768,0.6172522248950064,-0.11102953763959648
14.200999999997569,0.6137789429330811,-0.14207904083035383
14.400999999997458,0.6007458766446264,-0.17130094888211675
14.600999999997347,0.5894143506894284,-0.20596088208701638
14.800999999997236,0.5573333577579198,-0.22606314803408045
15.000999999997125,0.49929191393584094,-0.23343319630380405
15.200999999997014,0.43324050316426216,-0.2370487590552985
15.400999999996904,0.3844741977423657,-0.23985816083796546
15.600999999996793,0.3438562122504452,-0.2513441052171087
15.800999999996682,0.3097873996531769,-0.25668755669851756
16.000999999996573,0.26766113936790753,-0.2557864644282629
16.200999999996817,0.21223584583682678,-0.2506386293770835
16.40099999999706,0.1533861146845205,-0.24087726333255838
16.600999999997306,0.10842088752241634,-0.23750364462867407
16.80099999999755,0.06683276020043327,-0.21937897403561146
17.000999999997795,0.023490652217906846,-0.19230233145271797
17.20099999999804,-0.014823405694523254,-0.1604749823473924
17.400999999998284,-0.043557819585990525,-0.12438101239274747
17.60099999999853,-0.06048974501172116,-0.07949655337978713
17.800999999998773,-0.07458475499954716,-0.04731710887685933
18.000999999999017,-0.08577520302201704,-0.011687156565623545
18.20099999999926,-0.09463653534540593,0.02960579686696246
18.400999999999506,-0.09795812376063143,0.07720187707915839
18.60099999999975,-0.09228967294219975,0.13160929531949395
18.799999999999994,-0.08842078766721585,0.18016396018181485
19.000000000000238,-0.06811672375036193,0.22899691100398642
19.200000000000482,-0.05447268220835334,0.2754461433770357
19.400000000000727,-0.038552065080740314,0.31596576814768884
19.60000000000097,-0.016880161017821554,0.34600997691278884
19.800000000001216,0.01715296845496159,0.367383712325889
20.00000000000146,0.06351594182349701,0.37497001343871844
