Time (s),X (m),Y (m)
0.001,-0.0005698399629515257,0.0006628221997479692
0.20000000000000015,0.004123153588554789,-0.004011988765567661
0.4000000000000003,0.0020630442911580868,0.00718973040085592
0.6000000000000004,0.007058209134770759,0.021649692342626474
0.8000000000000006,0.016487198980439485,0.03187237534594953
1.0000000000000007,0.041974873210786474,0.026286384164677885
1.2009999999999785,0.06998052332446483,0.02217663437476826
1.4009999999999565,0.09232757319865063,0.022436015289168682
1.6009999999999345,0.11365558867399204,0.03274657547177873
1.8009999999999124,0.13458250864740925,0.023024477849962782
2.0009999999998906,0.15688640653364294,8.704547260633568e-05
2.2009999999998686,0.1771078710832703,-0.019163517124140772
2.4009999999998466,0.19292426597415457,-0.043215772342601606
2.6009999999998246,0.20821305890982922,-0.06238099907438683
2.8009999999998025,0.2165736265353546,-0.08593456155927204
3.0009999999997805,0.22236311449545793,-0.1091042647532847
3.2009999999997585,0.22459533758836353,-0.1395873917758876
3.4009999999997365,0.228712097673829,-0.17333245681347145
3.6009999999997144,0.23915860367218558,-0.1931762657760398
3.8009999999996924,0.24738130437551895,-0.21843397878302298
4.000999999999671,0.25125411417221355,-0.23894163037379348
4.200999999999738,0.2590143607301031,-0.26678160776668297
4.400999999999804,0.26311874151781295,-0.29885339529221105
4.600999999999871,0.26243061495618003,-0.3313977453929694
4.800999999999938,0.2530731327418437,-0.37199993493443506
5.000000000000004,0.22639675420457725,-0.4166814704452715
5.200000000000071,0.2107078653339595,-0.4537170073465965
5.400000000000138,0.1971982809298136,-0.49025132129685917
5.600000000000205,0.17157387462042084,-0.5236598147333787
5.800000000000272,0.13103150431617286,-0.5476405790167569
6.000000000000338,0.08989217177883299,-0.5612064752646374
6.200000000000405,0.045242041761399766,-0.5627695862789878
6.400000000000472,-0.00320797439950143,-0.5433621744198526
6.600000000000539,-0.04633253077425163,-0.5065352668870392
6.800000000000606,-0.06849149716105168,-0.4561589615868573
7.000000000000672,-0.07586189514625366,-0.40032158386297517
7.200000000000739,-0.07167035988393855,-0.33816115549972486
7.400000000000806,-0.06372759441395587,-0.2882267013765191
7.600000000000873,-0.04979941182396404,-0.23971278390797954
7.8000000000009395,-0.052010399033785355,-0.19581064379403085
8.000000000001005,-0.03023997179712084,-0.16441584473864548
8.200000000000895,-0.005237145488039288,-0.14750181250744213
8.400000000000784,0.026102822629527424,-0.14031091412879504
8.600000000000673,0.06784414117522546,-0.13774317381789405
8.800000000000562,0.10867876985269317,-0.1321275494980026
9.000000000000451,0.14355539093736175,-0.1302209484306397
9.20000000000034,0.1783495113233177,-0.13541199740358448
9.40000000000023,0.21900453063186562,-0.15692628992223126
9.600000000000119,0.26765725678949054,-0.18170679809122411
9.800000000000008,0.31504926802135075,-0.20040494793199937
10.000999999999896,0.3599396926826987,-0.21939192921342462
10.200999999999786,0.3918946094975701,-0.244632414136791
10.400999999999675,0.41217026020538444,-0.27500117666544793
10.600999999999564,0.4282082133259264,-0.3047238571816395
10.800999999999453,0.44069866508234845,-0.345900604343253
11.000999999999342,0.44820426739638186,-0.39015501888586296
11.200999999999231,0.44577560880504075,-0.4376660790443942
11.40099999999912,0.4407854169199379,-0.4880147373176827
11.60099999999901,0.4345370729300734,-0.5378800520331812
11.800999999998899,0.4323480264002062,-0.5838951541549344
12.000999999998788,0.41901154157700854,-0.6255805041490499
12.200999999998677,0.39205032433222037,-0.6568044886814105
12.400999999998566,0.35346610580257676,-0.6723396151627592
12.600999999998455,0.3096222392480207,-0.6803251509338554
12.800999999998345,0.27114989560215935,-0.6811242024006547
13.000999999998234,0.22174626468820488,-0.6690730819835192
13.200999999998123,0.17307794168408064,-0.6577634588212955
13.400999999998012,0.13209858361397248,-0.6496727130468669
13.600999999997901,0.08440732819167773,-0.6409036630411509
13.80099999999779,0.03305696949473846,-0.6164899304133384
14.00099999999768,-0.02028521468984305,-0.5781438560246779
14.200999999997569,-0.0690259844178574,-0.5417103652600652
14.400999999997458,-0.11610028189129704,-0.5155441944094838
14.600999999997347,-0.15477777955537714,-0.4805668509676553
14.800999999997236,-0.18530251936467754,-0.45018969711907497
15.000999999997125,-0.20192216392104248,-0.4036400831561331
15.200999999997014,-0.20540871365348357,-0.35707120534123044
15.400999999996904,-0.19355023544351588,-0.291393446752244
15.600999999996793,-0.18220351179942085,-0.22680749133858835
15.800999999996682,-0.16964518797594372,-0.16738777710077188
16.000999999996573,-0.15193660904659417,-0.11604245434817903
16.200999999996817,-0.13664383527298737,-0.0741042109755218
16.40099999999706,-0.10546695341389677,-0.030992322394897267
16.600999999997306,-0.07073444687071914,0.009064817746497877
16.80099999999755,-0.024388477418131323,0.04055679449213977
17.000999999997795,0.03571162375013473,0.05281904573742563
17.20099999999804,0.08911717248179876,0.05459387478771628
17.400999999998284,0.1392348502551364,0.049212056727270345
17.60099999999853,0.1911787809324615,0.03395953307193397
17.800999999998773,0.24756139119013704,0.01261972649534981
18.000999999999017,0.29272586717509347,-0.015051952846034816
18.20099999999926,0.33202283115491227,-0.0577284857103833
18.400999999999506,0.35889414145658116,-0.10537584715793995
18.60099999999975,0.37238577249599236,-0.14991582301797096
18.799999999999994,0.3749102570228856,-0.1992884891512908
19.000000000000238,0.36825735114147007,-0.2534189921737739
19.200000000000482,0.33940927730684317,-0.3025052669535846
19.400000000000727,0.310564868391767,-0.3379380891733378
19.60000000000097,0.2723686461923885,-0.35845804000453574
19.800000000001216,0.22521859545232084,-0.35525352568040913
20.00000000000146,0.17467476076283792,-0.35152234652749026
