Time (s),X (m),Y (m)
0.001,-0.0007144750753253542,0.00043579054991000265
0.20000000000000015,0.00806694790178172,-0.0027118814194499433
0.4000000000000003,0.022169266083819306,-0.008120034002223659
0.6000000000000004,0.03397682456808097,-0.013176767524045757
0.8000000000000006,0.05713576665703533,-0.015711005177011145
1.0000000000000007,0.09156846252681171,-0.023377778238107924
1.2009999999999785,0.13350283541848348,-0.032384565316151574
1.4009999999999565,0.16664229255229907,-0.03559939124838583
1.6009999999999345,0.20040130416441748,-0.04390198278511454
1.8009999999999124,0.245773257647168,-0.057854055363534516
2.0009999999998906,0.29812226615828097,-0.09610965924076606
2.2009999999998686,0.34329992873623905,-0.14025975715702813
2.4009999999998466,0.36752801328259926,-0.19242393764870416
2.6009999999998246,0.37529004584426706,-0.2366787576795863
2.8009999999998025,0.37246384605162547,-0.2847247853186662
3.0009999999997805,0.35897002717156035,-0.33575632884512646
3.2009999999997585,0.3404070821236298,-0.38390528160267323
3.4009999999997365,0.3139198987497951,-0.4371628650062783
3.6009999999997144,0.29492784162963304,-0.48541636623404094
3.8009999999996924,0.27237704274254126,-0.51449228781231
4.000999999999671,0.24519261282711455,-0.5313609136546994
4.200999999999738,0.20565085467341207,-0.5259648375613029
4.400999999999804,0.16215761815559723,-0.5061775088111001
4.600999999999871,0.1284607608483255,-0.4670946814598291
4.800999999999938,0.1171574973604235,-0.42054511098505876
5.000000000000004,0.11580411881763372,-0.37872797818907716
5.200000000000071,0.13823842667630307,-0.32636243545861343
5.400000000000138,0.16161404781667218,-0.2701914851864357
5.600000000000205,0.19513329922240483,-0.2163373935653705
5.800000000000272,0.23637473789064922,-0.17247007630624914
6.000000000000338,0.2922833530746585,-0.15641704879323265
6.200000000000405,0.350840797709173,-0.16494620094965734
6.400000000000472,0.399986865836445,-0.19770827365397783
6.600000000000539,0.4307581294460474,-0.24728104473169402
6.800000000000606,0.4383172767262833,-0.30424394215530576
7.000000000000672,0.43608209839348094,-0.36017799195021744
7.200000000000739,0.424164902888045,-0.41092786135489884
7.400000000000806,0.38726424018068306,-0.44930851660924487
7.600000000000873,0.35056341613976183,-0.47133675777033995
7.8000000000009395,0.3084883162696389,-0.4811927728971468
8.000000000001005,0.2709924920875367,-0.47857420884613283
8.200000000000895,0.2503475786991161,-0.45538518580876797
8.400000000000784,0.24101436415132396,-0.4338006216132356
8.600000000000673,0.24093335494345527,-0.39410573859640224
8.800000000000562,0.24642980219481014,-0.3525113736749844
9.000000000000451,0.2668857232525954,-0.30927855230402135
9.20000000000034,0.29327770808065484,-0.2578843855591036
9.40000000000023,0.32793228697977916,-0.20356392238650828
9.600000000000119,0.38126682589907235,-0.15473467080738385
9.800000000000008,0.42661878404070097,-0.13057886133517038
10.000999999999896,0.47632383844585074,-0.1225518465965637
10.200999999999786,0.527684359402042,-0.12649991166996405
10.400999999999675,0.5824189682123306,-0.1366495312738466
10.600999999999564,0.6411033246652035,-0.17065212226712573
10.800999999999453,0.6939422273817756,-0.22980799793398582
11.000999999999342,0.7176987415298852,-0.2942676834578637
11.200999999999231,0.7192414629423017,-0.3526047683645473
11.40099999999912,0.7154731012797516,-0.40737660080312754
11.60099999999901,0.6863515374649796,-0.4601176267523525
11.800999999998899,0.637244291774065,-0.49406266319128805
12.000999999998788,0.5858203552222001,-0.5071891657382718
12.200999999998677,0.5306952246591581,-0.5075758750468466
12.400999999998566,0.47356376839156167,-0.4934743270137526
12.600999999998455,0.41292715322937723,-0.47146485330885074
12.800999999998345,0.35338025436805715,-0.44897178033224683
13.000999999998234,0.30719205538173205,-0.4210382409443798
13.200999999998123,0.28307475734168963,-0.38431720101360706
13.400999999998012,0.2781786976504669,-0.34095055984180506
13.600999999997901,0.29204841944882814,-0.2899815239963385
13.80099999999779,0.32294459794845365,-0.22831642141454148
14.00099999999768,0.34552311584475426,-0.1657973589454249
14.200999999997569,0.3833805438659936,-0.11230354791744594
14.400999999997458,0.43109338153097276,-0.07665063881329424
14.600999999997347,0.48572127302466345,-0.056488313102196486
14.800999999997236,0.5436424183130324,-0.05761766505423455
15.000999999997125,0.6003414744322569,-0.07217579347916203
15.200999999997014,0.6476389421633677,-0.11193255289621132
15.400999999996904,0.6789362573430063,-0.14667788350438174
15.600999999996793,0.6938396946613071,-0.1902362841128986
15.800999999996682,0.6889458004615993,-0.2406313126042814
16.000999999996573,0.669897373789651,-0.2946935574414523
16.200999999996817,0.6371135359246215,-0.34034510650212707
16.40099999999706,0.585634763010064,-0.3673828772534375
16.600999999997306,0.5298248186182579,-0.36541091212232835
16.80099999999755,0.48121234930156986,-0.35105915385830966
17.000999999997795,0.4343084273667672,-0.3375992586303613
17.20099999999804,0.37701057905443897,-0.314829130341477
17.400999999998284,0.3106820743415447,-0.28434197553313206
17.60099999999853,0.2539544910251101,-0.25200760258765614
17.800999999998773,0.2289736355741792,-0.2012060385013748
18.000999999999017,0.22278388884383823,-0.1465336136656025
18.20099999999926,0.22982209034728499,-0.09448389160395954
18.400999999999506,0.2431001972162071,-0.04021403504380044
18.60099999999975,0.2626912916287026,0.015533773538120266
18.799999999999994,0.2872019861339971,0.07501363786297616
19.000000000000238,0.3087575590898272,0.1390431201673392
19.200000000000482,0.3425513585621159,0.2032368856460312
19.400000000000727,0.390883483760684,0.252130093275183
19.60000000000097,0.44911264105323206,0.26871224842192903
19.800000000001216,0.5136608413365321,0.26375865199925824
20.00000000000146,0.5763530092528186,0.2518403432801137
