Time (s),X (m),Y (m)
0.001,0.00048696676677933824,-0.0009960320817112695
0.20000000000000015,0.0017492837530103335,-0.0009086404913056092
0.4000000000000003,0.00612732592656423,-0.009193850006041315
0.6000000000000004,0.008184297694731528,-0.010561753540571532
0.8000000000000006,0.010424646318077466,-0.011837985016611268
1.0000000000000007,0.011704262512795665,-0.011408031932532854
1.2009999999999785,0.01338818800321745,-0.013916811580598602
1.4009999999999565,0.01523563043188755,-0.015230100825415515
1.6009999999999345,0.018090644682695705,-0.016867211412310658
1.8009999999999124,0.019880821114219682,-0.01869093150431503
2.0009999999998906,0.020756151998271258,-0.020414548196294947
2.2009999999998686,0.02099002063807436,-0.020920988764566592
2.4009999999998466,0.021369938440114585,-0.021740598928986093
2.6009999999998246,0.02178093448783336,-0.022569454909409065
2.8009999999998025,0.022283594021420047,-0.023639150404772415
3.0009999999997805,0.02283921176884173,-0.024878968793547455
3.2009999999997585,0.023242455211407484,-0.02558344129809093
3.4009999999997365,0.02407667846027199,-0.0272917343656833
3.6009999999997144,0.02476444975822397,-0.028645560506011605
3.8009999999996924,0.02556451705851135,-0.030095494824266784
4.000999999999671,0.026522913473670782,-0.03181894715381393
4.200999999999738,0.027563308215132806,-0.033691071860338505
4.400999999999804,0.02843900237283288,-0.03506464674717211
4.600999999999871,0.029544283005134904,-0.03696956995953888
4.800999999999938,0.030591884545638062,-0.038739396189689045
5.000000000000004,0.031682596958629926,-0.04047310971216084
5.200000000000071,0.03295527673596228,-0.04237371238912826
5.400000000000138,0.034378344706683904,-0.04439358632549702
5.600000000000205,0.03582010714009019,-0.04638494735125191
5.800000000000272,0.037379825408235076,-0.048489429577016484
6.000000000000338,0.03889497270319209,-0.05051357608589957
6.200000000000405,0.040454268076083336,-0.05251975933865482
6.400000000000472,0.042022714209504604,-0.05456327625955432
6.600000000000539,0.043639644535806384,-0.05659276716104004
6.800000000000606,0.0452943929857115,-0.058618552722964685
7.000000000000672,0.04734032863910711,-0.06068318003288159
7.200000000000739,0.049329751038699604,-0.06256649863214044
7.400000000000806,0.050755847234569225,-0.06425238437836273
7.600000000000873,0.052398970549185096,-0.06614110139538684
7.8000000000009395,0.054308052574398066,-0.06828998935147843
8.000000000001005,0.056480895801761084,-0.07021165127423142
8.200000000000895,0.058254189490211876,-0.07210980808316063
8.400000000000784,0.060363280377339346,-0.0739388639997719
8.600000000000673,0.06247075705451043,-0.07608312977887191
8.800000000000562,0.06454816025598584,-0.07775056108328954
9.000000000000451,0.06662907401955559,-0.07899925902291748
9.20000000000034,0.06862079512203428,-0.08088177864467237
9.40000000000023,0.07091632248898212,-0.08220133097410315
9.600000000000119,0.07274757616557012,-0.08395476048370554
9.800000000000008,0.07497853495424948,-0.08558049035041333
10.000999999999896,0.07698580784288901,-0.08686393422798168
10.200999999999786,0.07897689411276214,-0.08824613641803557
10.400999999999675,0.08104570929840485,-0.08908389794119988
10.600999999999564,0.08334735322477238,-0.09008090551540142
10.800999999999453,0.08516786860524987,-0.09106381387775501
11.000999999999342,0.0872075546754807,-0.09221974442090466
11.200999999999231,0.08912332797349591,-0.09329273304400858
11.40099999999912,0.09075272310002375,-0.09457138742778799
11.60099999999901,0.09243052307649471,-0.09595349131860277
11.800999999998899,0.09417228781561243,-0.0973330002334107
12.000999999998788,0.09578858509729783,-0.09855298569746215
12.200999999998677,0.09744137361018478,-0.09982934599142304
12.400999999998566,0.09930609823114259,-0.1012467667102101
12.600999999998455,0.10100813931474524,-0.10250138586416563
12.800999999998345,0.1027802928714696,-0.1037637036565179
13.000999999998234,0.10441022180205106,-0.10489024248462624
13.200999999998123,0.1061164018725205,-0.10605297382215009
13.400999999998012,0.10792988614894489,-0.10729014184140138
13.600999999997901,0.10974217338725353,-0.10848545896489123
13.80099999999779,0.11135135120707797,-0.10949920920696513
14.00099999999768,0.11315753483663825,-0.11064923464863287
14.200999999997569,0.11518748277065152,-0.11111307415211043
14.400999999997458,0.11721948773270881,-0.11185887616033827
14.600999999997347,0.11904887819544922,-0.11206123578460038
14.800999999997236,0.12090195987564344,-0.11272606045336714
15.000999999997125,0.12268550863133586,-0.11289974575666445
15.200999999997014,0.12450285010331352,-0.11345598454790282
15.400999999996904,0.12619813953985515,-0.11388133241144247
15.600999999996793,0.12787707157768877,-0.11432173883777753
15.800999999996682,0.12964637134659446,-0.11483344834579491
16.000999999996573,0.13127291962098997,-0.11485788206362191
16.200999999996817,0.13295187629884428,-0.11521689333890976
16.40099999999706,0.1346609327651371,-0.11556909957537742
16.600999999997306,0.13624726725140218,-0.11589112142931879
16.80099999999755,0.13801576942310334,-0.11627721935132014
17.000999999997795,0.1395659299413345,-0.11618977612134812
17.20099999999804,0.14124820913150013,-0.11651086713601207
17.400999999998284,0.14296392240671812,-0.11676908021096466
17.60099999999853,0.14448059325446183,-0.1170075395702249
17.800999999998773,0.14614076287802824,-0.11726760114597773
18.000999999999017,0.14762550900004026,-0.11708455923185583
18.20099999999926,0.14925099638889291,-0.11730964169707027
18.400999999999506,0.15075495704933511,-0.11746436618827122
18.60099999999975,0.1523194229263633,-0.11760247145654751
18.799999999999994,0.15403988026818263,-0.11777950836575124
19.000000000000238,0.15546343323998482,-0.11810631495868257
19.200000000000482,0.15691549953154374,-0.11841182917390446
19.400000000000727,0.15830230915453522,-0.11869968421923227
19.60000000000097,0.15981680710118415,-0.11900205105698107
19.800000000001216,0.1613564814793239,-0.11930325119212373
20.00000000000146,0.16279649398194446,-0.11957685862373553
