Time (s),X (m),Y (m)
0.001,0.0012355833006349717,-0.00017906049427360483
0.20000000000000015,-0.00040537488665207957,0.0002680857525989303
0.4000000000000003,0.008525280991285047,-0.0023600361944988
0.6000000000000004,0.017853013248297078,-0.008002989792694601
0.8000000000000006,0.031515881799268224,-0.011130073996503105
1.0000000000000007,0.044653349475186704,-0.0065691485016402176
1.2009999999999785,0.060469996159497975,-0.011890596779031882
1.4009999999999565,0.08112215200254701,-0.028010675404506913
1.6009999999999345,0.10494227939911663,-0.037486000855998826
1.8009999999999124,0.11368890336919908,-0.031476767135333
2.0009999999998906,0.11391506033814232,-0.021664453228849228
2.2009999999998686,0.11706403186549419,-0.014423785711762243
2.4009999999998466,0.14452082840915118,-0.02596936439108881
2.6009999999998246,0.1652755525731126,-0.03659833385143887
2.8009999999998025,0.1976335085390589,-0.040644110339912075
3.0009999999997805,0.23035885012853735,-0.04387335530469254
3.2009999999997585,0.2739204518283315,-0.05407930309728904
3.4009999999997365,0.30885246124931054,-0.05805688692267688
3.6009999999997144,0.3416621854406633,-0.06538086670530967
3.8009999999996924,0.3708444434432376,-0.07374929886409581
4.000999999999671,0.40116271604206916,-0.08366473984219056
4.200999999999738,0.4254992023395162,-0.09626699685290456
4.400999999999804,0.44466444241343295,-0.11416016698664237
4.600999999999871,0.4564552417451019,-0.14792034858291836
4.800999999999938,0.45920962529173553,-0.17837136008838106
5.000000000000004,0.4497121534887533,-0.21157459388922925
5.200000000000071,0.4245347735850347,-0.2586447633844796
5.400000000000138,0.3893505410371523,-0.3059963045739901
5.600000000000205,0.3607214509111715,-0.3488098884309273
5.800000000000272,0.3420831012841567,-0.37872873683362457
6.000000000000338,0.32240526441206513,-0.39503643046621606
6.200000000000405,0.2990631625857842,-0.39883379473512237
6.400000000000472,0.2695625916040442,-0.3929393631258918
6.600000000000539,0.2348578729413588,-0.38294292699187243
6.800000000000606,0.19336779446619942,-0.3654135975103004
7.000000000000672,0.14879023043938178,-0.33930961428350426
7.200000000000739,0.09981172097369925,-0.3071748189729469
7.400000000000806,0.04802112637492485,-0.26682479576109225
7.600000000000873,0.00666914575502076,-0.2416850111355265
7.8000000000009395,-0.015040321067705741,-0.21383653965178667
8.000000000001005,-0.01881637182594059,-0.17875371537781337
8.200000000000895,-0.007008754525044939,-0.14191012731860536
8.400000000000784,0.011420737353138007,-0.10431543799320522
8.600000000000673,0.046928254527102586,-0.05996000055911738
8.800000000000562,0.09547155344041336,-0.01389236318611246
9.000000000000451,0.14830773551175763,0.025593311437118103
9.20000000000034,0.19856040886717216,0.0475033675183494
9.40000000000023,0.2378412861550836,0.0535343931198434
9.600000000000119,0.2822571954930957,0.04522407461989567
9.800000000000008,0.32665986104121303,0.027866297729019517
10.000999999999896,0.3706360690212025,0.007905949323605289
10.200999999999786,0.4135863284607889,-0.015109150246631856
10.400999999999675,0.4505115957885064,-0.0387124546091377
10.600999999999564,0.4780995637086591,-0.07814720434074099
10.800999999999453,0.49474914236881423,-0.12121339354127861
11.000999999999342,0.5037140015484008,-0.15969654399712477
11.200999999999231,0.5047513546955132,-0.19191312351415976
11.40099999999912,0.493095091784134,-0.23314121965841036
11.60099999999901,0.4763506933555731,-0.27273361116316974
11.800999999998899,0.4597393648152548,-0.31006246680734617
12.000999999998788,0.4474570693216724,-0.3441213625244992
12.200999999998677,0.43676211235855705,-0.38297272074077393
12.400999999998566,0.42004579318684765,-0.42652191677710977
12.600999999998455,0.39944306844331234,-0.4695793585742726
12.800999999998345,0.37409653966927825,-0.5142829754783322
13.000999999998234,0.34295226693574876,-0.5636367018790939
13.200999999998123,0.2992149360660848,-0.6156173318498109
13.400999999998012,0.2547658705756371,-0.6478168222313967
13.600999999997901,0.2166791925859342,-0.6505482583840715
13.80099999999779,0.1833611363042948,-0.6453678561741992
14.00099999999768,0.14111481037162976,-0.632296643493573
14.200999999997569,0.10148816842879567,-0.6177437909306424
14.400999999997458,0.05410200873657263,-0.5863692407881732
14.600999999997347,0.0036052006791430285,-0.5469318198783839
14.800999999997236,-0.04055131652465531,-0.506172182203836
15.000999999997125,-0.07785510029962171,-0.46654434287385277
15.200999999997014,-0.09984499340153863,-0.4365636297678409
15.400999999996904,-0.10696915816379264,-0.40640639696775205
15.600999999996793,-0.1035462202732537,-0.368233717217107
15.800999999996682,-0.0927142464083841,-0.3326106176869257
16.000999999996573,-0.07791454222398372,-0.29871827762730785
16.200999999996817,-0.06717702518968054,-0.26233534511934903
16.40099999999706,-0.04437369066815172,-0.21502208731730027
16.600999999997306,-0.02294836793430312,-0.17291734282988377
16.80099999999755,0.0005292613291601598,-0.1290024370219089
17.000999999997795,0.02044165963412222,-0.08824758900228301
17.20099999999804,0.044581318560935675,-0.04413604509488062
17.400999999998284,0.07989607698928629,0.0022682396435046138
17.60099999999853,0.10414343634110114,0.04157744950309931
17.800999999998773,0.1392791556023771,0.08594026977242292
18.000999999999017,0.18853962445656336,0.12858893933156745
18.20099999999926,0.22242342019180195,0.16236112582984655
18.400999999999506,0.2550254211873326,0.17766614514140008
18.60099999999975,0.28996311344758646,0.17545529508033203
18.799999999999994,0.32770698619625455,0.16199716501693895
19.000000000000238,0.36557368621204933,0.1452641297511875
19.200000000000482,0.40857754359585524,0.12416914315676433
19.400000000000727,0.45317666146824903,0.09718670841051841
19.60000000000097,0.49530062896094657,0.0655751949452075
19.800000000001216,0.5205144629427422,0.03487903986962734
20.00000000000146,0.5315011608987746,0.004990905263084012
