Time (s),X (m),Y (m)
0.001,-4.680521708071185e-05,0.00099603208171127
0.20000000000000015,0.0023622442632394093,-0.0037722802616049025
0.4000000000000003,0.006283339500031301,-0.0031313681252985903
0.6000000000000004,0.012775975784842731,-0.006178484354164192
0.8000000000000006,0.02797373891331452,-0.003413132552512503
1.0000000000000007,0.035925313316599636,0.0006872795501796286
1.2009999999999785,0.04492102356704856,-0.012993370786407145
1.4009999999999565,0.05974588529469914,-0.0138516709468368
1.6009999999999345,0.07738072055603697,-0.023672884072435018
1.8009999999999124,0.09330640039587974,-0.040525119914995994
2.0009999999998906,0.11247870434922418,-0.05441638513252723
2.2009999999998686,0.13388951379813321,-0.06269511167991064
2.4009999999998466,0.153249153330339,-0.06803570338049163
2.6009999999998246,0.16905001760847255,-0.0817459168171678
2.8009999999998025,0.1884281357811265,-0.09274826432384917
3.0009999999997805,0.20830456975562875,-0.09987408110646426
3.2009999999997585,0.22506654228182824,-0.11389296481802282
3.4009999999997365,0.23972390202154295,-0.12955089406247267
3.6009999999997144,0.2542393346892505,-0.14960069134347928
3.8009999999996924,0.2685328477987506,-0.16833960733166634
4.000999999999671,0.28469294032455,-0.18707059751050362
4.200999999999738,0.3050925813714911,-0.19866632828912173
4.400999999999804,0.3277000025171936,-0.2079767546489561
4.600999999999871,0.35337971268986457,-0.21832356470195227
4.800999999999938,0.37524097657212857,-0.23733061603904296
5.000000000000004,0.39172239910037243,-0.2585414843598299
5.200000000000071,0.40771916003985553,-0.27846579575058344
5.400000000000138,0.4243119086288784,-0.30014126536524843
5.600000000000205,0.44634612193355744,-0.31595485144464885
5.800000000000272,0.4644754827263403,-0.3325298998763029
6.000000000000338,0.481606370758115,-0.34201482229484587
6.200000000000405,0.4985440735299592,-0.35910574516049476
6.400000000000472,0.5136888716781155,-0.3812583681324305
6.600000000000539,0.5290707642053384,-0.3981697816809163
6.800000000000606,0.5470273487993927,-0.41954328319857775
7.000000000000672,0.5635516803894475,-0.43247381893230175
7.200000000000739,0.5836267724929529,-0.455948598316903
7.400000000000806,0.6096856711820416,-0.47565952404226913
7.600000000000873,0.6331446531969178,-0.4894139377809904
7.8000000000009395,0.643318118969466,-0.5116110985214678
8.000000000001005,0.6527106964321355,-0.5235075815823401
8.200000000000895,0.6637844221559143,-0.5439200268544826
8.400000000000784,0.6789938651132938,-0.5677298672422417
8.600000000000673,0.7005718369715893,-0.5711907936860946
8.800000000000562,0.7187717186745858,-0.5891044275065755
9.000000000000451,0.7375085971524399,-0.6042254334251056
9.20000000000034,0.7575185880419566,-0.6208739034258984
9.40000000000023,0.7757898563283742,-0.6338805236293533
9.600000000000119,0.7930980916915842,-0.6477990681317111
9.800000000000008,0.8122179800354066,-0.6520069766324614
10.000999999999896,0.829602088540616,-0.6667106123330728
10.200999999999786,0.8450477415489066,-0.6874338895501919
10.400999999999675,0.8563595139161798,-0.7090253081722279
10.600999999999564,0.8647109211951448,-0.7324634189492887
10.800999999999453,0.8802698936908337,-0.7468647678169781
11.000999999999342,0.9008536917676297,-0.7676368203539814
11.200999999999231,0.9270019391899131,-0.7843356476269646
11.40099999999912,0.949394155533752,-0.7990359109451789
11.60099999999901,0.9676142874008387,-0.8181306078624518
11.800999999998899,0.97505588718385,-0.8378422747033057
12.000999999998788,0.9871849599256399,-0.8617528787240857
12.200999999998677,1.008528733655255,-0.8755004286032774
12.400999999998566,1.0222717605363647,-0.8927139092766164
12.600999999998455,1.0359528983647734,-0.9196696477232258
12.800999999998345,1.051493019398468,-0.9472465582559622
13.000999999998234,1.073032811981395,-0.9693673789560366
13.200999999998123,1.097761268382913,-0.9865008430273026
13.400999999998012,1.118091964820187,-0.9948023724132151
13.600999999997901,1.1452150092281315,-1.0051668780233822
13.80099999999779,1.17099311210705,-1.018138967443611
14.00099999999768,1.1919230166782884,-1.0302752290909858
14.200999999997569,1.2125425283013782,-1.0448526549011932
14.400999999997458,1.227874374450333,-1.0676440619167828
14.600999999997347,1.2516502654406962,-1.0861824820545571
14.800999999997236,1.2713984091809674,-1.1054006607136202
15.000999999997125,1.287418364921327,-1.1214551881218007
15.200999999997014,1.306742004823205,-1.1360319149099944
15.400999999996904,1.3259776285551654,-1.1527864476079936
15.600999999996793,1.3443286967692294,-1.1668680338292376
15.800999999996682,1.3582656679228593,-1.1905555535673977
16.000999999996573,1.3784347638008876,-1.2060075179383236
16.200999999996817,1.4048113859055853,-1.2185463694527372
16.40099999999706,1.4352960079127774,-1.2375004585324128
16.600999999997306,1.4609179844647422,-1.2616411624599535
16.80099999999755,1.4846318394635334,-1.275738161370688
17.000999999997795,1.5072488925591687,-1.300298476266194
17.20099999999804,1.5297307886875366,-1.3238891401680033
17.400999999998284,1.5548519735887463,-1.3376965144942683
17.60099999999853,1.5613069665185872,-1.3570279421468814
17.800999999998773,1.5678058607740437,-1.3808656376633444
18.000999999999017,1.5734896257531708,-1.408867676884125
18.20099999999926,1.5801106486147716,-1.4381575211313549
18.400999999999506,1.5969617603050863,-1.4632227332207668
18.60099999999975,1.6174923963825112,-1.4848398312182771
18.799999999999994,1.633916113258301,-1.5015832565709781
19.000000000000238,1.6548742305616195,-1.515948469886528
19.200000000000482,1.6768368509054263,-1.536404048685226
19.400000000000727,1.6918296964043151,-1.5537510478331193
19.60000000000097,1.7032349653900039,-1.5786668149078027
19.800000000001216,1.7210385993352357,-1.5895684405116037
20.00000000000146,1.7382810407803004,-1.603925432110925
