Time (s),X (m),Y (m)
0.001,0.0012473251573109415,-8.987223813608099e-05
0.20000000000000015,-0.002059984337675744,0.0006449838779477999
0.4000000000000003,-0.005037575785885929,0.0014307768056846686
0.6000000000000004,-0.0065315641466587105,0.0025694112171694163
0.8000000000000006,-0.010405563437642438,0.0001901807176701713
1.0000000000000007,-0.013245675052349165,-0.002968879662881449
1.2009999999999785,-0.014994081283522682,-0.009754596621746483
1.4009999999999565,-0.01010774439326302,-0.010789597724999512
1.6009999999999345,-0.007626216663780325,-0.007424368974328219
1.8009999999999124,0.007173446484214976,-0.0075718572694651745
2.0009999999998906,0.020896868890675758,-0.008074014813584529
2.2009999999998686,0.030865384368526996,-0.009933359271628792
2.4009999999998466,0.035368974331466324,-0.007266954773707524
2.6009999999998246,0.04410805162508219,-0.00888344669595042
2.8009999999998025,0.05431466395954992,-0.01237030340482306
3.0009999999997805,0.07063792872829026,-0.015458690855821218
3.2009999999997585,0.0833491215268042,-0.020216696936926442
3.4009999999997365,0.0977283708138474,-0.02441799443976614
3.6009999999997144,0.10844886313172357,-0.026288026869882603
3.8009999999996924,0.1308318127305847,-0.0289867588969759
4.000999999999671,0.15253471224389176,-0.030276859050177695
4.200999999999738,0.17458935499458536,-0.03859479769652655
4.400999999999804,0.17831655174998226,-0.04044689001099634
4.600999999999871,0.1942192100886006,-0.043929404351851435
4.800999999999938,0.21035943657422634,-0.049086891774503455
5.000000000000004,0.23061633763657383,-0.049982067345888864
5.200000000000071,0.24772019624635042,-0.053489601187032984
5.400000000000138,0.2636615491031504,-0.058134090045795964
5.600000000000205,0.2895665420602003,-0.06681542616814397
5.800000000000272,0.3152918846575551,-0.07557500235109794
6.000000000000338,0.3414436344202294,-0.08308782724017927
6.200000000000405,0.3628468856714026,-0.09211820644933819
6.400000000000472,0.3818852323820306,-0.10015171266940075
6.600000000000539,0.4022120457901793,-0.11246024663073818
6.800000000000606,0.41764659531837633,-0.1233286212533006
7.000000000000672,0.4339089603645209,-0.12940516947257685
7.200000000000739,0.45037810810766665,-0.13698508253696948
7.400000000000806,0.4710508417826607,-0.14773803106952382
7.600000000000873,0.49321603893665417,-0.15704874671517507
7.8000000000009395,0.5179077148159299,-0.17797085339631435
8.000000000001005,0.5384336764757808,-0.18851468201267188
8.200000000000895,0.561155782712253,-0.20172724206620482
8.400000000000784,0.5830773377434427,-0.21353889950398303
8.600000000000673,0.6064272446193728,-0.22647614339318833
8.800000000000562,0.6330817466759576,-0.24198212610863012
9.000000000000451,0.6598712108745828,-0.2545030495478495
9.20000000000034,0.6838120591037219,-0.2659552521510503
9.40000000000023,0.7092955741279934,-0.28008052742691397
9.600000000000119,0.7343525661689739,-0.2938386955619689
9.800000000000008,0.7617184574066937,-0.3084030008510818
10.000999999999896,0.7879799275893938,-0.3245746409763058
10.200999999999786,0.8105701756541316,-0.33319936923377597
10.400999999999675,0.8317491784324751,-0.3420107993095771
10.600999999999564,0.8605082399193538,-0.3580111485441115
10.800999999999453,0.887362121569666,-0.3698704870946206
11.000999999999342,0.9095340621225597,-0.3788309443879895
11.200999999999231,0.9266919147517594,-0.3910082521580773
11.40099999999912,0.9517035641605935,-0.4090334365028249
11.60099999999901,0.9705238236070205,-0.4173974701320825
11.800999999998899,0.9921407017174901,-0.43061368902237557
12.000999999998788,1.016015033503695,-0.4532035405352063
12.200999999998677,1.0352927253548736,-0.46734504276933386
12.400999999998566,1.0555190102932828,-0.47877071682607086
12.600999999998455,1.076210121110698,-0.4979431842831213
12.800999999998345,1.0943703586554618,-0.5220048105953037
13.000999999998234,1.1036609010455767,-0.5513141281717651
13.200999999998123,1.1063224753725083,-0.5740869957431552
13.400999999998012,1.1033020423728803,-0.6012065662731962
13.600999999997901,1.090007275504597,-0.646879844982961
13.80099999999779,1.0747030795281232,-0.6814361339864177
14.00099999999768,1.0640213593880292,-0.6974324320460538
14.200999999997569,1.0493769683206762,-0.7188285877503868
14.400999999997458,1.036779010015685,-0.7425506424342156
14.600999999997347,1.0242842992219672,-0.7707640435072274
14.800999999997236,1.0038333088438542,-0.8049689866355494
15.000999999997125,0.9938372458086724,-0.8298249270654624
15.200999999997014,0.9859093068017305,-0.8469474955069759
15.400999999996904,0.9788786739450411,-0.8693177338090452
15.600999999996793,0.9660824857367547,-0.8936887817960458
15.800999999996682,0.9521413088482665,-0.9167690719670382
16.000999999996573,0.9290349965799908,-0.9502038198201485
16.200999999996817,0.917146432387325,-0.9744339753456196
16.40099999999706,0.9023754533603487,-0.9973552468906735
16.600999999997306,0.8835851741270552,-1.0250172211056825
16.80099999999755,0.8675586961058789,-1.0582551182482018
17.000999999997795,0.8441404524076291,-1.0924535045519748
17.20099999999804,0.8280986987133059,-1.1248339831770326
17.400999999998284,0.8036543522265795,-1.1594082910328856
17.60099999999853,0.7813390113634473,-1.1951189605644938
17.800999999998773,0.7667784424015341,-1.221142110144596
18.000999999999017,0.7479442047202564,-1.2417857820177445
18.20099999999926,0.7286818497460906,-1.266267385889849
18.400999999999506,0.7165794980052066,-1.2857452391305801
18.60099999999975,0.7037556173893417,-1.3101275350522887
18.799999999999994,0.6864018684570637,-1.3284111640997807
19.000000000000238,0.6705207856111639,-1.3532065848552663
19.200000000000482,0.6538389558577083,-1.3819925884411741
19.400000000000727,0.6374921339433972,-1.4043855443648237
19.60000000000097,0.6229198826444345,-1.421878024867626
19.800000000001216,0.6059203845781825,-1.4398632403234022
20.00000000000146,0.5868014672025739,-1.4603951744170338
