Time (s),X (m),Y (m)
0.001,4.1020280575708355e-05,-0.0010155025257856578
0.20000000000000015,0.0017570563616718874,0.0011366367018806522
0.4000000000000003,0.014090196251450875,0.007277416787169995
0.6000000000000004,0.03690979859406324,0.01944859121527484
0.8000000000000006,0.07001997914267662,0.01588564497663472
1.0000000000000007,0.10021699568284495,0.0004800413757316266
1.2009999999999785,0.13975897047505306,-0.020440715409608793
1.4009999999999565,0.18770900812753474,-0.03705987910779813
1.6009999999999345,0.2417047652725584,-0.05918854965980687
1.8009999999999124,0.28455987678389777,-0.09394464172122093
2.0009999999998906,0.30861947530913036,-0.14283541006621697
2.2009999999998686,0.32412899908187814,-0.18625552850748722
2.4009999999998466,0.32933502296704215,-0.20520077662325392
2.6009999999998246,0.32245809405849735,-0.2024142303588425
2.8009999999998025,0.3137856112848981,-0.18907658105206704
3.0009999999997805,0.3128159201421677,-0.16369331485898095
3.2009999999997585,0.32082997506508487,-0.12899454982851954
3.4009999999997365,0.32664450430879316,-0.0785993424472694
3.6009999999997144,0.33998665375271686,-0.02511300294806206
3.8009999999996924,0.36268812538848944,0.025460495002445942
4.000999999999671,0.39533181948246715,0.06939544340012077
4.200999999999738,0.42970573801352674,0.13097774399240666
4.400999999999804,0.4659614688007103,0.18484457172777072
4.600999999999871,0.5168101470057991,0.23533574682653555
4.800999999999938,0.5756574199999486,0.2650611158534558
5.000000000000004,0.6230727138626733,0.2753776347686433
5.200000000000071,0.6568744476310595,0.2610629466158958
5.400000000000138,0.6595525642544359,0.23026758819492854
5.600000000000205,0.6506677535890303,0.18324318231275163
5.800000000000272,0.6448116846518959,0.11246931540876923
6.000000000000338,0.63172637911347,0.05120277077790373
6.200000000000405,0.6178334072587913,-0.013916073236784302
6.400000000000472,0.6000159898626815,-0.0846613038116206
6.600000000000539,0.5692976525678567,-0.1446841675185207
6.800000000000606,0.5228239310206606,-0.18061722349972492
7.000000000000672,0.4660571438909256,-0.19762768045918525
7.200000000000739,0.40161735392978665,-0.2017441869470841
7.400000000000806,0.33250942553692087,-0.19502752241229523
7.600000000000873,0.26406969747366565,-0.17462684102252798
7.8000000000009395,0.22938304928271197,-0.13994555831383526
8.000000000001005,0.2008382137435791,-0.08689339826126256
8.200000000000895,0.1831910008888094,-0.03142298063814584
8.400000000000784,0.174218899898651,0.031057590849877494
8.600000000000673,0.16759438773300678,0.1045573826109755
8.800000000000562,0.16916021817149568,0.1735872733930523
9.000000000000451,0.17224848132075454,0.23703044306080565
9.20000000000034,0.19732544865472326,0.2967924453701747
9.40000000000023,0.24821319071457373,0.3343491817938876
9.600000000000119,0.32391102246004333,0.354512584954201
9.800000000000008,0.3970492651518468,0.35794552372041993
10.000999999999896,0.44676402419430616,0.34034708243783035
10.200999999999786,0.4849607679442082,0.2973725776465242
10.400999999999675,0.5041129507054155,0.2490517606825323
10.600999999999564,0.4983483683212638,0.2187477293105595
10.800999999999453,0.4724883737456453,0.20306803105763802
11.000999999999342,0.4361520950731387,0.19439740650988663
11.200999999999231,0.3871341010332597,0.1989334767575432
11.40099999999912,0.3574371000769318,0.2190011035893567
11.60099999999901,0.3370861876331673,0.25554224972599926
11.800999999998899,0.3300571628394371,0.3037586554837154
12.000999999998788,0.32960789126690626,0.3616153591879588
12.200999999998677,0.3214382366386187,0.4325817359646071
12.400999999998566,0.31352039445164126,0.52320493103183
12.600999999998455,0.31192225488976655,0.5931521725081433
12.800999999998345,0.33420610403889034,0.6654080381969467
13.000999999998234,0.3631557791805588,0.7226546469483243
13.200999999998123,0.40209764446522545,0.7680034884986594
13.400999999998012,0.4546566560265158,0.8006443485403898
13.600999999997901,0.5109281702736416,0.8211248559861114
13.80099999999779,0.5735832821017669,0.8309545781504759
14.00099999999768,0.6314698125132133,0.8178075590150977
14.200999999997569,0.6723046379433324,0.7744821858825659
14.400999999997458,0.7146664160850611,0.7161776106459173
14.600999999997347,0.7915328423744737,0.6517608217064081
14.800999999997236,0.8610192187861003,0.5975475044831502
15.000999999997125,0.9176174660942199,0.5438880645116887
15.200999999997014,0.9782586553265207,0.4959487607526182
15.400999999996904,1.034455038485999,0.4403905242916339
15.600999999996793,1.070764655044914,0.372007870138186
15.800999999996682,1.1028188306776865,0.3000077825488394
16.000999999996573,1.1230467102648327,0.22038603835889145
16.200999999996817,1.1176627467429447,0.16024458138705394
16.40099999999706,1.08312178086785,0.11390540513243876
16.600999999997306,1.0309469930104453,0.08599460626503173
16.80099999999755,0.991517138683859,0.06375571875110027
17.000999999997795,0.961957788961771,0.06385728412800917
17.20099999999804,0.9197306233150628,0.1004127762326481
17.400999999998284,0.8908646934275923,0.15471254997863126
17.60099999999853,0.8803912429745531,0.21928032219843785
17.800999999998773,0.8688675894665302,0.2948305127853183
18.000999999999017,0.8681444087449801,0.3569998463089243
18.20099999999926,0.8831463255761002,0.42551459385270185
18.400999999999506,0.9178020644204227,0.4795965695132486
18.60099999999975,0.9708900328503063,0.50953001592454
18.799999999999994,1.0213001037289136,0.5247762286788354
19.000000000000238,1.0763519451120986,0.5213985354933061
19.200000000000482,1.1067210998548118,0.49164415767774994
19.400000000000727,1.1136275940017504,0.45151040843012225
19.60000000000097,1.1101993659858727,0.40175213406142074
19.800000000001216,1.103773494661086,0.3425496151669908
20.00000000000146,1.0983079925206878,0.2714416034755313
