Time (s),X (m),Y (m)
0.001,-0.0006246028371892732,0.000591453832551625
0.20000000000000015,0.0062688974721832914,-0.003245665050541655
0.4000000000000003,0.030019237634830484,-0.01750401348064546
0.6000000000000004,0.05683722322314876,-0.015056019517926077
0.8000000000000006,0.07797198472816673,-0.004071968228022474
1.0000000000000007,0.10576430555912551,0.002505298470129802
1.2009999999999785,0.1352780537851533,-0.018612861131852572
1.4009999999999565,0.15873248714007812,-0.051540486625365985
1.6009999999999345,0.171913724264143,-0.08943110953003246
1.8009999999999124,0.16980159321201735,-0.1331198348602253
2.0009999999998906,0.163835341159121,-0.1825993267753133
2.2009999999998686,0.15601024105791078,-0.23606470363351953
2.4009999999998466,0.15449100479761996,-0.27690678409340314
2.6009999999998246,0.14856561766813525,-0.31876999656522714
2.8009999999998025,0.14132744416350457,-0.36550640277822966
3.0009999999997805,0.1267884882292681,-0.4103826844188371
3.2009999999997585,0.12127067722821606,-0.44627638056098473
3.4009999999997365,0.10885089672557116,-0.47647438794008656
3.6009999999997144,0.07340906260518365,-0.49043280662452177
3.8009999999996924,0.028721210438527607,-0.491920914801144
4.000999999999671,-0.01598832893296354,-0.49156856815594496
4.200999999999738,-0.06280990767525377,-0.47881352261778043
4.400999999999804,-0.09431177348841928,-0.44193362633256045
4.600999999999871,-0.09639362695978895,-0.3913479681509408
4.800999999999938,-0.0845648600886676,-0.33979572230189764
5.000000000000004,-0.06451322665946271,-0.28777757542568233
5.200000000000071,-0.021878694311525948,-0.23426259530210525
5.400000000000138,0.013445865459220134,-0.18691730887058763
5.600000000000205,0.0512272843250858,-0.15665795395785265
5.800000000000272,0.10429721550624871,-0.1445982852000977
6.000000000000338,0.16883411901905876,-0.1480281560712348
6.200000000000405,0.23238267419064174,-0.15550145902271767
6.400000000000472,0.28992063441045474,-0.17717009994532026
6.600000000000539,0.33239136282093296,-0.22380616053093244
6.800000000000606,0.3579412942465792,-0.2788851507490915
7.000000000000672,0.37101386696897465,-0.3284515746473485
7.200000000000739,0.3829226380953343,-0.3646936238279699
7.400000000000806,0.3866864291295806,-0.4076889270522098
7.600000000000873,0.3862532590018449,-0.450498364678424
7.8000000000009395,0.36936605019763236,-0.49639395224862104
8.000000000001005,0.3328754108188418,-0.5389526441025096
8.200000000000895,0.2801556171352059,-0.5668537019740639
8.400000000000784,0.21766228389819423,-0.5766421860498955
8.600000000000673,0.16940803760024686,-0.5813445975576701
8.800000000000562,0.11420784788931954,-0.5817057004758042
9.000000000000451,0.04834745733758212,-0.5763803863871897
9.20000000000034,-0.026681681761286043,-0.5603387421615353
9.40000000000023,-0.09717858387310353,-0.5327192680830346
9.600000000000119,-0.162378998116133,-0.4900462068307707
9.800000000000008,-0.19603312646764404,-0.4335505734520898
10.000999999999896,-0.20263297307910338,-0.3715211568534217
10.200999999999786,-0.19039958358600875,-0.3160956720515612
10.400999999999675,-0.17027315497461726,-0.26795575209651873
10.600999999999564,-0.13065154547728608,-0.22721824096426335
10.800999999999453,-0.08321837478123445,-0.19747700619320055
11.000999999999342,-0.017840999909495968,-0.1966510107568681
11.200999999999231,0.05501658466885919,-0.221175015425701
11.40099999999912,0.1301858115363557,-0.24622991733997188
11.60099999999901,0.20328203549803717,-0.2848618053930388
11.800999999998899,0.26524759154732364,-0.32993698899743107
12.000999999998788,0.30672132091409104,-0.37465733416186753
12.200999999998677,0.32816294193429485,-0.4240587191252674
12.400999999998566,0.3318578151060325,-0.4833918820147529
12.600999999998455,0.3158525725656628,-0.5500483556333604
12.800999999998345,0.29222600314503566,-0.6142904275701006
13.000999999998234,0.2783627224898889,-0.6741365071928571
13.200999999998123,0.26523881379937875,-0.7327841962743636
13.400999999998012,0.23330714929921934,-0.7869192508452678
13.600999999997901,0.18388913028614276,-0.8133076138936731
13.80099999999779,0.12913273074316894,-0.8225023485920184
14.00099999999768,0.08126252605213447,-0.804376090502001
14.200999999997569,0.05377540533521579,-0.7688877105165325
14.400999999997458,0.056623789197154564,-0.723154763969618
14.600999999997347,0.08581936210478179,-0.6781522489513595
14.800999999997236,0.13837417441643526,-0.6519912792970657
15.000999999997125,0.19238165849908526,-0.6358380489398018
15.200999999997014,0.24338139264088382,-0.6263623045726864
15.400999999996904,0.2945109943111445,-0.6190363313368217
15.600999999996793,0.34940777284791863,-0.6162722988799855
15.800999999996682,0.41128218632475516,-0.6265414715704273
16.000999999996573,0.4756616988856424,-0.6471162368414055
16.200999999996817,0.5397732678850666,-0.6867967674935144
16.40099999999706,0.5984763436010098,-0.7331953774961701
16.600999999997306,0.6427467532359195,-0.7883340738165615
16.80099999999755,0.6641612312097009,-0.8555125849286793
17.000999999997795,0.6761042768464042,-0.9146937221229423
17.20099999999804,0.6822587712246543,-0.9691232501399657
17.400999999998284,0.6809569670333974,-1.0211997420843204
17.60099999999853,0.6587176989835025,-1.0724031381034538
17.800999999998773,0.6095256506333028,-1.1193819069441975
18.000999999999017,0.5438898115349476,-1.1458473218501772
18.20099999999926,0.46659621501212384,-1.1498711733195988
18.400999999999506,0.3841195851334011,-1.1335646103053532
18.60099999999975,0.30744243332796883,-1.121138311378228
18.799999999999994,0.23220027497282308,-1.1094980411794846
19.000000000000238,0.15821821506069164,-1.0963125852893514
19.200000000000482,0.08781552637278171,-1.0763798492312973
19.400000000000727,0.019146281046487513,-1.033099114035813
19.60000000000097,-0.036568364331624297,-0.9885988167792488
19.800000000001216,-0.07608711643641629,-0.9416333496477124
20.00000000000146,-0.10128709887925,-0.8834834237956364
