Time (s),X (m),Y (m)
0.001,0.0006558713247593165,0.0009345558501746678
0.20000000000000015,-0.0010985599677067396,-0.004154972434912041
0.4000000000000003,0.001799900844017641,-0.009494991884543438
0.6000000000000004,0.010773053575469056,-0.001571809081401619
0.8000000000000006,0.029740975962416365,-0.0014397098646374376
1.0000000000000007,0.053695181207452175,0.0018928835520541113
1.2009999999999785,0.0793272862935729,0.00571078858033351
1.4009999999999565,0.10916504780654093,0.005974938857586458
1.6009999999999345,0.1452329326352438,0.00723169820048704
1.8009999999999124,0.18414885686892196,0.009428299316289393
2.0009999999998906,0.21322589132998018,0.007218345466855094
2.2009999999998686,0.24303296072554947,0.009414375859169303
2.4009999999998466,0.27939707586353824,0.015518861458667573
2.6009999999998246,0.3213748757832598,0.01985152979952741
2.8009999999998025,0.35615947363143785,0.015096751421725776
3.0009999999997805,0.39649720631425345,0.02592335649824119
3.2009999999997585,0.4267792689710152,0.025866563575238605
3.4009999999997365,0.45846060253608256,0.02587909977010332
3.6009999999997144,0.49762409483879394,0.024433291319813834
3.8009999999996924,0.5314660055385263,0.01248150453013789
4.000999999999671,0.5635253124842815,0.003537416563640617
4.200999999999738,0.599856452169744,0.01109237661153149
4.400999999999804,0.630363913874545,0.0009501351135137942
4.600999999999871,0.6636531854496955,-0.004781818751311495
4.800999999999938,0.6953843652200025,0.009777884444868209
5.000000000000004,0.7382355424363396,0.03690240407085079
5.200000000000071,0.7803976294649007,0.0569301647172266
5.400000000000138,0.8199962915533946,0.07802592473714755
5.600000000000205,0.8631110107092209,0.0986830377241805
5.800000000000272,0.903341116257572,0.11072553074133927
6.000000000000338,0.9376734694158757,0.1262932046415065
6.200000000000405,0.9659095508540249,0.1676541047040753
6.400000000000472,0.9931476198943315,0.20076561292624068
6.600000000000539,1.0249713762224022,0.22873527281630823
6.800000000000606,1.0598451114666838,0.25763205361833674
7.000000000000672,1.0955775576975881,0.2817463808928304
7.200000000000739,1.1339493236151923,0.3102829333255399
7.400000000000806,1.1727185091322108,0.3378609309917125
7.600000000000873,1.2120713072265294,0.3661421359077485
7.8000000000009395,1.250190369449724,0.39034155898506195
8.000000000001005,1.284933425170805,0.4207899092104415
8.200000000000895,1.3177713384678074,0.4443499227356766
8.400000000000784,1.356574085347216,0.45587570039474296
8.600000000000673,1.3923289941970407,0.48553242908553873
8.800000000000562,1.4242009384964882,0.5112932548704279
9.000000000000451,1.4581508274273949,0.5444046224513535
9.20000000000034,1.4940598737339965,0.5784123978344704
9.40000000000023,1.5302072765345576,0.6111605463743394
9.600000000000119,1.569889133032077,0.6361235533325855
9.800000000000008,1.60906350144313,0.6454704523936446
10.000999999999896,1.6444250241376155,0.6739622920587846
10.200999999999786,1.6809522291774512,0.7058658792050511
10.400999999999675,1.7171723879477165,0.7198443176046294
10.600999999999564,1.7553127851356716,0.7357460454885667
10.800999999999453,1.7923254910396158,0.7578793158424948
11.000999999999342,1.8279562427941582,0.7903821477133558
11.200999999999231,1.8635292134798636,0.8167145705465598
11.40099999999912,1.902084979524312,0.8416384426221356
11.60099999999901,1.9371667350151878,0.8632737715939185
11.800999999998899,1.9694495517051807,0.8912466050619985
12.000999999998788,2.001180301454713,0.9313976299170895
12.200999999998677,2.0339407227124844,0.962101771504899
12.400999999998566,2.070526643822017,0.9853037836316488
12.600999999998455,2.1046878571441434,1.0212692829404906
12.800999999998345,2.1469300719780926,1.0475265708747832
13.000999999998234,2.185817207226711,1.0527118471077783
13.200999999998123,2.2283574686575442,1.0855499711784595
13.400999999998012,2.274340053449679,1.1296803499479808
13.600999999997901,2.3202035013009947,1.1869131046272956
13.80099999999779,2.365444339798785,1.2301127908715053
14.00099999999768,2.410863019901607,1.2757885637111084
14.200999999997569,2.4488415363874942,1.307018372154022
14.400999999997458,2.488827437172867,1.3457060271110068
14.600999999997347,2.530339627274876,1.3776186329267233
14.800999999997236,2.5740870513782568,1.4124940462132778
15.000999999997125,2.6227216562338107,1.4437393334109987
15.200999999997014,2.673675504739627,1.4654347885540118
15.400999999996904,2.725047092456538,1.4916574071453457
15.600999999996793,2.7797292168187124,1.5142179751211133
15.800999999996682,2.8280767131297657,1.5311552827393644
16.000999999996573,2.8751082002785484,1.550892249110635
16.200999999996817,2.9248761194060493,1.571475426516209
16.40099999999706,2.9795404747267247,1.5883686848990302
16.600999999997306,3.024847895419033,1.5988867320048163
16.80099999999755,3.0674664424874027,1.6069881041223324
17.000999999997795,3.1147479882386446,1.631581583469997
17.20099999999804,3.16589222060607,1.6524972253235124
17.400999999998284,3.2172510576081357,1.6727969481094715
17.60099999999853,3.272063077043763,1.6996276013167584
17.800999999998773,3.323579059497745,1.7103725388629085
18.000999999999017,3.3700096005628994,1.735231080526704
18.20099999999926,3.4128469789961926,1.761721317182853
18.400999999999506,3.455509374078623,1.7809674665263868
18.60099999999975,3.49945148269177,1.8052828871755806
18.799999999999994,3.541349019379798,1.8275548165542546
19.000000000000238,3.583006391069911,1.8493335371511401
19.200000000000482,3.6203470204395334,1.8813015013723065
19.400000000000727,3.654373334082117,1.916917659353446
19.60000000000097,3.6892397857106025,1.9582118708322354
19.800000000001216,3.7269025062860535,1.9910285034923683
20.00000000000146,3.7571785525234085,2.0290274593377173
