Time (s),X (m),Y (m)
0.001,0.0006558713247593165,0.0009345558501746678
0.20000000000000015,0.0045956579952298555,0.004829396133192848
0.4000000000000003,0.005252016507233964,0.004790133633645589
0.6000000000000004,0.0073748849396480945,0.003665680654425616
0.8000000000000006,0.011678350085921156,0.0055322895508707745
1.0000000000000007,0.01524211728879243,0.006133724124474114
1.2009999999999785,0.021042953424177183,0.007213980181782782
1.4009999999999565,0.027617147346720744,0.010817518501793272
1.6009999999999345,0.032080878785695856,0.015556884080321427
1.8009999999999124,0.03799202481004496,0.020541271979491342
2.0009999999998906,0.04263966117660235,0.021837067892879324
2.2009999999998686,0.046802055974635694,0.022482100532826788
2.4009999999998466,0.05193153314539146,0.026077460097867
2.6009999999998246,0.05607350823806206,0.026767076887891223
2.8009999999998025,0.060860610002737923,0.031076844408440257
3.0009999999997805,0.06419339460585867,0.03210919030153226
3.2009999999997585,0.06797362421558532,0.03440407354711185
3.4009999999997365,0.07195048137022478,0.03693370396311647
3.6009999999997144,0.07493579533048188,0.03887244254293484
3.8009999999996924,0.07726611896732263,0.041410634638042634
4.000999999999671,0.08086742917932482,0.04203208689880458
4.200999999999738,0.08398712961935681,0.04595749197501859
4.400999999999804,0.08620245486827989,0.04902553475341635
4.600999999999871,0.09064227325254023,0.0521618279350522
4.800999999999938,0.0924906652047646,0.056326138500953284
5.000000000000004,0.09339501475078509,0.06065365467040478
5.200000000000071,0.09589582713254573,0.06560086641633035
5.400000000000138,0.09715457041728645,0.06951609124900193
5.600000000000205,0.09861509498483023,0.07196215011199239
5.800000000000272,0.10165687759974827,0.0732988821481969
6.000000000000338,0.103629649053742,0.07713771330340496
6.200000000000405,0.10791921104914237,0.07920291219339837
6.400000000000472,0.11042314557866946,0.08207110662535476
6.600000000000539,0.1093551143695918,0.09174677743236272
6.800000000000606,0.110689170114923,0.09667727138618692
7.000000000000672,0.1113375804365969,0.1023716769365144
7.200000000000739,0.11194366438057787,0.10729119223198903
7.400000000000806,0.1117519644834001,0.11275845200992876
7.600000000000873,0.11298340920326021,0.11792041449595732
7.8000000000009395,0.11375863527147687,0.12334934307111757
8.000000000001005,0.11477746520513114,0.12864402373940606
8.200000000000895,0.11575276225611235,0.13355852000132376
8.400000000000784,0.11362888603525802,0.13932283642406987
8.600000000000673,0.1098416182146407,0.14694663322971493
8.800000000000562,0.10662152286587707,0.15431932234034398
9.000000000000451,0.10172949074586264,0.16088007404969984
9.20000000000034,0.10007209958430184,0.16717706561351164
9.40000000000023,0.09680262346193313,0.17417285975480873
9.600000000000119,0.09307857794091019,0.18048293461472464
9.800000000000008,0.09247230792700269,0.18676173999744375
10.000999999999896,0.09326094585320141,0.1926088839940483
10.200999999999786,0.09173897748779487,0.19883667070642494
10.400999999999675,0.08761308045267288,0.20432379633640543
10.600999999999564,0.0860720701684809,0.2095274689714289
10.800999999999453,0.08281419374052135,0.21447035601134054
11.000999999999342,0.08207936252855473,0.21986604384057665
11.200999999999231,0.07917430054063285,0.22546806658168125
11.40099999999912,0.07737041108988145,0.22987351469874104
11.60099999999901,0.07330373460672308,0.2345953973738906
11.800999999998899,0.07240199712158908,0.2392259498179574
12.000999999998788,0.0693486903247581,0.2427812478601775
12.200999999998677,0.0648537023271438,0.24465480220621594
12.400999999998566,0.06115145839612819,0.24719411210824405
12.600999999998455,0.05842461469780145,0.25010115699335106
12.800999999998345,0.054628287866531615,0.25352241945726006
13.000999999998234,0.05034188485005213,0.254527723236885
13.200999999998123,0.046849054522032356,0.2567483714788123
13.400999999998012,0.04545381325939985,0.2599830662466393
13.600999999997901,0.042427886655385695,0.2620789809901718
13.80099999999779,0.034920441805601665,0.26389744885438715
14.00099999999768,0.030915425509782837,0.2657756016744083
14.200999999997569,0.02762982760948896,0.26848193296595946
14.400999999997458,0.021647711974262275,0.2689532391334027
14.600999999997347,0.014140852549239906,0.26890217644498043
14.800999999997236,0.009261108549297998,0.2697211628553067
15.000999999997125,0.004308447532607974,0.2703005228283585
15.200999999997014,-0.00022991350656955144,0.2722281253919482
15.400999999996904,-0.006369759279205658,0.27346355662107025
15.600999999996793,-0.01580256638963229,0.2686305243783938
15.800999999996682,-0.02211186024902605,0.2680005221725999
16.000999999996573,-0.027907803552118075,0.26676804218258054
16.200999999996817,-0.034210019003719665,0.26435254370762284
16.40099999999706,-0.04131730732826201,0.2613520540228705
16.600999999997306,-0.04713502358588361,0.26239173567199064
16.80099999999755,-0.05415453261209315,0.2599344494472931
17.000999999997795,-0.06084768101980031,0.25996601861104623
17.20099999999804,-0.0671643129760582,0.257264550243013
17.400999999998284,-0.07239577453654297,0.2550675606804614
17.60099999999853,-0.07856117851699011,0.2546587425202295
17.800999999998773,-0.08506008563549487,0.2536137670408416
18.000999999999017,-0.09181086205831286,0.25336803305654343
18.20099999999926,-0.09767184910487253,0.2523794633292818
18.400999999999506,-0.10341781859751989,0.25057071405197995
18.60099999999975,-0.10936856246951594,0.2477323785900293
18.799999999999994,-0.11402629461308014,0.24518830159583452
19.000000000000238,-0.11759402167192416,0.24576421799003484
19.200000000000482,-0.12046670026523765,0.24353121086787896
19.400000000000727,-0.12496393363758883,0.23964348674606634
19.60000000000097,-0.12845379213046682,0.2332209839598811
19.800000000001216,-0.13059535583708795,0.22829230162352032
20.00000000000146,-0.1322202217496,0.22368780620751302
