Time (s),X (m),Y (m)
0.001,0.0011546366250239817,-0.00043579054991000363
0.20000000000000015,0.0003364829708167147,-0.0005277360865503807
0.4000000000000003,0.011941398908266482,-0.009072858016159584
0.6000000000000004,0.02879141145579556,-0.020518352583999363
0.8000000000000006,0.04121597692940993,-0.024085046620243678
1.0000000000000007,0.0668762943168684,-0.025603776784668186
1.2009999999999785,0.10235827355555517,-0.03894274910246828
1.4009999999999565,0.14245953505450407,-0.05355263268429902
1.6009999999999345,0.17218843002106188,-0.05999504957005454
1.8009999999999124,0.21282379851874622,-0.06845321578269575
2.0009999999998906,0.2519991473280432,-0.07864717133159282
2.2009999999998686,0.2835344958503282,-0.07902695771709642
2.4009999999998466,0.3138441498480059,-0.07938307800685632
2.6009999999998246,0.34783784166708276,-0.08115470198817917
2.8009999999998025,0.38186635685984416,-0.0831424682348605
3.0009999999997805,0.41647253410195395,-0.0958076013942565
3.2009999999997585,0.457353099898207,-0.11248224444095552
3.4009999999997365,0.49092441095041656,-0.12719641870741843
3.6009999999997144,0.5156685213508175,-0.15235034182657825
3.8009999999996924,0.5261843452889354,-0.18235314386936133
4.000999999999671,0.5301048467145265,-0.20151647652476085
4.200999999999738,0.5245036974326547,-0.23158650177303622
4.400999999999804,0.5022181280413448,-0.27415673364403825
4.600999999999871,0.47685623583188086,-0.3192627353362809
4.800999999999938,0.4665642408189055,-0.3595629682214959
5.000000000000004,0.44821074857765236,-0.39989676050837425
5.200000000000071,0.4175153697425546,-0.4412932149071882
5.400000000000138,0.38191922154273594,-0.48181994817455936
5.600000000000205,0.33712863517911984,-0.5049807115752866
5.800000000000272,0.29075469768583895,-0.5119275573637424
6.000000000000338,0.24198188532724402,-0.5068288933237507
6.200000000000405,0.19446432031600888,-0.4941748491320059
6.400000000000472,0.1435267535250729,-0.480290515463597
6.600000000000539,0.09158461873016581,-0.45805038711184337
6.800000000000606,0.04456247245503646,-0.41900198603970085
7.000000000000672,0.01354910759085882,-0.37947136101505635
7.200000000000739,0.010337123476553989,-0.32870990459797117
7.400000000000806,0.013953428215812955,-0.28423696455672814
7.600000000000873,0.02515304181932127,-0.2332432599023971
7.8000000000009395,0.035280425143058784,-0.18374362119939028
8.000000000001005,0.055212489976410956,-0.13306882615840138
8.200000000000895,0.08072586078902473,-0.08136838705686145
8.400000000000784,0.1248479390860534,-0.04404683450764725
8.600000000000673,0.17739461293570497,-0.02122252486380584
8.800000000000562,0.23730819420030255,-0.014577845601540665
9.000000000000451,0.3048414842753881,-0.026324417730727235
9.20000000000034,0.3767467241783328,-0.04991772985091507
9.40000000000023,0.4437007464729576,-0.07117596963662459
9.600000000000119,0.5057392922194746,-0.09153054884225524
9.800000000000008,0.570770147480766,-0.11732235577428783
10.000999999999896,0.633959637868563,-0.14223286567379764
10.200999999999786,0.6933193836879208,-0.16865903937210935
10.400999999999675,0.7418946619922938,-0.1828280143781785
10.600999999999564,0.772731158194835,-0.2075228257050577
10.800999999999453,0.7880809228367455,-0.2447147065316939
11.000999999999342,0.7772457476441588,-0.2832274781095956
11.200999999999231,0.7550324792487128,-0.33537844157129443
11.40099999999912,0.732428671190046,-0.3904988910023216
11.60099999999901,0.7150829751681487,-0.4453023003151878
11.800999999998899,0.6928951663683887,-0.5012403678361749
12.000999999998788,0.6565436320939575,-0.5567344194139335
12.200999999998677,0.5936057957547011,-0.5866133999388793
12.400999999998566,0.532614256569785,-0.5923425187610334
12.600999999998455,0.4740338001562135,-0.5852496123985998
12.800999999998345,0.4222593455788803,-0.5781749685885716
13.000999999998234,0.37073423505205133,-0.5672521488545795
13.200999999998123,0.31453546252113085,-0.5519067289003106
13.400999999998012,0.24751978894080123,-0.5118510767355842
13.600999999997901,0.18682901811231573,-0.4681766352961122
13.80099999999779,0.1572602081628376,-0.4073436741526299
14.00099999999768,0.15002983747657184,-0.348514321878096
14.200999999997569,0.152179684789942,-0.29948011359581167
14.400999999997458,0.1686853465665105,-0.24231159652294612
14.600999999997347,0.18953034684301343,-0.18306427410385823
14.800999999997236,0.2229244727969096,-0.12215319143396985
15.000999999997125,0.25329432899422244,-0.063895284931018
15.200999999997014,0.28942436455441173,-0.019548398562328963
15.400999999996904,0.3440356830104618,0.009071463452109435
15.600999999996793,0.3907933124905738,0.018924378084284835
15.800999999996682,0.43898796093289144,0.017636137887389793
16.000999999996573,0.49688424369503564,0.0020099794582960863
16.200999999996817,0.5541455408944205,-0.019111065627189953
16.40099999999706,0.60804742297316,-0.04454149313240297
16.600999999997306,0.649786831603497,-0.07951157551522403
16.80099999999755,0.6691116847489369,-0.1275109583953729
17.000999999997795,0.6707586373696867,-0.18271544766842787
17.20099999999804,0.6638275783007166,-0.2374417503158445
17.400999999998284,0.6514377593795828,-0.29133202400669633
17.60099999999853,0.6302806592590855,-0.35244416165188336
17.800999999998773,0.5994897335529283,-0.4176385181432687
18.000999999999017,0.5728085258171605,-0.47865168784287626
18.20099999999926,0.5364385586852403,-0.5233299900944405
18.400999999999506,0.4979537467555469,-0.5494306016743755
18.60099999999975,0.4666438305578808,-0.5553875672149399
18.799999999999994,0.42256871918661587,-0.547652676221571
19.000000000000238,0.36912161313995434,-0.5257433403322412
19.200000000000482,0.31649329706962087,-0.5044366289946254
19.400000000000727,0.25757388077057636,-0.48276363240844467
19.60000000000097,0.196549126611387,-0.4558781206254343
19.800000000001216,0.1329651216592263,-0.42541865006290275
20.00000000000146,0.06891649413106671,-0.382772276155766
