Time (s),X (m),Y (m)
0.001,0.0008115346074009382,-0.0008446836120385868
0.20000000000000015,0.00021158407745434324,0.0012455558341575642
0.4000000000000003,0.003382315966223026,-0.0029229429558442557
0.6000000000000004,0.014567403884020471,-0.008890649138155758
0.8000000000000006,0.030789048777659533,-0.01293725112910319
1.0000000000000007,0.04803421552771969,-0.0060937266191111936
1.2009999999999785,0.05996553242252708,0.008465294561554513
1.4009999999999565,0.07855110698738722,0.005489505544941362
1.6009999999999345,0.09804092617690295,0.001710005256895679
1.8009999999999124,0.11612971407431366,-0.006973149801637667
2.0009999999998906,0.13771750808259062,-0.013795458212384582
2.2009999999998686,0.15686564529854163,-0.01780476419879767
2.4009999999998466,0.18120656042566285,-0.028702809421602155
2.6009999999998246,0.20314066530498226,-0.02251545818451239
2.8009999999998025,0.219084211359041,-0.02359912675345513
3.0009999999997805,0.22944101785719911,-0.036013764295192006
3.2009999999997585,0.23466401553918323,-0.05344994877308719
3.4009999999997365,0.2430554244304495,-0.07800435343860913
3.6009999999997144,0.25509762590708124,-0.09282373430569459
3.8009999999996924,0.2653131066793247,-0.1146619324251557
4.000999999999671,0.2732562049832943,-0.13262791131148588
4.200999999999738,0.2842642672711372,-0.1525532261874873
4.400999999999804,0.2948881763885793,-0.1743596062386678
4.600999999999871,0.30850520061842235,-0.1882868198965169
4.800999999999938,0.31358336954716437,-0.21691055519659874
5.000000000000004,0.3145364153497861,-0.2501204824839828
5.200000000000071,0.31777663777298654,-0.26747484728821913
5.400000000000138,0.3241507282929257,-0.2940205695144864
5.600000000000205,0.33297597473401663,-0.3181973150372643
5.800000000000272,0.3488179599860327,-0.3339993577458266
6.000000000000338,0.36266649179863875,-0.349141764842718
6.200000000000405,0.36839041665981104,-0.3749652959164082
6.400000000000472,0.3737379394652577,-0.3935641776451485
6.600000000000539,0.38272183211426425,-0.4154618410324011
6.800000000000606,0.3981938917731658,-0.4318403913681379
7.000000000000672,0.40527139042565763,-0.4521706397638713
7.200000000000739,0.4232317500783431,-0.4628641459704099
7.400000000000806,0.43519416648221876,-0.4774138213344278
7.600000000000873,0.44366249500247795,-0.497224771062798
7.8000000000009395,0.4592809610361439,-0.5090738502682165
8.000000000001005,0.46652346664164757,-0.5360345592845134
8.200000000000895,0.47364355038833406,-0.5527421743685338
8.400000000000784,0.48877546395250887,-0.5685754412950967
8.600000000000673,0.49776015266049417,-0.5841265852445903
8.800000000000562,0.5110050182359779,-0.6044353132352619
9.000000000000451,0.5224384607830048,-0.6248137649929237
9.20000000000034,0.5236942277840609,-0.6457470175465906
9.40000000000023,0.5239687543996341,-0.67278125621224
9.600000000000119,0.5265691967916535,-0.6999595350426341
9.800000000000008,0.5345750218069999,-0.7297370453053811
10.000999999999896,0.5491019487578593,-0.7582622380015428
10.200999999999786,0.5560267822315225,-0.7886136634505437
10.400999999999675,0.5717620527513492,-0.818543449549243
10.600999999999564,0.5780683117292246,-0.8479089691604259
10.800999999999453,0.5824265086461254,-0.8799784734295101
11.000999999999342,0.5867485267663383,-0.903757699526808
11.200999999999231,0.5884659119847305,-0.9338493522490032
11.40099999999912,0.6005990097700897,-0.9587185301984733
11.60099999999901,0.6088999243452549,-0.9809445186819018
11.800999999998899,0.6043598160376772,-1.0057426864038044
12.000999999998788,0.6054870640382916,-1.032124997025321
12.200999999998677,0.6081598249450026,-1.0582418100158655
12.400999999998566,0.6143762815880938,-1.084424073347585
12.600999999998455,0.6320887870885143,-1.1055986155443238
12.800999999998345,0.6478455692349654,-1.1279871020587329
13.000999999998234,0.6520037091513642,-1.154264753567139
13.200999999998123,0.6638009469850256,-1.1769918874202465
13.400999999998012,0.6782807767302581,-1.1972144989660178
13.600999999997901,0.6890207922351541,-1.2238799149364843
13.80099999999779,0.7067424403031843,-1.2540728302850788
14.00099999999768,0.7188826339914477,-1.284924094202146
14.200999999997569,0.7221326561638519,-1.314567346236405
14.400999999997458,0.733924222865622,-1.3336152293686458
14.600999999997347,0.7480936366785372,-1.3604956367942211
14.800999999997236,0.7623101000656725,-1.3824454341084431
15.000999999997125,0.7698603620744118,-1.4108609731535886
15.200999999997014,0.7809513212682739,-1.4382120294348952
15.400999999996904,0.7821124887692504,-1.4757434639085323
15.600999999996793,0.776461211742928,-1.5102796072316838
15.800999999996682,0.7840654082603025,-1.5399353802500613
16.000999999996573,0.7815205104526116,-1.5736729644302332
16.200999999996817,0.78226188707046,-1.6049406323539643
16.40099999999706,0.7865070844328669,-1.6373715688014499
16.600999999997306,0.7919426091846531,-1.6693458972713282
16.80099999999755,0.796008818079886,-1.7000029198769446
17.000999999997795,0.8065782748396912,-1.7300298615960896
17.20099999999804,0.8147521271976853,-1.7540482997120472
17.400999999998284,0.8205012262568018,-1.7777111159544028
17.60099999999853,0.81520233162611,-1.8099136783471002
17.800999999998773,0.8077995749356536,-1.843839995223091
18.000999999999017,0.8019147500611987,-1.8740077211373993
18.20099999999926,0.811788964719736,-1.902498039847667
18.400999999999506,0.8094141802143368,-1.9222044928775124
18.60099999999975,0.8065395496042804,-1.9471197388231969
18.799999999999994,0.7963631760541608,-1.9767803035217175
19.000000000000238,0.7858704289270613,-2.0073890176581353
19.200000000000482,0.7662891052838636,-2.0277332008434183
19.400000000000727,0.737933380481164,-2.0406471174562713
19.60000000000097,0.7137230449837942,-2.0599433504548337
19.800000000001216,0.7020305107285397,-2.0804634181570365
20.00000000000146,0.6874460581478175,-2.1000589326467534
