Time (s),X (m),Y (m)
0.001,-0.000811087514270633,3.327365771613117e-19
0.20000000000000015,0.00012098377844204423,5.7978165580883734e-05
0.4000000000000003,0.0012090629120515054,0.00034279369907908947
0.6000000000000004,0.00537454855895589,0.003811352630616024
0.8000000000000006,0.01976172650435726,0.0044686964547348915
1.0000000000000007,0.03836426714675278,0.0042131204079425425
1.2009999999999785,0.06252952214064893,-0.004806766803016659
1.4009999999999565,0.08866029728380469,-0.02561371853604599
1.6009999999999345,0.1119470374967137,-0.05383434561122317
1.8009999999999124,0.12961107035511396,-0.0737829261671976
2.0009999999998906,0.13317655704458972,-0.09836719733372117
2.2009999999998686,0.1227190356689356,-0.13341621622661615
2.4009999999998466,0.10900847475884755,-0.16384248838936452
2.6009999999998246,0.0900622230452942,-0.1994599228641134
2.8009999999998025,0.06513412289402748,-0.23679758853496788
3.0009999999997805,0.04191146125787879,-0.2763885526549469
3.2009999999997585,0.01918195641158104,-0.3064860278664604
3.4009999999997365,-0.02168233674379125,-0.3172986888801809
3.6009999999997144,-0.05807700218451306,-0.31212279128935994
3.8009999999996924,-0.09479700403744769,-0.2939040467284295
4.000999999999671,-0.1370448234638381,-0.26432253268637035
4.200999999999738,-0.18277690013748263,-0.23021408073887425
4.400999999999804,-0.23308506463842088,-0.18371296382082514
4.600999999999871,-0.26914835951566113,-0.13401363544050712
4.800999999999938,-0.2826095287953311,-0.08817399039481183
5.000000000000004,-0.2738381056582178,-0.029587436620655407
5.200000000000071,-0.2565530804496579,0.023516537187539502
5.400000000000138,-0.23393839872261146,0.0710750892832152
5.600000000000205,-0.2086055079092084,0.11146424314680377
5.800000000000272,-0.17835249165738676,0.14262319674297386
6.000000000000338,-0.14506481872847551,0.16608346153517833
6.200000000000405,-0.10959938099247295,0.17846089744549834
6.400000000000472,-0.06604450366911564,0.17314938582489037
6.600000000000539,-0.01935156868747078,0.156089733753134
6.800000000000606,0.02810678664124156,0.11756415810784887
7.000000000000672,0.06591352604798657,0.0786615886505945
7.200000000000739,0.08367216784942505,0.03873099915683945
7.400000000000806,0.08120956930178232,-0.010886064850055117
7.600000000000873,0.05479471269533157,-0.07564206923148137
7.8000000000009395,0.01696918838839366,-0.13445975611389396
8.000000000001005,-0.029324792252689517,-0.18174064910797932
8.200000000000895,-0.08717906624369201,-0.20900494297226213
8.400000000000784,-0.139917091282133,-0.21531102056222784
8.600000000000673,-0.18580493715419247,-0.20234397455913763
8.800000000000562,-0.23625387418050403,-0.17426937147228022
9.000000000000451,-0.29664980048061695,-0.142289897948076
9.20000000000034,-0.3624144919575169,-0.10358363563215263
9.40000000000023,-0.42810564085812836,-0.05368127254189703
9.600000000000119,-0.47320016134964027,0.005186061176145166
9.800000000000008,-0.47864027017596317,0.06919146114645135
10.000999999999896,-0.463490930407153,0.12187975319771259
10.200999999999786,-0.4362504296097469,0.17431209818535365
10.400999999999675,-0.3986219600864117,0.23384566983551186
10.600999999999564,-0.3576289059148941,0.294681047008626
10.800999999999453,-0.3086206253070603,0.35867097142350884
11.000999999999342,-0.2546423846793945,0.41192638363100226
11.200999999999231,-0.18775569457291846,0.44153321320002875
11.40099999999912,-0.12533635347037045,0.44064107067282315
11.60099999999901,-0.06426154898304556,0.4143888924648943
11.800999999998899,-0.016459138676036884,0.374604777459558
12.000999999998788,0.0026829258518185455,0.3264537405141649
12.200999999998677,-0.0042348481586511055,0.2719562214381121
12.400999999998566,-0.025720920762602826,0.21281509520621902
12.600999999998455,-0.053379772566461536,0.1494887282802239
12.800999999998345,-0.0873746059695868,0.07835585921934873
13.000999999998234,-0.12455256444127565,0.012189342873484353
13.200999999998123,-0.16075693054728404,-0.053903583126271956
13.400999999998012,-0.2044163810770254,-0.12181351277963975
13.600999999997901,-0.25812125960167903,-0.18281715780213836
13.80099999999779,-0.31896845777400956,-0.22516244057464638
14.00099999999768,-0.37957186577618923,-0.23829055706051067
14.200999999997569,-0.43993256356432003,-0.2336623591252936
14.400999999997458,-0.5054615303430988,-0.2182676045297157
14.600999999997347,-0.5734554929974734,-0.1946797266892414
14.800999999997236,-0.6436258802649991,-0.16014076737307212
15.000999999997125,-0.7159803949473075,-0.11302499522882549
15.200999999997014,-0.7785264905133736,-0.06085106312179262
15.400999999996904,-0.8103681232840654,-0.008078949560282734
15.600999999996793,-0.8135236387244462,0.04266805531783485
15.800999999996682,-0.7911496086672123,0.10560548461129114
16.000999999996573,-0.7546367601319645,0.1714899674430821
16.200999999996817,-0.716537012755922,0.23189945728088576
16.40099999999706,-0.673421122827464,0.2916293170797875
16.600999999997306,-0.6448102626420623,0.3410611647824029
16.80099999999755,-0.6028046617488247,0.3783815337114037
17.000999999997795,-0.5437938330519916,0.4009845103547659
17.20099999999804,-0.4841352589293067,0.41483790749996735
17.400999999998284,-0.4311468004655059,0.4249443430806909
17.60099999999853,-0.37346860400734005,0.40960973945520635
17.800999999998773,-0.31547823780070144,0.3821412564570863
18.000999999999017,-0.2688014813933018,0.3432018610744686
18.20099999999926,-0.2430835994749753,0.2987031897224703
18.400999999999506,-0.24369442079218023,0.24528308513930966
18.60099999999975,-0.2688391280033633,0.18968471307401702
18.799999999999994,-0.3034847184323169,0.1565991840838572
19.000000000000238,-0.3501504720108939,0.14790720898094709
19.200000000000482,-0.4062945954064969,0.1571887431979149
19.400000000000727,-0.4684186715118717,0.1797956129298498
19.60000000000097,-0.5321635321382209,0.2113991868482346
19.800000000001216,-0.5886169296109053,0.24337353937990575
20.00000000000146,-0.6410548657587747,0.2796686619429223
