Time (s),X (m),Y (m)
0.001,-0.0003713730577023104,0.0008446836120385872
0.20000000000000015,0.00377039411821663,-0.0033110026423030536
0.4000000000000003,0.01065438370049492,-0.0035534262119809898
0.6000000000000004,0.023272380186661255,-0.0070043998922637105
0.8000000000000006,0.03956510068732323,-0.01274709235858962
1.0000000000000007,0.05840504207182779,-0.015706352915765536
1.2009999999999785,0.0776427648327684,-0.007405923438442204
1.4009999999999565,0.09679256089934526,0.008604126862643956
1.6009999999999345,0.10960514990926068,0.007816352387704796
1.8009999999999124,0.13080888367008728,0.008219588106630118
2.0009999999998906,0.14930024111502146,0.017179874268513882
2.2009999999998686,0.1729988600729132,0.007988585351036505
2.4009999999998466,0.19106718184596727,-0.0082960694655152
2.6009999999998246,0.20662148792715515,-0.020226399711345464
2.8009999999998025,0.22117127095916905,-0.019398410211498178
3.0009999999997805,0.23518623752992987,-0.02341698737844211
3.2009999999997585,0.2533673756236098,-0.03472341542218902
3.4009999999997365,0.27212386382840387,-0.05138496015339657
3.6009999999997144,0.28448449590808783,-0.0637980529605401
3.8009999999996924,0.2991063429455832,-0.07497016219492397
4.000999999999671,0.3086515941809656,-0.09480717958618883
4.200999999999738,0.316169104717475,-0.11659806655836712
4.400999999999804,0.3257830004252657,-0.13132130960230654
4.600999999999871,0.33555067979514047,-0.13821139072528446
4.800999999999938,0.3470878960503545,-0.15101057677548752
5.000000000000004,0.35376870550321116,-0.1737759609741983
5.200000000000071,0.3590047014276494,-0.19309023288077853
5.400000000000138,0.36219656222634494,-0.20740907080151508
5.600000000000205,0.3709969961796129,-0.23426001663017726
5.800000000000272,0.37705567430036463,-0.2587535853063001
6.000000000000338,0.39166671231817873,-0.28003978169146004
6.200000000000405,0.4052107884336751,-0.2925045491413206
6.400000000000472,0.4086157461431454,-0.31214772782801403
6.600000000000539,0.41126144552372834,-0.33061557928452157
6.800000000000606,0.414130768779752,-0.3490996801196761
7.000000000000672,0.4342954258503108,-0.36274320212875766
7.200000000000739,0.445945589818155,-0.37393892638035986
7.400000000000806,0.4498156597892793,-0.39214660621937025
7.600000000000873,0.45328788841861284,-0.41563987285894083
7.8000000000009395,0.4630173404660595,-0.44092434222069454
8.000000000001005,0.4693571880898203,-0.4698200926871773
8.200000000000895,0.4807320735717465,-0.49098878410115426
8.400000000000784,0.4903224994828786,-0.5158766215309581
8.600000000000673,0.4901632514954102,-0.5368206112559588
8.800000000000562,0.5001563410194012,-0.5586438314498561
9.000000000000451,0.5068032458136564,-0.5780089458522166
9.20000000000034,0.5159690990748877,-0.5970670302917025
9.40000000000023,0.5222504195864645,-0.6188093766204934
9.600000000000119,0.5275169762187271,-0.6492367306712556
9.800000000000008,0.5413983350010393,-0.6711675887742881
10.000999999999896,0.5534113807427175,-0.6932731211640073
10.200999999999786,0.5531338767908874,-0.7179905190353421
10.400999999999675,0.5487386877518016,-0.7499199013403413
10.600999999999564,0.5563630489278562,-0.7831180748659964
10.800999999999453,0.5794353216569929,-0.802609587349937
11.000999999999342,0.5948926223732568,-0.8249908599173488
11.200999999999231,0.5963192053375969,-0.8513668558506752
11.40099999999912,0.5948985237707879,-0.8798155941416329
11.60099999999901,0.5986528553101502,-0.8993720808016538
11.800999999998899,0.5961341261209524,-0.9213214824849867
12.000999999998788,0.5955184020417527,-0.9428557853670292
12.200999999998677,0.5801050318290499,-0.9631426664179565
12.400999999998566,0.5718594972436588,-0.9820833279227495
12.600999999998455,0.5498049677800165,-1.0027549796175907
12.800999999998345,0.5338763142515354,-1.02679877780199
13.000999999998234,0.513221688644747,-1.0456410511062806
13.200999999998123,0.4865438688771946,-1.0595264626480099
13.400999999998012,0.47709826740929595,-1.077508728254077
13.600999999997901,0.46410981234381854,-1.089272853987048
13.80099999999779,0.45669585815412944,-1.1021525881098047
14.00099999999768,0.45030297969918004,-1.114790922353046
14.200999999997569,0.4333219294534552,-1.1209397836383008
14.400999999997458,0.4135927277812946,-1.1252386393854579
14.600999999997347,0.3877194269998938,-1.1332345668866965
14.800999999997236,0.3662397570932561,-1.144872420820967
15.000999999997125,0.338050659612998,-1.1522868595634697
15.200999999997014,0.31471480493167975,-1.1656039277395362
15.400999999996904,0.2897953350446255,-1.178577647430555
15.600999999996793,0.2724994824821332,-1.1872841698905878
15.800999999996682,0.25451680291552004,-1.1994469186565928
16.000999999996573,0.2304722734473174,-1.2099378707132782
16.200999999996817,0.20403733151843914,-1.2128628223708586
16.40099999999706,0.17708813702963522,-1.2128780959121852
16.600999999997306,0.14980081257419633,-1.2111043096954919
16.80099999999755,0.12143014203597748,-1.212901175196048
17.000999999997795,0.08789812406392626,-1.2181957820039078
17.20099999999804,0.06516921053155528,-1.2249961223444095
17.400999999998284,0.04243396295188151,-1.2215983429604131
17.60099999999853,0.01730508464084421,-1.2196390689688548
17.800999999998773,-0.005215665406770137,-1.2269853819779866
18.000999999999017,-0.03371287227811691,-1.2351312382323976
18.20099999999926,-0.06821045932043264,-1.228458664111664
18.400999999999506,-0.09902293545379068,-1.2208126516431925
18.60099999999975,-0.12723349556861835,-1.2128615020478106
18.799999999999994,-0.15483920005705454,-1.2091136382712573
19.000000000000238,-0.18263182430023078,-1.1955127028787587
19.200000000000482,-0.21707827797950907,-1.1960040951768862
19.400000000000727,-0.24470951240870406,-1.2037284398948347
19.60000000000097,-0.2720068922828472,-1.1986780643907033
19.800000000001216,-0.29353692151176514,-1.185886945493454
20.00000000000146,-0.31469715222985106,-1.1760965727726092
