Time (s),X (m),Y (m)
0.001,-0.0007144750753253542,0.00043579054991000265
0.20000000000000015,0.0037659515755145874,-0.0019304974601675785
0.4000000000000003,0.004974565649621585,-0.004007851303254506
0.6000000000000004,0.004742574941900119,0.0007092622466878467
0.8000000000000006,0.008002850708274034,-0.004281908819289883
1.0000000000000007,0.008210799722699594,-0.00405893845068457
1.2009999999999785,0.017773136906473974,-0.0065259188218674885
1.4009999999999565,0.027585754858655113,-0.007885162812528443
1.6009999999999345,0.03986285195526432,-0.003935476254493738
1.8009999999999124,0.057414535188719376,-0.002205898285932339
2.0009999999998906,0.0692466784149217,-0.0008471507128150314
2.2009999999998686,0.08321313040582229,-0.001098408641024219
2.4009999999998466,0.10595947514265507,-0.0023053315778605206
2.6009999999998246,0.12422896544246245,-0.00463871704983826
2.8009999999998025,0.13901528581144554,-0.0029232348798042475
3.0009999999997805,0.14712299068946927,-0.004016127704655537
3.2009999999997585,0.16113016539231995,-0.00824944351024297
3.4009999999997365,0.17576899422998624,-0.013501303831815666
3.6009999999997144,0.19678509927150822,-0.017675612985509122
3.8009999999996924,0.22420292315257692,-0.029033545842234682
4.000999999999671,0.2424931238261772,-0.03418666468933581
4.200999999999738,0.2644027432176363,-0.034482730026796755
4.400999999999804,0.2825890252895194,-0.03520599868084962
4.600999999999871,0.3035266687324804,-0.0423122063919119
4.800999999999938,0.3215932912129911,-0.050116134378428
5.000000000000004,0.3354277404630287,-0.05366953538522652
5.200000000000071,0.35014669637314005,-0.05619554588096195
5.400000000000138,0.3661104695370301,-0.06262199566501822
5.600000000000205,0.3745496239792896,-0.06566911949303891
5.800000000000272,0.38764075535549686,-0.06985447995503805
6.000000000000338,0.40715156399439006,-0.07103647457581795
6.200000000000405,0.42467129586931873,-0.07220692835463105
6.400000000000472,0.4500605661081258,-0.0727428366296843
6.600000000000539,0.4678633851807552,-0.07589788893023837
6.800000000000606,0.48374384962944733,-0.0777321181578461
7.000000000000672,0.501975067396678,-0.08249260332930244
7.200000000000739,0.5257305332997548,-0.09476632916458075
7.400000000000806,0.5484806337581124,-0.0992526701623532
7.600000000000873,0.5702945774275183,-0.09927339497730989
7.8000000000009395,0.5968642826220657,-0.10615948450942382
8.000000000001005,0.6206265356340573,-0.11739850000438884
8.200000000000895,0.6392926076991745,-0.12464572689328024
8.400000000000784,0.6626184152042613,-0.13618232749227954
8.600000000000673,0.6905509895721154,-0.14703061430976072
8.800000000000562,0.7133766868017054,-0.1531502501021903
9.000000000000451,0.7352043339970393,-0.15710367744750262
9.20000000000034,0.7616369202172377,-0.16715337324866136
9.40000000000023,0.7842083635387053,-0.17476254342984215
9.600000000000119,0.8132490875898479,-0.18619163426735055
9.800000000000008,0.8350153104514334,-0.19254947369654338
10.000999999999896,0.8614817009739624,-0.20245525307040882
10.200999999999786,0.8850435517225534,-0.21249873702848163
10.400999999999675,0.9063153937738225,-0.22336761525552642
10.600999999999564,0.9248848033817992,-0.23037705934730587
10.800999999999453,0.9419697793860373,-0.2423352189753865
11.000999999999342,0.9621722430059478,-0.2604542570096472
11.200999999999231,0.9793026644267805,-0.26928435552307395
11.40099999999912,0.9965680308953874,-0.28190891508898913
11.60099999999901,1.0166972299518806,-0.29972851104962356
11.800999999998899,1.0306646815717921,-0.3138169348518465
12.000999999998788,1.0413066940143365,-0.32267737331816926
12.200999999998677,1.0499930975059057,-0.3391778662936563
12.400999999998566,1.0612100498336678,-0.3585015828112227
12.600999999998455,1.0708428901564528,-0.3752770402638923
12.800999999998345,1.078028374312139,-0.395984278504103
13.000999999998234,1.0819944490486442,-0.41083832429401357
13.200999999998123,1.0828142750041252,-0.4218283868502575
13.400999999998012,1.082162730355416,-0.4343098950557577
13.600999999997901,1.0784959729037604,-0.4586824210912796
13.80099999999779,1.0789245067640538,-0.4748726128746546
14.00099999999768,1.0778921812441467,-0.4968905407421823
14.200999999997569,1.0707776041478247,-0.5217706435803745
14.400999999997458,1.0664678336722124,-0.5468386810751481
14.600999999997347,1.0654445541461306,-0.5668875604216278
14.800999999997236,1.0649372664689785,-0.5846048022563326
15.000999999997125,1.063086736339966,-0.6038514535165599
15.200999999997014,1.061474807530046,-0.6280218035718896
15.400999999996904,1.0579425152465056,-0.6510852768189864
15.600999999996793,1.0513754526446182,-0.676503686466825
15.800999999996682,1.0448503562348013,-0.6995409785845442
16.000999999996573,1.0383459469341536,-0.7318459397282612
16.200999999996817,1.030623863508754,-0.7545660210815396
16.40099999999706,1.0230527917390542,-0.7712561413027073
16.600999999997306,1.0134724375764406,-0.7962186574085297
16.80099999999755,1.0017599157731396,-0.8249817431224661
17.000999999997795,0.992795936769277,-0.8485186921056932
17.20099999999804,0.9864159795497682,-0.8699487276358585
17.400999999998284,0.983496612008414,-0.8868624499742275
17.60099999999853,0.9825926879281482,-0.9132376488547879
17.800999999998773,0.9742441819370175,-0.9440426526570589
18.000999999999017,0.9621974776445253,-0.9701285954422066
18.20099999999926,0.9505425924023124,-0.9909532584675376
18.400999999999506,0.9379139381247404,-1.013986059261053
18.60099999999975,0.9226321254985973,-1.0388860178380321
18.799999999999994,0.9092946551983525,-1.0595922925318
19.000000000000238,0.8990458912504233,-1.0824895315635563
19.200000000000482,0.8902139547575827,-1.1053226953809496
19.400000000000727,0.8750527411957744,-1.1221260189294822
19.60000000000097,0.8528590497207548,-1.1379660297446978
19.800000000001216,0.8297135759385249,-1.1486501996488245
20.00000000000146,0.8109027908432581,-1.153114592358636
