Time (s),X (m),Y (m)
0.001,0.00048696676677933824,0.00099603208171127
0.20000000000000015,0.000505093449186676,-0.0045086895796721035
0.4000000000000003,0.00609831989468309,-0.001929277580000055
0.6000000000000004,0.015175565922228653,-0.004259552884156358
0.8000000000000006,0.02749617503101061,0.0015609323558726878
1.0000000000000007,0.04145663999454118,-0.006359551205464391
1.2009999999999785,0.05770768664807912,-0.007258155882709203
1.4009999999999565,0.07468066989914024,-0.0051154812257732316
1.6009999999999345,0.09605052590941737,-0.003631438170219266
1.8009999999999124,0.1247726530696557,-0.014769340923254985
2.0009999999998906,0.14763533842804233,-0.026065195741390802
2.2009999999998686,0.166397056122389,-0.03262675118090934
2.4009999999998466,0.19539466926128526,-0.0351042374818858
2.6009999999998246,0.22192542287901112,-0.04356408466011245
2.8009999999998025,0.2468637952106326,-0.04482792788442173
3.0009999999997805,0.2723887102410787,-0.052698949526469786
3.2009999999997585,0.29461079147997715,-0.05907863179118765
3.4009999999997365,0.32295833949670816,-0.07028288177491789
3.6009999999997144,0.3501025359505762,-0.0854690398416528
3.8009999999996924,0.36890332332499387,-0.08647533406380237
4.000999999999671,0.39586560235528984,-0.07523013467036395
4.200999999999738,0.4292843183169916,-0.06497015640533245
4.400999999999804,0.45794856872313117,-0.07566414968849954
4.600999999999871,0.4854209789589051,-0.078865511073454
4.800999999999938,0.5120341920264865,-0.07850748569422916
5.000000000000004,0.5369287197861388,-0.08565791064646856
5.200000000000071,0.5654327835644224,-0.081783753737139
5.400000000000138,0.5972389310686268,-0.07117779319713284
5.600000000000205,0.6317323972043605,-0.06831975301305444
5.800000000000272,0.6644977332009746,-0.07082767584598818
6.000000000000338,0.6936133477185312,-0.06444559133327084
6.200000000000405,0.718111125132789,-0.06368080087845998
6.400000000000472,0.7434661105716615,-0.061854468187158465
6.600000000000539,0.7727318401629375,-0.06325681405361638
6.800000000000606,0.8015639174577421,-0.05493135841940109
7.000000000000672,0.8358727121921807,-0.05645227208187461
7.200000000000739,0.8705502592012492,-0.06816988502086857
7.400000000000806,0.8998712742186121,-0.07241075800153103
7.600000000000873,0.9302811221830347,-0.07604797246598992
7.8000000000009395,0.9638684401549384,-0.07274100431541257
8.000000000001005,0.9938002270295706,-0.07554398907910023
8.200000000000895,1.017020705413855,-0.08345180691141883
8.400000000000784,1.048044619349402,-0.08921338918775497
8.600000000000673,1.076708847169419,-0.10756009463636727
8.800000000000562,1.1052011447660124,-0.11654661706657361
9.000000000000451,1.1350023815466175,-0.11995412612306201
9.20000000000034,1.167925761509768,-0.1285386124527552
9.40000000000023,1.1980323611803863,-0.13308700163084441
9.600000000000119,1.2308401840670533,-0.1367517053644574
9.800000000000008,1.2567471501143492,-0.1461246346575395
10.000999999999896,1.2867755907656289,-0.15290574681089453
10.200999999999786,1.3178169601467695,-0.15170309457445574
10.400999999999675,1.34566005272543,-0.1514380247166473
10.600999999999564,1.3764547033756402,-0.14519178323204804
10.800999999999453,1.414210850972527,-0.13924268331219297
11.000999999999342,1.4467533198790654,-0.13662679742451092
11.200999999999231,1.4763148809179232,-0.12735625605329778
11.40099999999912,1.5117553511062798,-0.11203969624887229
11.60099999999901,1.5434497166719348,-0.11160872084973827
11.800999999998899,1.5739139859804736,-0.09907513391176961
12.000999999998788,1.6011352604878182,-0.09269388896312572
12.200999999998677,1.631511728941197,-0.08339669485193303
12.400999999998566,1.6616380469970173,-0.07622344753363251
12.600999999998455,1.6956876718968248,-0.0757193030143808
12.800999999998345,1.7234227953710122,-0.07621245802975671
13.000999999998234,1.7583727508879177,-0.08341986491050725
13.200999999998123,1.79381605383488,-0.061122909343593844
13.400999999998012,1.827017344230421,-0.047441926424425566
13.600999999997901,1.85559007481275,-0.030355504369820808
13.80099999999779,1.8860648775456792,-0.015922631006514
14.00099999999768,1.9145365912568308,0.004727956135024348
14.200999999997569,1.9505901910196752,0.008019066328324642
14.400999999997458,1.9858474666105375,0.006542639799455306
14.600999999997347,2.0201214576371287,0.016673580053583534
14.800999999997236,2.0529594871218904,0.023730487241033712
15.000999999997125,2.0875964496577732,0.03462004022533243
15.200999999997014,2.1191497433291295,0.03780979388314587
15.400999999996904,2.148866135429044,0.028924811612588423
15.600999999996793,2.1786573572480594,0.03534948417687337
15.800999999996682,2.208720894217192,0.04429075215470325
16.000999999996573,2.2382290391385258,0.05691758829734483
16.200999999996817,2.272160922350968,0.05296276795192456
16.40099999999706,2.3056716380813644,0.04165263597960641
16.600999999997306,2.3419380752257837,0.05133158852668323
16.80099999999755,2.3720628309268776,0.04865555845126693
17.000999999997795,2.401015942485409,0.04711314227605689
17.20099999999804,2.430764235850355,0.04812244058383493
17.400999999998284,2.4688378253314363,0.06045298789633762
17.60099999999853,2.5083211043545943,0.07140212041450181
17.800999999998773,2.536396094671185,0.07008394354810801
18.000999999999017,2.5685760929834287,0.07977883129019729
18.20099999999926,2.604068778697707,0.09374530101420925
18.400999999999506,2.635585747793547,0.09943889974820165
18.60099999999975,2.674246451305442,0.10981088634915899
18.799999999999994,2.7107725447557116,0.10936592732010542
19.000000000000238,2.7430662561695422,0.11103750271138277
19.200000000000482,2.7739500892215045,0.12296027295939675
19.400000000000727,2.799530320527526,0.12268540952141914
19.60000000000097,2.8251712346177578,0.12606179845228246
19.800000000001216,2.857009618018462,0.13245789963153348
20.00000000000146,2.886470818305313,0.13658257377823627
