Time (s),X (m),Y (m)
0.001,0.0011890620069237587,0.00035268032603768894
0.20000000000000015,0.006505447210219961,0.002062671536029538
0.4000000000000003,0.005550831205175751,0.0021151697081745577
0.6000000000000004,0.0037878043704828077,0.0013983945459751877
0.8000000000000006,0.005231654637724214,0.002745892861643075
1.0000000000000007,0.005584889115860151,0.0009878679920324338
1.2009999999999785,0.010938036917203173,0.0012361533864117954
1.4009999999999565,0.015856381638505803,0.0020037013426784747
1.6009999999999345,0.019427973000855615,0.0012385395696300854
1.8009999999999124,0.02263746540898474,0.0015752351885248963
2.0009999999998906,0.02851475724572806,0.0033080171206009423
2.2009999999998686,0.03352119802429186,0.003816794125325062
2.4009999999998466,0.03928055694683388,0.0038942253910070404
2.6009999999998246,0.04678757085959591,0.0064700505978211
2.8009999999998025,0.0530416187133023,0.006801152468157224
3.0009999999997805,0.06003926554104556,0.009608292790444862
3.2009999999997585,0.06767163230971625,0.011248776060949341
3.4009999999997365,0.07156014129019436,0.012785383992210148
3.6009999999997144,0.07572429276920928,0.012757839492804925
3.8009999999996924,0.07677302969850928,0.013677832376402781
4.000999999999671,0.08073673020571634,0.016543338280773447
4.200999999999738,0.08786416532511189,0.019820332143667806
4.400999999999804,0.09436239501401027,0.020849570874585926
4.600999999999871,0.10127683447595974,0.023780783228244402
4.800999999999938,0.10496967265519876,0.02489498754928669
5.000000000000004,0.11130428708439243,0.027581531065930198
5.200000000000071,0.11663512565790114,0.02934337011568789
5.400000000000138,0.12096947764378117,0.032105479941457335
5.600000000000205,0.12626407462116943,0.03382314274111043
5.800000000000272,0.13135181401314733,0.035453752263469855
6.000000000000338,0.13823918193042067,0.037546664879782365
6.200000000000405,0.14473303409006555,0.0384408299674127
6.400000000000472,0.15175132510741338,0.04034724680523781
6.600000000000539,0.15749755020492182,0.04181299364826433
6.800000000000606,0.16091764948251386,0.04315383474689141
7.000000000000672,0.16815664007507788,0.044145494445231324
7.200000000000739,0.17429971691575216,0.04455909725543829
7.400000000000806,0.18162448760339595,0.04580932128687223
7.600000000000873,0.18676124069672434,0.04729192162162342
7.8000000000009395,0.18963148304640218,0.04852020744328132
8.000000000001005,0.19560731246104812,0.04904302667906671
8.200000000000895,0.20041504871282698,0.047954646745781766
8.400000000000784,0.2074338292750088,0.049053142177003455
8.600000000000673,0.21207469528065143,0.04940800829702387
8.800000000000562,0.2207418345569212,0.04989124083682926
9.000000000000451,0.22686474980794896,0.05139372079000111
9.20000000000034,0.2338868751923337,0.050622408617446976
9.40000000000023,0.24028565150314488,0.05187111714245663
9.600000000000119,0.2457402429957411,0.05216475503478689
9.800000000000008,0.2508736269427816,0.054313508219423316
10.000999999999896,0.2553087951067117,0.05391709636587033
10.200999999999786,0.2628233460350591,0.05357638604109346
10.400999999999675,0.2683941576024676,0.05357240831558613
10.600999999999564,0.27439169477208813,0.052096352604178234
10.800999999999453,0.2807597302684599,0.05227779013070478
11.000999999999342,0.28666181545445146,0.05102240130595972
11.200999999999231,0.2943558136925412,0.050595505526656766
11.40099999999912,0.29966247696961623,0.04901062608449548
11.60099999999901,0.3055940400154196,0.04884237009404871
11.800999999998899,0.311924484925018,0.047621363021550685
12.000999999998788,0.31704541662267266,0.04640429979226445
12.200999999998677,0.32397201633845857,0.045357986293811124
12.400999999998566,0.3300383692509725,0.04410610976130966
12.600999999998455,0.33632312549889326,0.042974401426269515
12.800999999998345,0.34220161179178493,0.041493358531925276
13.000999999998234,0.34985461998270256,0.03980245979272142
13.200999999998123,0.3558640268025374,0.03937049826275463
13.400999999998012,0.3617862681765409,0.03797474736797457
13.600999999997901,0.36894356124626004,0.03752123347866349
13.80099999999779,0.37309223217770776,0.036586735993708444
14.00099999999768,0.37886722841086695,0.03661839867664157
14.200999999997569,0.385190023195763,0.03446608676468498
14.400999999997458,0.3910381113363579,0.03166484237834887
14.600999999997347,0.39572876175753957,0.03032081019969644
14.800999999997236,0.40159895496902936,0.02849206713669247
15.000999999997125,0.4086275991170366,0.026395512316402532
15.200999999997014,0.4143662523797272,0.024631224116473706
15.400999999996904,0.42225457164426994,0.023001580697938416
15.600999999996793,0.4272051271106411,0.02184194761147246
15.800999999996682,0.4342547103531814,0.019690970462649268
16.000999999996573,0.4399171454815988,0.018569690370678755
16.200999999996817,0.44582778043210713,0.016984717246300223
16.40099999999706,0.452541123508348,0.015215439922574755
16.600999999997306,0.45854849919539536,0.0131705277074481
16.80099999999755,0.4658009168975733,0.011078357153253398
17.000999999997795,0.472009171379093,0.008122980358160196
17.20099999999804,0.47839926045064274,0.0057241971673725476
17.400999999998284,0.4845764430670985,0.003954371475229855
17.60099999999853,0.490542337915694,0.002177407183044777
17.800999999998773,0.4979588465805501,0.00013912493846700774
18.000999999999017,0.5036211411208724,-0.0015391327197217827
18.20099999999926,0.5114010762287824,-0.0037314375866232684
18.400999999999506,0.517114782371286,-0.005788398449654872
18.60099999999975,0.5239150488964902,-0.0071541196292814364
18.799999999999994,0.5320671950314374,-0.00987674876144062
19.000000000000238,0.5384474435075894,-0.012369525540590585
19.200000000000482,0.5452392179960154,-0.0141509955959062
19.400000000000727,0.5504731843323073,-0.016223649978223866
19.60000000000097,0.5584093558386375,-0.018525213144089368
19.800000000001216,0.5641283097360248,-0.02094630854457739
20.00000000000146,0.571072362093859,-0.02346631086404618
