Time (s),X (m),Y (m)
0.001,-0.0006729371591054978,-0.000515584144559974
0.20000000000000015,0.007487984356973504,0.0035868767622886308
0.4000000000000003,0.012681301161090855,0.004669875157095452
0.6000000000000004,0.035584283580427783,0.00010349157377869773
0.8000000000000006,0.05436935224054552,-0.0053095612533315215
1.0000000000000007,0.08801273449942923,-0.014017835954504832
1.2009999999999785,0.11210833382261941,-0.0269278426752275
1.4009999999999565,0.13994241668198748,-0.041659459424106725
1.6009999999999345,0.16388272594601383,-0.05932164343116676
1.8009999999999124,0.19304760171278218,-0.08530465881295697
2.0009999999998906,0.21762050737922145,-0.11542566396263715
2.2009999999998686,0.2552083074800364,-0.152250959607846
2.4009999999998466,0.3095816576782402,-0.19121711646027698
2.6009999999998246,0.3664004791701077,-0.22825570413032256
2.8009999999998025,0.42618278187123687,-0.26719071189836524
3.0009999999997805,0.4887290865557829,-0.3104017236576612
3.2009999999997585,0.5526525786319358,-0.36026063533825026
3.4009999999997365,0.6147560119773584,-0.41322160963825316
3.6009999999997144,0.6728447420057266,-0.4607255363424403
3.8009999999996924,0.7268877469281262,-0.5301511025252589
4.000999999999671,0.7753020894938663,-0.6112611134519013
4.200999999999738,0.8065732729179889,-0.6868377738094873
4.400999999999804,0.8115146791574609,-0.7498694935018404
4.600999999999871,0.7993838710056753,-0.7997477379905354
4.800999999999938,0.7731327426294193,-0.8403305078858069
5.000000000000004,0.7414053313380949,-0.8485503586612809
5.200000000000071,0.7019768553410322,-0.8360771331861234
5.400000000000138,0.6636873898895176,-0.8148717697073362
5.600000000000205,0.6028123130919641,-0.7878371373855748
5.800000000000272,0.531646642451254,-0.759430218604028
6.000000000000338,0.45361368793094226,-0.7198051336864839
6.200000000000405,0.3735037538370539,-0.6729288606505134
6.400000000000472,0.2990441945733815,-0.6259074155729565
6.600000000000539,0.2264605849215758,-0.5846294344499661
6.800000000000606,0.15875927355653568,-0.541888375735904
7.000000000000672,0.10375715090133658,-0.4939377814375085
7.200000000000739,0.04667254431030293,-0.4419485469219152
7.400000000000806,-0.019681189746743218,-0.3840502931565441
7.600000000000873,-0.09173626225526207,-0.32049344819456016
7.8000000000009395,-0.154029901237096,-0.25760661252853234
8.000000000001005,-0.22341598551730382,-0.19331908504869252
8.200000000000895,-0.29680853840298566,-0.12930666530435295
8.400000000000784,-0.37323025088663514,-0.06473117230664484
8.600000000000673,-0.44072088857116687,-0.0031830982499045017
8.800000000000562,-0.5018048267848941,0.05878432125060418
9.000000000000451,-0.575955553985524,0.12275633602342527
9.20000000000034,-0.6523384096706861,0.18745986160503583
9.40000000000023,-0.7242421444524954,0.25616628840606104
9.600000000000119,-0.7963477425598325,0.32459499566366207
9.800000000000008,-0.8662049045211963,0.3921644673752004
10.000999999999896,-0.9378885209963823,0.46400228420781786
10.200999999999786,-1.0151873803717462,0.5386145288509977
10.400999999999675,-1.0854573697367076,0.6128158661333877
10.600999999999564,-1.1490969916112206,0.689207564596602
10.800999999999453,-1.2026494549820932,0.7653055371236297
11.000999999999342,-1.241423457909267,0.8467018711058989
11.200999999999231,-1.2620294292366385,0.9376730918946572
11.40099999999912,-1.2619298363397269,1.0070399326083113
11.60099999999901,-1.2476327425756806,1.074775897755777
11.800999999998899,-1.2128441204416844,1.1560899439839503
12.000999999998788,-1.1555284844456077,1.2386635028028254
12.200999999998677,-1.0810648356709134,1.3029025522699411
12.400999999998566,-1.0127011013361649,1.322208152918435
12.600999999998455,-0.9394553611846165,1.3169677444050876
12.800999999998345,-0.8651826055601151,1.2928243280792413
13.000999999998234,-0.80220565679751,1.255722520563977
13.200999999998123,-0.7383369549937654,1.2008550264909321
13.400999999998012,-0.6737499768482145,1.1369067078166448
13.600999999997901,-0.6116731821375052,1.0690931648969504
13.80099999999779,-0.5527927796927924,0.9944148970263798
14.00099999999768,-0.5180650244707219,0.9156105750289448
14.200999999997569,-0.5149285536582306,0.8537485814893373
14.400999999997458,-0.5369174362986929,0.7929488005598296
14.600999999997347,-0.5840352456273584,0.7239843631714336
14.800999999997236,-0.6327429076026237,0.6587628819235327
15.000999999997125,-0.6699614705599939,0.6121796680531281
15.200999999997014,-0.7145934601327317,0.6010605793071204
15.400999999996904,-0.7584392404494019,0.6214665174319615
15.600999999996793,-0.7984323687554722,0.6513205777711154
15.800999999996682,-0.8111951853196415,0.6841159560298467
16.000999999996573,-0.7959820152652313,0.7239545702206571
16.200999999996817,-0.7720090761150483,0.7659335923510345
16.40099999999706,-0.736342716506163,0.7880800359520507
16.600999999997306,-0.7005070454114781,0.7829941564552899
16.80099999999755,-0.6476220054433387,0.7632970823789328
17.000999999997795,-0.5878187311989419,0.729633683665623
17.20099999999804,-0.5355355710602605,0.6881841788525912
17.400999999998284,-0.47723052521397186,0.646599295012265
17.60099999999853,-0.4292230932101353,0.6095022664008506
17.800999999998773,-0.3710514808328154,0.5580069396201102
18.000999999999017,-0.30971316648372615,0.4923974051764944
18.20099999999926,-0.26762496997591867,0.42326450714411945
18.400999999999506,-0.2565344512857872,0.3587688635635396
18.60099999999975,-0.2672821643914201,0.30906344528467966
18.799999999999994,-0.2943113674078574,0.2603794913985419
19.000000000000238,-0.3400069399327192,0.2138718164559442
19.200000000000482,-0.3813901500317695,0.17446821544111835
19.400000000000727,-0.42646306052567295,0.1519581866532445
19.60000000000097,-0.4719689289664957,0.15816885774522593
19.800000000001216,-0.5126369425786175,0.1769567028621171
20.00000000000146,-0.5583901978760596,0.21132826819036893
