Time (s),X (m),Y (m)
0.001,4.1020280575708355e-05,0.0010155025257856582
0.20000000000000015,0.0013608727205905212,0.004282984963799141
0.4000000000000003,0.0037984258219644442,0.0010900218711087362
0.6000000000000004,0.007979147986687552,-0.00038822994081282275
0.8000000000000006,0.01197493490857658,0.0012145136559111522
1.0000000000000007,0.020649085073634464,-0.0019286208734273324
1.2009999999999785,0.024673575135747375,-0.011320923806830224
1.4009999999999565,0.031761780485982695,-0.013855911440608631
1.6009999999999345,0.0393712776555788,-0.012906338497545891
1.8009999999999124,0.04492979136766797,-0.017221910346329396
2.0009999999998906,0.049358634469410675,-0.03188488733060637
2.2009999999998686,0.05791382685099458,-0.03928323942337122
2.4009999999998466,0.06522174883023661,-0.03730198227207118
2.6009999999998246,0.07289606412405712,-0.043547194081793444
2.8009999999998025,0.07602789758397467,-0.0581980912791721
3.0009999999997805,0.08100275674426861,-0.06654259063995488
3.2009999999997585,0.08717049042441881,-0.06824240679865251
3.4009999999997365,0.09608767021710103,-0.0796555116818888
3.6009999999997144,0.10368910394865422,-0.08515443187073114
3.8009999999996924,0.10984588797121199,-0.10034508717828865
4.000999999999671,0.11609127582319793,-0.10424078872054325
4.200999999999738,0.12256159064708369,-0.1090410106489842
4.400999999999804,0.12912464976638807,-0.12112295941929692
4.600999999999871,0.13663786739332728,-0.12628447477985014
4.800999999999938,0.14526779051755745,-0.13035215227657115
5.000000000000004,0.15000491008288197,-0.13566283208240928
5.200000000000071,0.1574543480208189,-0.14248983032383797
5.400000000000138,0.16442953185504325,-0.14757511132353232
5.600000000000205,0.17029408010956476,-0.15959643717428734
5.800000000000272,0.17636182197331526,-0.17682635782254835
6.000000000000338,0.18355072899405597,-0.17996110491452869
6.200000000000405,0.1889943698618791,-0.18861106726550397
6.400000000000472,0.19940686728612358,-0.18610658212379563
6.600000000000539,0.2061792704388347,-0.1940059133883089
6.800000000000606,0.21591360175778626,-0.19457816714245732
7.000000000000672,0.22630220810301763,-0.1979726514819736
7.200000000000739,0.23035449020862966,-0.2034656405259284
7.400000000000806,0.23738585313641386,-0.21075584764586552
7.600000000000873,0.24478684813496832,-0.21843703642944554
7.8000000000009395,0.24846271659705937,-0.23201940575393187
8.000000000001005,0.2573074266920999,-0.23386918561856068
8.200000000000895,0.2627207009270341,-0.24319855745046232
8.400000000000784,0.2704994459214281,-0.24678385236115577
8.600000000000673,0.2779199694991433,-0.24980925719636704
8.800000000000562,0.28215665746522334,-0.2617684705541903
9.000000000000451,0.290778090201866,-0.26713707635928524
9.20000000000034,0.2989420204542622,-0.27085871451060456
9.40000000000023,0.3024715631322601,-0.28145191151406623
9.600000000000119,0.30913950091923154,-0.2874942691462255
9.800000000000008,0.31379540486188956,-0.29899328693819566
10.000999999999896,0.3206006433048402,-0.30574198692396704
10.200999999999786,0.3291270836155013,-0.30602367977245715
10.400999999999675,0.3372073593846235,-0.3110160708405728
10.600999999999564,0.34789574893968045,-0.3191794971774128
10.800999999999453,0.3529502434107811,-0.31925613706867206
11.000999999999342,0.35677570219762783,-0.32782897770088687
11.200999999999231,0.36300745483708585,-0.3359526399665087
11.40099999999912,0.36802538419072656,-0.34678997144477924
11.60099999999901,0.37466291027372406,-0.3501893031295194
11.800999999998899,0.3781245977190796,-0.36066489146680164
12.000999999998788,0.37984774328940396,-0.3774821042966459
12.200999999998677,0.3854581346032545,-0.3819996843660481
12.400999999998566,0.3925625893155699,-0.38293398660455913
12.600999999998455,0.404658750468157,-0.38330074145770926
12.800999999998345,0.4121362119669175,-0.39190485423368027
13.000999999998234,0.41697391954216173,-0.40499235649113735
13.200999999998123,0.425880047757528,-0.4158370895022216
13.400999999998012,0.4320699961155134,-0.41831936816346754
13.600999999997901,0.43819431077656973,-0.427104788522423
13.80099999999779,0.4453914725711532,-0.43541647027661995
14.00099999999768,0.45210828651529866,-0.4456434737244395
14.200999999997569,0.45622715035783035,-0.45461236745688205
14.400999999997458,0.4614268881466224,-0.46619526842913517
14.600999999997347,0.4705172165843239,-0.4706178023820608
14.800999999997236,0.47448019624274096,-0.4876820685499536
15.000999999997125,0.48068006995139617,-0.5025641423119867
15.200999999997014,0.48893661588056003,-0.5094390070042176
15.400999999996904,0.49567467155440037,-0.5183269605555143
15.600999999996793,0.5024693253781973,-0.5224445492788254
15.800999999996682,0.5073861132405777,-0.5324405198614202
16.000999999996573,0.5124691350026269,-0.5414374568201475
16.200999999996817,0.5203410617513681,-0.5427007899889253
16.40099999999706,0.524774536439519,-0.5470970210483587
16.600999999997306,0.5273654835263804,-0.5554761085634231
16.80099999999755,0.532644950851193,-0.5628177614617237
17.000999999997795,0.5393076196832147,-0.5722602830099351
17.20099999999804,0.5496541836005038,-0.5787073447790445
17.400999999998284,0.5557254576741395,-0.5826121645333278
17.60099999999853,0.5583965254251021,-0.5948502907687129
17.800999999998773,0.5630581087223681,-0.6023027483604186
18.000999999999017,0.5667682702969591,-0.6109027320969558
18.20099999999926,0.5697948039015285,-0.6235523037910239
18.400999999999506,0.5755683869434606,-0.6337602715402391
18.60099999999975,0.5806554686833321,-0.6456461897585098
18.799999999999994,0.5885140362781065,-0.6491539515152661
19.000000000000238,0.5969860924623952,-0.6547003577828544
19.200000000000482,0.6048041801674732,-0.6553244001839147
19.400000000000727,0.6150262824295962,-0.6581787302001006
19.60000000000097,0.6197500822736857,-0.6643498871096527
19.800000000001216,0.6229295675774843,-0.674919147191423
20.00000000000146,0.6265906796701676,-0.6850531578829093
