Time (s),X (m),Y (m)
0.001,0.0008829029745972832,0.0007899207378008392
0.20000000000000015,-0.0005561595961045552,-0.0026264553316999
0.4000000000000003,-7.231159414977362e-05,-0.0027080915558684044
0.6000000000000004,0.0036459540866720925,-0.0011437470380047281
0.8000000000000006,0.0071305018715703316,0.0015539385748300674
1.0000000000000007,0.011675261957321109,0.002805260002992211
1.2009999999999785,0.015075301752655026,0.004121063243735253
1.4009999999999565,0.019500833190813638,0.007654615851609996
1.6009999999999345,0.023928943016931405,0.009334248776262287
1.8009999999999124,0.027419720431283642,0.011737715800133044
2.0009999999998906,0.031723536058651705,0.01490554805758607
2.2009999999998686,0.03552525649324279,0.016171245198433656
2.4009999999998466,0.04016858374671332,0.02019620573035424
2.6009999999998246,0.0443816354373449,0.023362509266985507
2.8009999999998025,0.04896708009328041,0.02723111902748629
3.0009999999997805,0.053774657308573635,0.03181412773270085
3.2009999999997585,0.057990839845706806,0.03396528875149535
3.4009999999997365,0.06142599119931265,0.03747010381466629
3.6009999999997144,0.06613773921590584,0.04247995970426583
3.8009999999996924,0.0696417670006257,0.04683458004744995
4.000999999999671,0.07366463929537145,0.052216333329952
4.200999999999738,0.07805402859791412,0.05750864411104799
4.400999999999804,0.08111082867909812,0.06133330830378369
4.600999999999871,0.0848976761056185,0.06526578461903774
4.800999999999938,0.08840753721804143,0.06914400605745183
5.000000000000004,0.0917438407788857,0.07527461486135995
5.200000000000071,0.09462289640689622,0.08071214088683028
5.400000000000138,0.09777775139790777,0.08632779203726844
5.600000000000205,0.10085142044314835,0.09130792717283545
5.800000000000272,0.1026906583793574,0.09707568795256159
6.000000000000338,0.10453304871258466,0.10239519926768448
6.200000000000405,0.1057343552286382,0.1084507360020563
6.400000000000472,0.10733627098449465,0.11374402036583989
6.600000000000539,0.1083191255053945,0.12063258151156644
6.800000000000606,0.10875629571517234,0.12653733192462077
7.000000000000672,0.10870641372865061,0.13382660823442338
7.200000000000739,0.10912824429710732,0.13951647233887704
7.400000000000806,0.10861088784344185,0.1462342168013779
7.600000000000873,0.10755260797549557,0.15336952078286376
7.8000000000009395,0.10668121656415765,0.1597815079971621
8.000000000001005,0.10616943856523901,0.16706755181906252
8.200000000000895,0.10566780885533911,0.17344734559437508
8.400000000000784,0.10411810463979669,0.1804606170462996
8.600000000000673,0.1023217561063052,0.18771842453703655
8.800000000000562,0.10019359593811819,0.1954836486245335
9.000000000000451,0.09703423128993555,0.20318233808305647
9.20000000000034,0.09451158197028867,0.21120716537758735
9.40000000000023,0.09090480046676952,0.21777032348582478
9.600000000000119,0.08746092286441423,0.22471043291613702
9.800000000000008,0.08310825856848052,0.23229050862032063
10.000999999999896,0.0800944135305561,0.23923689924297334
10.200999999999786,0.07573142172876836,0.246659822131201
10.400999999999675,0.07234332127833179,0.2534282928614811
10.600999999999564,0.06754165429708094,0.2597237647714381
10.800999999999453,0.06338966670158705,0.2662230845192858
11.000999999999342,0.057597805770455875,0.27276456814740646
11.200999999999231,0.053193299569931726,0.27875529268267546
11.40099999999912,0.04608691893801781,0.2852212431555645
11.60099999999901,0.04121893966739586,0.2909553229284036
11.800999999998899,0.03556763900172949,0.29646263674839524
12.000999999998788,0.029849947919981877,0.3018314509974803
12.200999999998677,0.023542618041264132,0.30669871058404496
12.400999999998566,0.01721415775525972,0.31137986633094245
12.600999999998455,0.010819805392535489,0.31590805688948526
12.800999999998345,0.00446077099425219,0.319633446554571
13.000999999998234,-0.0018760048107236216,0.32292363982180855
13.200999999998123,-0.00874411194661256,0.3262428550828798
13.400999999998012,-0.0159532806339756,0.32864390157671447
13.600999999997901,-0.02319736246977007,0.33110269024152855
13.80099999999779,-0.03032270914533501,0.3331325577441831
14.00099999999768,-0.036993439467459956,0.3346175302969885
14.200999999997569,-0.04463211014483043,0.33570997454254686
14.400999999997458,-0.05119709220058653,0.3362825054151813
14.600999999997347,-0.059580580863817734,0.3367442961447566
14.800999999997236,-0.06703850667056489,0.33702842388485993
15.000999999997125,-0.07562359374116807,0.3364482037400507
15.200999999997014,-0.083792446960265,0.33547753261579755
15.400999999996904,-0.09272698209175442,0.3342976753830313
15.600999999996793,-0.09926912810405691,0.3342265104716161
15.800999999996682,-0.10682008403009102,0.3323097693236536
16.000999999996573,-0.11490611312897384,0.3303112415263014
16.200999999996817,-0.12265236764084429,0.3285724813822967
16.40099999999706,-0.1299435562809089,0.32718658237076975
16.600999999997306,-0.13810762908320848,0.324157982593543
16.80099999999755,-0.1446734272910524,0.32303484092751505
17.000999999997795,-0.1524442562244471,0.3195381067476901
17.20099999999804,-0.15971348689914547,0.3149334607949911
17.400999999998284,-0.16757558114355026,0.3110208155220553
17.60099999999853,-0.17552298005749556,0.3079126776196986
17.800999999998773,-0.18268992215020372,0.30335787157549016
18.000999999999017,-0.19028268259941905,0.29903874505783573
18.20099999999926,-0.19811665704913775,0.29424696670667966
18.400999999999506,-0.2052598897256153,0.289041709976034
18.60099999999975,-0.2118504937637604,0.2848758927205647
18.799999999999994,-0.21897982691684675,0.2787045809114475
19.000000000000238,-0.2260533061959029,0.2738994339062825
19.200000000000482,-0.23282921139449972,0.2670580086242871
19.400000000000727,-0.23952587159804192,0.2608602960263489
19.60000000000097,-0.2453837174281869,0.2544214633876294
19.800000000001216,-0.2513846866117293,0.2481892083016216
20.00000000000146,-0.2565825436271085,0.2415913624162583
