Time (s),X (m),Y (m)
0.001,-0.00037137305770231177,-0.0008446836120385868
0.20000000000000015,0.006480948682916182,0.0027657079880819033
0.4000000000000003,0.012135987234851235,0.0016451881808303161
0.6000000000000004,0.024331757178861425,0.004431266928177831
0.8000000000000006,0.04280020833066479,0.015217074455516523
1.0000000000000007,0.06115105746807384,0.009930635162101293
1.2009999999999785,0.0817606124590734,0.006696776951753533
1.4009999999999565,0.10449439456270682,0.037945271576557735
1.6009999999999345,0.13315111674869548,0.08403427535087928
1.8009999999999124,0.17040730247592506,0.11295515944439337
2.0009999999998906,0.20284220041696402,0.12381053223356552
2.2009999999998686,0.22952965438004183,0.13455611743350415
2.4009999999998466,0.2645788800489408,0.15083915995483038
2.6009999999998246,0.2943278527451034,0.17320983220997377
2.8009999999998025,0.32687295834681135,0.20159569798910468
3.0009999999997805,0.36705303441780174,0.22184957678078543
3.2009999999997585,0.4093527528316984,0.2362633402899056
3.4009999999997365,0.448594088295476,0.24563989481004891
3.6009999999997144,0.48810356972239866,0.2627001712279443
3.8009999999996924,0.525251143316874,0.268849700255043
4.000999999999671,0.5719541951684209,0.2847023317102641
4.200999999999738,0.622375035236758,0.305379629623444
4.400999999999804,0.6606932462168071,0.3092872501447311
4.600999999999871,0.6975281053567349,0.3136422504828662
4.800999999999938,0.7435054629687224,0.3329463045385714
5.000000000000004,0.792060950477621,0.34794749672168124
5.200000000000071,0.8437600701909695,0.3604391612527577
5.400000000000138,0.8889547174031496,0.37964054841778383
5.600000000000205,0.9352459990784584,0.40265648566787604
5.800000000000272,0.9798574831294276,0.42321445775829974
6.000000000000338,1.0191503972890756,0.4449873128315169
6.200000000000405,1.068385613065127,0.4578370978761378
6.400000000000472,1.1161475410245518,0.4655062437098964
6.600000000000539,1.1563735768247143,0.48637738789648505
6.800000000000606,1.1955275701202632,0.5200120514644672
7.000000000000672,1.2289285742233498,0.541306758213041
7.200000000000739,1.261910375585196,0.5608030999190289
7.400000000000806,1.2997139085541567,0.567579943979284
7.600000000000873,1.3412955316773725,0.5897248921476725
7.8000000000009395,1.3830549951700486,0.6030153132439239
8.000000000001005,1.4199087311312766,0.6095366050127768
8.200000000000895,1.4573231929572994,0.6409353985867289
8.400000000000784,1.4933128073041315,0.6618680766597252
8.600000000000673,1.5338942139133849,0.6766583385124171
8.800000000000562,1.5719293972064208,0.6958855295704072
9.000000000000451,1.6073523183600933,0.723761121837319
9.20000000000034,1.6479570969420505,0.7316225101348475
9.40000000000023,1.684144858413684,0.7396293788326873
9.600000000000119,1.7184967474796287,0.7605123687954837
9.800000000000008,1.7516482173716277,0.7988728466983374
10.000999999999896,1.7921053805171043,0.8145254076331094
10.200999999999786,1.8334239659905287,0.8464946227092113
10.400999999999675,1.8756470521167579,0.8862786500008354
10.600999999999564,1.9076658355982172,0.9094471550715791
10.800999999999453,1.9322408418189343,0.944722453421012
11.000999999999342,1.9589637202495616,0.9942347379286994
11.200999999999231,1.9871551532767253,1.03299271846788
11.40099999999912,2.011576505406966,1.0910871939090434
11.60099999999901,2.0341695751529643,1.148904782381373
11.800999999998899,2.0512330971638955,1.2005837740677567
12.000999999998788,2.0673481299298535,1.2528209448555603
12.200999999998677,2.093537220083845,1.2917432499613448
12.400999999998566,2.1228158794320056,1.3389613798346416
12.600999999998455,2.1458347983723187,1.3938048041794897
12.800999999998345,2.15248894092187,1.4480757711224006
13.000999999998234,2.1512571243441783,1.5110989283036025
13.200999999998123,2.147440206208103,1.5629691139283637
13.400999999998012,2.1419738484182473,1.6105621985346652
13.600999999997901,2.1330274167463315,1.6599311113476931
13.80099999999779,2.1325858396969766,1.703260467819792
14.00099999999768,2.1394440388209355,1.7390353687581706
14.200999999997569,2.1435678455339295,1.7981335006257495
14.400999999997458,2.1427406181493436,1.8597082997033787
14.600999999997347,2.143851672006614,1.9220181228496795
14.800999999997236,2.152087061923967,1.9800563046386372
15.000999999997125,2.1681773420785473,2.0315086735608974
15.200999999997014,2.189676274376791,2.0805566518394003
15.400999999996904,2.2136233921265855,2.1155477469841673
15.600999999996793,2.233801104299486,2.14179355380737
15.800999999996682,2.248169240788495,2.184841668210122
16.000999999996573,2.256373684049646,2.234834667635728
16.200999999996817,2.257327967750029,2.289261504625161
16.40099999999706,2.2485035446015926,2.353758364728201
16.600999999997306,2.238317732758344,2.4168720397360226
16.80099999999755,2.2289399120195714,2.4878498894924244
17.000999999997795,2.2143206559603805,2.563012388597775
17.20099999999804,2.204340602683552,2.628180612982122
17.400999999998284,2.18362832408377,2.682756165004795
17.60099999999853,2.1383659641706734,2.7124294785837457
17.800999999998773,2.0796393540382305,2.721229542783902
18.000999999999017,2.0234115675058826,2.7314858691048114
18.20099999999926,1.968490136346504,2.7423859385085287
18.400999999999506,1.929411253250221,2.7607731018854387
18.60099999999975,1.89333104813938,2.795392840246262
18.799999999999994,1.8574275360743797,2.8359884295435807
19.000000000000238,1.8298220240810517,2.87570797208406
19.200000000000482,1.8058695473914812,2.921433961776093
19.400000000000727,1.7751143489886259,2.969182854134202
19.60000000000097,1.7486875025064192,3.0142123382405948
19.800000000001216,1.7241049904247459,3.059562465259992
20.00000000000146,1.6991598968330446,3.0979175538524113
