Time (s),X (m),Y (m)
0.001,0.0010647643868879006,0.0005914538325516247
0.20000000000000015,0.0012078953240298221,-0.000553781946283766
0.4000000000000003,-7.595992602181871e-05,-0.0037213657714043505
0.6000000000000004,0.004537511000492588,-0.005733209121215449
0.8000000000000006,0.010091862809946985,-0.007564969032350037
1.0000000000000007,0.014180904006692502,-0.0068036493143261495
1.2009999999999785,0.016001118597216903,-0.002539024375435994
1.4009999999999565,0.022871254465914023,-0.0032819484903240043
1.6009999999999345,0.031494010795996015,-0.004299849252490413
1.8009999999999124,0.0445313106941383,-0.0024632448197279893
2.0009999999998906,0.06286875740898856,0.006518434742859071
2.2009999999998686,0.07346670262674904,0.020172728584335463
2.4009999999998466,0.09411886130884392,0.032179275893280505
2.6009999999998246,0.10713684995317346,0.039531595099663086
2.8009999999998025,0.11725328251431494,0.04266746132604002
3.0009999999997805,0.12580983223003434,0.05112760120881136
3.2009999999997585,0.13647323333922545,0.055390092018730214
3.4009999999997365,0.14546903451538104,0.06023554777338388
3.6009999999997144,0.15863573046106166,0.06677861593656213
3.8009999999996924,0.1709861885886345,0.07406112538560893
4.000999999999671,0.18211312656975276,0.08197947280106499
4.200999999999738,0.19417864222301745,0.08913245268609347
4.400999999999804,0.205473101203714,0.0944552453786016
4.600999999999871,0.2191804990540104,0.10168978351236431
4.800999999999938,0.23297449471643628,0.11201436603855479
5.000000000000004,0.24564093324420577,0.1186197004899458
5.200000000000071,0.2556672676346252,0.12848567578230916
5.400000000000138,0.26195681317406255,0.1381176702363277
5.600000000000205,0.2711535361805802,0.14976502003936887
5.800000000000272,0.28041722768179433,0.1612827946618884
6.000000000000338,0.2930312822019086,0.16762866882777758
6.200000000000405,0.30133593796855984,0.16967086323537198
6.400000000000472,0.3067982698284642,0.17960535772171501
6.600000000000539,0.3179597749540463,0.19002223643005697
6.800000000000606,0.330384941659401,0.19406210241148658
7.000000000000672,0.3382250561100861,0.20397992659348751
7.200000000000739,0.3471473486252799,0.2125543062207534
7.400000000000806,0.3592159256695578,0.22473833114484182
7.600000000000873,0.36583763511167844,0.23334428289843767
7.8000000000009395,0.3718088958553413,0.24277738659708015
8.000000000001005,0.37602288844976833,0.251829846607706
8.200000000000895,0.37926846649282137,0.2588764992690627
8.400000000000784,0.3867266614430688,0.26909649790106094
8.600000000000673,0.3954054052255712,0.2890190708746927
8.800000000000562,0.4044604360814547,0.29803360041371907
9.000000000000451,0.41150755335943856,0.3128866567799451
9.20000000000034,0.41774948549994884,0.32813231273886867
9.40000000000023,0.4258590123861622,0.3426270713281392
9.600000000000119,0.42917968890387714,0.3543602524231474
9.800000000000008,0.4348671629735908,0.3657615680156279
10.000999999999896,0.44222139914704334,0.3806785185127347
10.200999999999786,0.449593852530882,0.40141603840733303
10.400999999999675,0.45866361632231384,0.41745137624389317
10.600999999999564,0.46351135637922425,0.42798694025344775
10.800999999999453,0.4721354621376136,0.4435948126873257
11.000999999999342,0.48463319402308097,0.45353715239072
11.200999999999231,0.49525023349227437,0.4702681271834443
11.40099999999912,0.5034228906951964,0.4852677481199846
11.60099999999901,0.5098012780453874,0.4993933534491121
11.800999999998899,0.5178113487910742,0.5113511521807947
12.000999999998788,0.5303737894009452,0.5242907119488941
12.200999999998677,0.536932986960594,0.5412211167867101
12.400999999998566,0.5415164065062045,0.5635835120991349
12.600999999998455,0.547681046884435,0.576914062455502
12.800999999998345,0.5517861344101813,0.5877799017752239
13.000999999998234,0.5554869254997095,0.6016819936128404
13.200999999998123,0.563262203837734,0.6158803113770285
13.400999999998012,0.567692286140617,0.6227669618536944
13.600999999997901,0.570656525081049,0.6308148610155299
13.80099999999779,0.5785939154250079,0.6400813050578429
14.00099999999768,0.5903552835302034,0.6527207636000975
14.200999999997569,0.5978982424579872,0.67370459509628
14.400999999997458,0.6064807800212877,0.6888804228498758
14.600999999997347,0.6114684304885172,0.7024635779375236
14.800999999997236,0.6109479350396977,0.7170018551186775
15.000999999997125,0.6171830461205917,0.7301304856607392
15.200999999997014,0.6270525355681157,0.7423487059173532
15.400999999996904,0.6344397471347073,0.7608989714889742
15.600999999996793,0.6430201275675138,0.7747895237741893
15.800999999996682,0.6532878016932459,0.7892563956401846
16.000999999996573,0.6574657696940842,0.8075142672237284
16.200999999996817,0.6606193161655322,0.8125024973881835
16.40099999999706,0.6677296502976395,0.8219825736865818
16.600999999997306,0.6748432467108669,0.8366026036619181
16.80099999999755,0.6799971453663118,0.8591265313544195
17.000999999997795,0.6852685862510219,0.8744482981166818
17.20099999999804,0.689650345296701,0.8860961815664246
17.400999999998284,0.6926283667424675,0.8986907939225534
17.60099999999853,0.6999176061923056,0.9173159749364606
17.800999999998773,0.7084859051636041,0.9301596785067406
18.000999999999017,0.7160438886140394,0.9371830709719804
18.20099999999926,0.7230013552612503,0.9490524413123592
18.400999999999506,0.7309113322017002,0.9577740455451716
18.60099999999975,0.7391915239925254,0.9800297294761628
18.799999999999994,0.7437791843400274,0.9988020037760643
19.000000000000238,0.7526065931596934,1.0146281200518172
19.200000000000482,0.7605511692035873,1.0303160447351092
19.400000000000727,0.7678617452232559,1.045283263070972
19.60000000000097,0.7745924112819897,1.0602253596826863
19.800000000001216,0.7786882402397666,1.087581638016176
20.00000000000146,0.7844349597741267,1.1107973792253014
