Time (s),X (m),Y (m)
0.001,-0.0003713730577023104,0.0008446836120385872
0.20000000000000015,0.004595100320807392,-0.0017443063471542673
0.4000000000000003,0.020103100617439622,-0.008638084620644347
0.6000000000000004,0.053787271937674457,-0.02821970414623073
0.8000000000000006,0.09547150448943727,-0.0372109527661082
1.0000000000000007,0.13480214267370724,-0.040250200179346676
1.2009999999999785,0.17454363668630624,-0.04154782552648753
1.4009999999999565,0.2219964910227431,-0.04317733151309683
1.6009999999999345,0.2724866098665257,-0.05923920164811966
1.8009999999999124,0.3253043041529888,-0.08357704373963323
2.0009999999998906,0.3706718912723009,-0.11926244847974214
2.2009999999998686,0.40129491770845604,-0.16068963329558025
2.4009999999998466,0.4183828386316109,-0.2071134823076891
2.6009999999998246,0.40038639570115264,-0.25049701136752683
2.8009999999998025,0.34252777145262964,-0.2918444602366645
3.0009999999997805,0.26898771840298885,-0.3316359525749659
3.2009999999997585,0.19515826862441926,-0.3651780123053204
3.4009999999997365,0.10764734463109583,-0.38738069397203756
3.6009999999997144,0.018476220664120215,-0.4056098196493508
3.8009999999996924,-0.06037777582779714,-0.42219988499583466
4.000999999999671,-0.13940758214639748,-0.42856455581157593
4.200999999999738,-0.21581708106515796,-0.42281869599056704
4.400999999999804,-0.2916331538957822,-0.3891937946347288
4.600999999999871,-0.36620445533572377,-0.3602614071794231
4.800999999999938,-0.4301011539956134,-0.3157935726894855
5.000000000000004,-0.4707554232329893,-0.25524232039585737
5.200000000000071,-0.497689182624945,-0.19310395958891707
5.400000000000138,-0.5036668905870992,-0.13154002290670916
5.600000000000205,-0.49972236172756385,-0.06825288002365373
5.800000000000272,-0.4706537888178552,-0.002609236591599584
6.000000000000338,-0.4049469430254946,0.04512091358759017
6.200000000000405,-0.3342458766613954,0.07850849435493895
6.400000000000472,-0.2660074211952515,0.10937808803659528
6.600000000000539,-0.1984806336933969,0.11914780492016563
6.800000000000606,-0.13108339822584447,0.11060115492410903
7.000000000000672,-0.0729991261230185,0.07530733654207397
7.200000000000739,-0.03770500091705283,0.026772995862430125
7.400000000000806,-0.028854664745776363,-0.026577848403550097
7.600000000000873,-0.04354214638657172,-0.07798566434019262
7.8000000000009395,-0.07911415519520623,-0.12485688961496169
8.000000000001005,-0.1524049810430644,-0.16386471607667163
8.200000000000895,-0.22657257034513664,-0.20115305674702152
8.400000000000784,-0.31053258678302587,-0.23224357186700353
8.600000000000673,-0.3953642127605001,-0.234789627912687
8.800000000000562,-0.47820409465019587,-0.22047039133456636
9.000000000000451,-0.559851476177876,-0.20352182677651526
9.20000000000034,-0.6327126360035507,-0.182951408325285
9.40000000000023,-0.6857689032413259,-0.1324629583852169
9.600000000000119,-0.7179896467151354,-0.07183770034437843
9.800000000000008,-0.7389057396407962,-0.014491660244604415
10.000999999999896,-0.7244487982268866,0.03525569325178734
10.200999999999786,-0.683863986277605,0.0710852427290508
10.400999999999675,-0.6351374769078112,0.10336914123019544
10.600999999999564,-0.5815882266051846,0.11795821471889541
10.800999999999453,-0.5278733345902015,0.09672736305660912
11.000999999999342,-0.4787825745251104,0.05860761744609182
11.200999999999231,-0.46029945924966664,-0.0030637224741542944
11.40099999999912,-0.4650976033398344,-0.06648863781830974
11.60099999999901,-0.4851515533877206,-0.12787031934216658
11.800999999998899,-0.5333948131500883,-0.1719433789374015
12.000999999998788,-0.5948998522806958,-0.18187911273399252
12.200999999998677,-0.6617988322811399,-0.1642016628770284
12.400999999998566,-0.7262197229213899,-0.11486692846375658
12.600999999998455,-0.7814214007751642,-0.061645346106105996
12.800999999998345,-0.8286880232224616,0.0013024015107511856
13.000999999998234,-0.8522350125829382,0.0666381407211324
13.200999999998123,-0.8540351069795705,0.13405816657307804
13.400999999998012,-0.8276276053733738,0.19942002181574542
13.600999999997901,-0.7825824729405819,0.2560579511755373
13.80099999999779,-0.7289342746514382,0.2814924445277271
14.00099999999768,-0.672419479229559,0.27651690004693985
14.200999999997569,-0.6269151149710581,0.2424215085100263
14.400999999997458,-0.5887530378777004,0.20497224916744772
14.600999999997347,-0.5597217220340382,0.16032845597474848
14.800999999997236,-0.549786397546633,0.10003020981432785
15.000999999997125,-0.5576323333990346,0.04611113851805695
15.200999999997014,-0.5918686272179112,0.0005553965019121265
15.400999999996904,-0.6408534849139284,-0.01852604967602011
15.600999999996793,-0.6945447162416786,-0.021058922521941414
15.800999999996682,-0.7236022437780206,0.0037883463870712593
16.000999999996573,-0.7282972909356243,0.044348176074878135
16.200999999996817,-0.7216664432216963,0.08980026805693835
16.40099999999706,-0.6945496464345277,0.1260613958152412
16.600999999997306,-0.6557072709703193,0.13038023669423937
16.80099999999755,-0.6019207202313307,0.12447283856099346
17.000999999997795,-0.5445857576352078,0.09604432146201239
17.20099999999804,-0.48112731244987844,0.0570465392453965
17.400999999998284,-0.4260474712804317,0.014134325841753788
17.60099999999853,-0.3880065885520676,-0.04176610129104059
17.800999999998773,-0.3775938478128391,-0.10415486053058201
18.000999999999017,-0.3691356581116112,-0.17032966399554
18.20099999999926,-0.37909090655485844,-0.23851268205002923
18.400999999999506,-0.4054237092000801,-0.29097698151123685
18.60099999999975,-0.44399462565375614,-0.3322933241972991
18.799999999999994,-0.48472365577311916,-0.36894433745503497
19.000000000000238,-0.5284288152042641,-0.405917499011975
19.200000000000482,-0.5838728886963837,-0.4380773659706714
19.400000000000727,-0.6528632570625513,-0.43759848100928855
19.60000000000097,-0.7180863749745668,-0.42727883999930216
19.800000000001216,-0.7616452271557146,-0.3956812978105266
20.00000000000146,-0.7582823539567349,-0.35801705363485
