Time (s),X (m),Y (m)
0.001,0.0003099530129853942,-0.0010272443824616275
0.20000000000000015,0.001444481122491263,0.007143347602898054
0.4000000000000003,0.007622493376900579,0.013624000282891053
0.6000000000000004,0.03031999048735197,0.02175362120978666
0.8000000000000006,0.06792400404568932,0.014295366579448326
1.0000000000000007,0.10794343422334995,-0.017637830464980266
1.2009999999999785,0.15201450857232865,-0.049829841470631145
1.4009999999999565,0.19739566788105978,-0.08639935137922727
1.6009999999999345,0.24799817128871235,-0.12119842255681501
1.8009999999999124,0.27375363117037343,-0.16586316560247355
2.0009999999998906,0.2857747408370554,-0.21808480195765384
2.2009999999998686,0.2839612507012575,-0.2792770455790832
2.4009999999998466,0.26966848784135017,-0.3411728957623314
2.6009999999998246,0.23973010242166728,-0.3820587466587359
2.8009999999998025,0.19981476386128946,-0.41409493298508765
3.0009999999997805,0.15209919389977533,-0.4170162513720999
3.2009999999997585,0.10421481537992455,-0.396209042464206
3.4009999999997365,0.060254705820962574,-0.3671373523867321
3.6009999999997144,0.04331435943355306,-0.32962835532153806
3.8009999999996924,0.05182342129544979,-0.3103267100084536
4.000999999999671,0.06990363475660444,-0.32542020994949
4.200999999999738,0.08364397491905562,-0.3591678256712893
4.400999999999804,0.09410351226627546,-0.3970538336769437
4.600999999999871,0.07672452996726793,-0.4408452208002368
4.800999999999938,0.045388349407580915,-0.49660504065675154
5.000000000000004,0.0038930535401669056,-0.5404885715740709
5.200000000000071,-0.039665833257439824,-0.5766888960059117
5.400000000000138,-0.0910411519633851,-0.5828102547563883
5.600000000000205,-0.15312256279156763,-0.5709168913021623
5.800000000000272,-0.22482435179898871,-0.5552145943278868
6.000000000000338,-0.27584509528255796,-0.5208050018916162
6.200000000000405,-0.3244807014282028,-0.4791133400025362
6.400000000000472,-0.3648134996318905,-0.4264925351041141
6.600000000000539,-0.4018497173371631,-0.36047262516489825
6.800000000000606,-0.4242820775725935,-0.28588881917126696
7.000000000000672,-0.43004229588941606,-0.20779449514286877
7.200000000000739,-0.41546945122068657,-0.14307192274109576
7.400000000000806,-0.3823207619136215,-0.08861668346335756
7.600000000000873,-0.3316481357977775,-0.05443046254190456
7.8000000000009395,-0.2899224436284238,-0.05225991704658511
8.000000000001005,-0.25387390516593794,-0.06820067368358486
8.200000000000895,-0.2292894789786399,-0.09974296597426519
8.400000000000784,-0.22434982651077442,-0.15429605534261856
8.600000000000673,-0.23502537266808268,-0.21433922626747698
8.800000000000562,-0.263260247410813,-0.2615617562893314
9.000000000000451,-0.30362195495144395,-0.29293079527361954
9.20000000000034,-0.35697611538975355,-0.30466881696005177
9.40000000000023,-0.41829793513870817,-0.2948755784692556
9.600000000000119,-0.48204648021902624,-0.2784001257145466
9.800000000000008,-0.549834321683249,-0.2607645879538935
10.000999999999896,-0.6140041138603555,-0.2298457937430395
10.200999999999786,-0.6493335275883738,-0.18814930225577212
10.400999999999675,-0.6630991421221396,-0.13598578466690647
10.600999999999564,-0.6585441834890847,-0.07737379839394427
10.800999999999453,-0.651094418744397,-0.006373836904815474
11.000999999999342,-0.6293800811064283,0.059189601727423366
11.200999999999231,-0.5963706911622463,0.11009394909367261
11.40099999999912,-0.5490347863997227,0.14203272461704708
11.60099999999901,-0.48369120483534,0.16819508646123793
11.800999999998899,-0.40972553975214904,0.1815161076242774
12.000999999998788,-0.3430092076252394,0.17336406403141108
12.200999999998677,-0.3056451983854083,0.14827987024799755
12.400999999998566,-0.3091116697210881,0.10541596752615585
12.600999999998455,-0.3280735240459513,0.05114484434021499
12.800999999998345,-0.3658399154061873,0.016141647739425818
13.000999999998234,-0.42069043209629287,0.0026764400403383195
13.200999999998123,-0.48009274559769494,0.005698606625456588
13.400999999998012,-0.5219905956999554,0.04478225343598144
13.600999999997901,-0.5639270515585181,0.0921945037329303
13.80099999999779,-0.6067091752452112,0.143424247337911
14.00099999999768,-0.6194147162856354,0.2072326848599511
14.200999999997569,-0.6159107443961387,0.27396644007659826
14.400999999997458,-0.597266022964393,0.3354099792973209
14.600999999997347,-0.5707560869021094,0.4000638392459065
14.800999999997236,-0.5253355678020021,0.4457856506102322
15.000999999997125,-0.463915239958731,0.4727155764873172
15.200999999997014,-0.3994763882919488,0.4720786799602042
15.400999999996904,-0.3414876149153159,0.44937370002138693
15.600999999996793,-0.29682132299980296,0.41724377205375107
15.800999999996682,-0.28071686078985036,0.37431103423134066
16.000999999996573,-0.2744625868172942,0.3183388944046088
16.200999999996817,-0.28600534512997744,0.2584410854535011
16.40099999999706,-0.3118555494747751,0.20809184005086878
16.600999999997306,-0.35165592179045063,0.186645369060287
16.80099999999755,-0.3965669869607177,0.18978089485017355
17.000999999997795,-0.42911055081892396,0.21346394149872225
17.20099999999804,-0.4515795552664467,0.25892935208945156
17.400999999998284,-0.4551110367668388,0.31142758497545414
17.60099999999853,-0.43605647832374755,0.3617420988984587
17.800999999998773,-0.4069560528202865,0.3972487296940125
18.000999999999017,-0.3632704710290198,0.42876770257005137
18.20099999999926,-0.3129871762883062,0.4328959161071551
18.400999999999506,-0.2517147598940943,0.42220518470675605
18.60099999999975,-0.1984247050772628,0.39714493830580677
18.799999999999994,-0.13370818319636363,0.3650624644687423
19.000000000000238,-0.09731505396193378,0.3166397503546436
19.200000000000482,-0.0928974454703497,0.254984120704189
19.400000000000727,-0.10776669206716417,0.19056803687099558
19.60000000000097,-0.12981826480252778,0.11549665598705129
19.800000000001216,-0.15779024107700934,0.060979582032390796
20.00000000000146,-0.19617192874065797,0.040239094769715676
