Time (s),X (m),Y (m)
0.001,0.0006558713247593165,-0.0009345558501746678
0.20000000000000015,0.0005181625595840848,0.00251015929275845
0.4000000000000003,0.006235440660708907,0.0027382820103031896
0.6000000000000004,0.013632044021569197,0.010013394326121458
0.8000000000000006,0.016074531284817048,0.002446515497756052
1.0000000000000007,0.022467455858816866,0.007871540543983382
1.2009999999999785,0.0339297125127796,0.007784234231960331
1.4009999999999565,0.049848695047880975,0.009285125614333256
1.6009999999999345,0.06438580966549456,0.022996680473640615
1.8009999999999124,0.07464210471679283,0.020926671033897414
2.0009999999998906,0.08837408448908252,0.012173097442867955
2.2009999999998686,0.09679493277901008,-0.0018145183893345943
2.4009999999998466,0.1086097775683246,-0.006270658842082432
2.6009999999998246,0.13036878263642113,-0.020853657763319162
2.8009999999998025,0.14803714958433004,-0.045174423052887776
3.0009999999997805,0.1710480906836853,-0.06502258268358105
3.2009999999997585,0.19859793608201168,-0.0778659088988001
3.4009999999997365,0.21523464611373497,-0.10125200232798158
3.6009999999997144,0.22907418684771083,-0.12572796207082085
3.8009999999996924,0.24369745153205574,-0.14074689663653397
4.000999999999671,0.26937565651996037,-0.1430915506346645
4.200999999999738,0.28574508481052746,-0.14873185661496693
4.400999999999804,0.3019710061130689,-0.148328362043704
4.600999999999871,0.3195271317485297,-0.15326942226060083
4.800999999999938,0.3334823674518312,-0.1664625975036635
5.000000000000004,0.3517422132923785,-0.19035617333916477
5.200000000000071,0.37053581717893797,-0.21211468694208352
5.400000000000138,0.3819140566332527,-0.23313825376040753
5.600000000000205,0.3958791326966662,-0.24555135418695925
5.800000000000272,0.4091906263803643,-0.26467054356968417
6.000000000000338,0.4188974495502965,-0.2862222041172333
6.200000000000405,0.42377064653942237,-0.30565514433022445
6.400000000000472,0.4347313462999323,-0.3227532794554215
6.600000000000539,0.4438953355926741,-0.33767865708443945
6.800000000000606,0.45712330269189994,-0.362942078211843
7.000000000000672,0.47555655678301745,-0.3821739540434877
7.200000000000739,0.4962767730896378,-0.4015242511208834
7.400000000000806,0.5149328237885085,-0.4262792801353253
7.600000000000873,0.5325695364640697,-0.45037272516033966
7.8000000000009395,0.5536948496593173,-0.464004753299538
8.000000000001005,0.5762172479577324,-0.4760150242907869
8.200000000000895,0.5929715154709898,-0.49382356300775215
8.400000000000784,0.6012629055176564,-0.516984492342184
8.600000000000673,0.6067059244140494,-0.5363680663481544
8.800000000000562,0.61728203953383,-0.5439461915413619
9.000000000000451,0.6285829562065713,-0.5602896034718915
9.20000000000034,0.6415439839236025,-0.5903901804881946
9.40000000000023,0.6512468203942874,-0.6139369788734915
9.600000000000119,0.6541090834018431,-0.6411242342761235
9.800000000000008,0.6606442865053809,-0.6589904337441902
10.000999999999896,0.6728375374145288,-0.6745370504910857
10.200999999999786,0.6929553548733083,-0.6914819292397227
10.400999999999675,0.7123533873250071,-0.709106492620766
10.600999999999564,0.7215624173678903,-0.7318282150479887
10.800999999999453,0.7374315180242953,-0.7421121899088984
11.000999999999342,0.7562291898540386,-0.75183487927525
11.200999999999231,0.7798448260677954,-0.7679044594877875
11.40099999999912,0.7909694655482118,-0.7862706427312224
11.60099999999901,0.8082489433595261,-0.8071569070270365
11.800999999998899,0.8202269177478307,-0.8270739457106562
12.000999999998788,0.8324513911092407,-0.8519952170726012
12.200999999998677,0.8401202510019038,-0.8828082601615312
12.400999999998566,0.8563697089218991,-0.9045014656960185
12.600999999998455,0.8603156672777106,-0.9302357967217071
12.800999999998345,0.8677398955146717,-0.9519475714671913
13.000999999998234,0.8794558743291061,-0.9710414267922552
13.200999999998123,0.8995434233549964,-0.9849367698627972
13.400999999998012,0.9182581904863335,-0.9919608235741915
13.600999999997901,0.9250562546417123,-1.0212226760220486
13.80099999999779,0.9277834408462766,-1.0522150987622136
14.00099999999768,0.9345348344060341,-1.0824806776499705
14.200999999997569,0.9483211115712936,-1.1043658774436111
14.400999999997458,0.9640052335785948,-1.1230052751054562
14.600999999997347,0.9832994979952945,-1.1352729372987054
14.800999999997236,0.9926432515301069,-1.153988373147598
15.000999999997125,0.9966962515053298,-1.1784187803113508
15.200999999997014,1.0101548057344474,-1.194292282560637
15.400999999996904,1.018411369452598,-1.210724486225911
15.600999999996793,1.0281170906028534,-1.2271303168961405
15.800999999996682,1.0356704248247315,-1.2514570811201833
16.000999999996573,1.043303192497658,-1.2823787722737223
16.200999999996817,1.0575626645648841,-1.309860541542841
16.40099999999706,1.0686941387319067,-1.338168972228596
16.600999999997306,1.0810443614045668,-1.3642506940678438
16.80099999999755,1.1008664977548153,-1.3846409721575397
17.000999999997795,1.1150493304280396,-1.408391552260315
17.20099999999804,1.127638777765861,-1.4307243695434797
17.400999999998284,1.1388809654612442,-1.4593185027270534
17.60099999999853,1.1479501937878156,-1.48597250574237
17.800999999998773,1.1507169741921082,-1.513004520576311
18.000999999999017,1.156662279366309,-1.5376999694452453
18.20099999999926,1.1620838674972411,-1.5635579361800453
18.400999999999506,1.1564668456995122,-1.5863034146414257
18.60099999999975,1.148541219065548,-1.6134328291482973
18.799999999999994,1.1340682308765462,-1.6349903282538554
19.000000000000238,1.1153006358424353,-1.6560409348603597
19.200000000000482,1.1025532153889297,-1.6750577132394497
19.400000000000727,1.0850851553110639,-1.6956796943234416
19.60000000000097,1.0768316937734228,-1.7116702523598564
19.800000000001216,1.0721839390604733,-1.7323500019428568
20.00000000000146,1.0649309159251732,-1.751530589421701
