Time (s),X (m),Y (m)
0.001,0.0008115346074009382,0.0008446836120385872
0.20000000000000015,0.002775752706520894,0.0009283399361996998
0.4000000000000003,0.009881080347259215,0.0071310520283451246
0.6000000000000004,0.02006275806388774,0.016426847234316626
0.8000000000000006,0.02815404597463099,0.018102767263557668
1.0000000000000007,0.03814193034711981,0.018969684790720885
1.2009999999999785,0.047589847392508024,0.016064862365833026
1.4009999999999565,0.05167740071540787,0.018833849553376823
1.6009999999999345,0.05920542096593156,0.02369061384465725
1.8009999999999124,0.06590214171321442,0.02379635053249287
2.0009999999998906,0.07236355427210113,0.025169876717442273
2.2009999999998686,0.0776770375729467,0.022250780234747754
2.4009999999998466,0.08907594719522163,0.024267691485808304
2.6009999999998246,0.10192212541720018,0.03329002213930209
2.8009999999998025,0.11500315385606924,0.03323158192036914
3.0009999999997805,0.12212660567907463,0.038485656689735595
3.2009999999997585,0.13392899977874012,0.041250496674710424
3.4009999999997365,0.1470184578223656,0.044599701740660386
3.6009999999997144,0.1585796444812565,0.050240530542085805
3.8009999999996924,0.17273435525304143,0.05425827489757737
4.000999999999671,0.18495284568663645,0.0599641535073091
4.200999999999738,0.20020180861692177,0.06830534033539916
4.400999999999804,0.21410860850235514,0.07377164985257864
4.600999999999871,0.22747172667732066,0.08027518829334399
4.800999999999938,0.24030484374825825,0.08795293280757284
5.000000000000004,0.25532747228440783,0.09676406457413653
5.200000000000071,0.26284442865666907,0.10133834325953152
5.400000000000138,0.27184591571102723,0.10258481913026463
5.600000000000205,0.28270416131270637,0.10855229370240252
5.800000000000272,0.2974361373927127,0.10812699898346047
6.000000000000338,0.31039417944660763,0.11254795386352112
6.200000000000405,0.32158989898333035,0.12074572707059075
6.400000000000472,0.330338649323785,0.13270686730121198
6.600000000000539,0.3410023589731266,0.1366408742065056
6.800000000000606,0.34832099030997327,0.13652375491976393
7.000000000000672,0.3580074029228906,0.14733156954155144
7.200000000000739,0.3647120732332459,0.16272498139872899
7.400000000000806,0.3705933610879374,0.1800541521487313
7.600000000000873,0.3762527773862012,0.19197525555610248
7.8000000000009395,0.38399738743169753,0.20032397523384302
8.000000000001005,0.39374237861692174,0.2097214119671403
8.200000000000895,0.40217202205648417,0.21319023376354296
8.400000000000784,0.40752699272886134,0.22495043583262853
8.600000000000673,0.41322873805806404,0.23256531583151957
8.800000000000562,0.4179054662788131,0.23857407107718392
9.000000000000451,0.42649490407601903,0.2463422813307145
9.20000000000034,0.4363153707526686,0.25728412190559985
9.40000000000023,0.4459595479873712,0.26538561179287445
9.600000000000119,0.4503122084873243,0.2754192247464732
9.800000000000008,0.45996204384527156,0.28469389446844884
10.000999999999896,0.465397032960601,0.2968124349793627
10.200999999999786,0.46809589224985787,0.31221471102392606
10.400999999999675,0.47088876687714637,0.3262541367458435
10.600999999999564,0.4746110292912713,0.33501271746504646
10.800999999999453,0.4784850807303641,0.35140613533755827
11.000999999999342,0.4830154863368968,0.36528564854137996
11.200999999999231,0.48916675273953536,0.37845162725137904
11.40099999999912,0.49370548979250833,0.3883817024156011
11.60099999999901,0.4966613134621922,0.402263241908221
11.800999999998899,0.501628556131435,0.4175867627142927
12.000999999998788,0.502557000998124,0.43243157882283334
12.200999999998677,0.5050387430336594,0.4454661748235536
12.400999999998566,0.5049387287289501,0.45974771602012066
12.600999999998455,0.5078779489633967,0.4689746879671957
12.800999999998345,0.5038748737630968,0.48880205638707674
13.000999999998234,0.5038180331381885,0.5006888034081617
13.200999999998123,0.5028314740522177,0.5123821894501385
13.400999999998012,0.5084809318123624,0.5241562424159425
13.600999999997901,0.5118751371378726,0.5334335102063463
13.80099999999779,0.5202197009775918,0.542633769113178
14.00099999999768,0.5150025359448163,0.5618686610762383
14.200999999997569,0.5107408047856945,0.5754686863164362
14.400999999997458,0.5072340053185597,0.5898253325064466
14.600999999997347,0.505057632615121,0.6035118312562847
14.800999999997236,0.503423586492897,0.6155824772671926
15.000999999997125,0.506488733035384,0.625443159896426
15.200999999997014,0.5019969430382759,0.6365762790109127
15.400999999996904,0.4946890782253035,0.6535923866558537
15.600999999996793,0.4886065240880945,0.6687022015574967
15.800999999996682,0.47983168098717194,0.6836508630434479
16.000999999996573,0.47569316631503666,0.6986243537679595
16.200999999996817,0.46817307476634157,0.7132577180968476
16.40099999999706,0.4628004300398962,0.7265442083057764
16.600999999997306,0.4549636595478193,0.7389471883110464
16.80099999999755,0.44146337400192665,0.7493124510971908
17.000999999997795,0.42743659231733466,0.7611282530607768
17.20099999999804,0.40905236145722657,0.7735994834774464
17.400999999998284,0.3949852533285769,0.7874604240980022
17.60099999999853,0.3822373576277266,0.8003052481883008
17.800999999998773,0.3754070221810245,0.8130964281674061
18.000999999999017,0.3673541313955951,0.8238358384763842
18.20099999999926,0.3590852651386268,0.8338118028947085
18.400999999999506,0.3477054989340407,0.8438306309179371
18.60099999999975,0.33356253964040217,0.8531091457046784
18.799999999999994,0.32118055068575846,0.8607973874918682
19.000000000000238,0.31171119970632827,0.8722451571078182
19.200000000000482,0.29686476280503715,0.8832371140650671
19.400000000000727,0.28430651909083643,0.8918850283475895
19.60000000000097,0.2735680310772455,0.9015912790210571
19.800000000001216,0.26391428515467136,0.9102836368908532
20.00000000000146,0.24850454632667196,0.9204601457281233
