Time (s),X (m),Y (m)
0.001,0.0011546366250239817,0.000435790549910003
0.20000000000000015,-0.0007930588425378336,-0.0015097851788483762
0.4000000000000003,0.0041595078870087015,-0.0029846831404155955
0.6000000000000004,0.018531789141828053,-0.0009975654487480478
0.8000000000000006,0.031019562022077604,0.005956943922090075
1.0000000000000007,0.04254673180000906,0.008767857531519862
1.2009999999999785,0.05101601810163815,0.015030164933528219
1.4009999999999565,0.05782468720524782,0.014475558451457338
1.6009999999999345,0.06925285493810228,0.01735428663656769
1.8009999999999124,0.08213324053056549,0.011390092541459134
2.0009999999998906,0.09313798481680484,0.009576893098892836
2.2009999999998686,0.10584056871557682,0.006343121008750437
2.4009999999998466,0.11944956511357542,0.0037638133088132865
2.6009999999998246,0.1401428243803033,-0.0010720356084291847
2.8009999999998025,0.14629643842751205,-0.006785307142102873
3.0009999999997805,0.16166453485072724,-0.016587506951870966
3.2009999999997585,0.17828237828218202,-0.0207923505778762
3.4009999999997365,0.20314939562409307,-0.025477444492837866
3.6009999999997144,0.2266383453924093,-0.0293193258310161
3.8009999999996924,0.2381503709361045,-0.03496580361395067
4.000999999999671,0.2559315393327946,-0.03784301543229123
4.200999999999738,0.27351426574345444,-0.04723702967542835
4.400999999999804,0.2936565989327973,-0.054974924503634615
4.600999999999871,0.3093530715576184,-0.05852981222179797
4.800999999999938,0.3178386557393896,-0.06405005113552338
5.000000000000004,0.33200062124366225,-0.06571115809890102
5.200000000000071,0.35163717159418967,-0.07087445264905597
5.400000000000138,0.3718914418096496,-0.07813229250786298
5.600000000000205,0.39664438515420203,-0.08861627144522921
5.800000000000272,0.4088189512092007,-0.09728579774213021
6.000000000000338,0.42790649508978734,-0.10575130231563325
6.200000000000405,0.4424963752167297,-0.11736978386634206
6.400000000000472,0.46330018044247123,-0.12425250060274007
6.600000000000539,0.4756522408040912,-0.13563225350969432
6.800000000000606,0.4903721977079446,-0.14484956947213498
7.000000000000672,0.5009099591202577,-0.15638371342827762
7.200000000000739,0.5211690644158581,-0.16554727961528917
7.400000000000806,0.5279096233809661,-0.1757425515301353
7.600000000000873,0.5483647259019353,-0.18921093028573366
7.8000000000009395,0.5679752070723656,-0.20067836669910005
8.000000000001005,0.5875660661238203,-0.21557842477677014
8.200000000000895,0.6065597861689181,-0.22740459771264104
8.400000000000784,0.6269834081031652,-0.24048963677631202
8.600000000000673,0.6441651427113531,-0.2577948078863442
8.800000000000562,0.6649374801983622,-0.27604567837285215
9.000000000000451,0.6927512078120295,-0.2961705116429836
9.20000000000034,0.7118012460894576,-0.3127139809212655
9.40000000000023,0.7277194987662532,-0.32736361592790114
9.600000000000119,0.7538119516383701,-0.34090036312571415
9.800000000000008,0.7724739472572815,-0.35784854421900386
10.000999999999896,0.7902481733891821,-0.3767749923459696
10.200999999999786,0.8096687722897761,-0.3947320407712833
10.400999999999675,0.8294735154337622,-0.41049326920185725
10.600999999999564,0.8437227434103824,-0.4202945977753906
10.800999999999453,0.8657532668239636,-0.4348945493059235
11.000999999999342,0.8755735393350432,-0.4495607001065682
11.200999999999231,0.8967783636318223,-0.45804181146851985
11.40099999999912,0.9233390860211707,-0.46132436198156834
11.60099999999901,0.9461300564794582,-0.46948039577304623
11.800999999998899,0.9673320263955202,-0.47736831204111224
12.000999999998788,0.9818370085231211,-0.4868720518563329
12.200999999998677,0.9929915281990961,-0.4893103484452818
12.400999999998566,1.0124549998094343,-0.5010940818177775
12.600999999998455,1.0357646874672375,-0.5171683318170964
12.800999999998345,1.0574734549716471,-0.5360549460989853
13.000999999998234,1.089578508702083,-0.5563173687390736
13.200999999998123,1.1203414304667803,-0.5804697816179273
13.400999999998012,1.1435771552557998,-0.6071566325081965
13.600999999997901,1.1780899113467629,-0.6289281811072462
13.80099999999779,1.20161080563441,-0.6444988551069278
14.00099999999768,1.2225976956452151,-0.6550632565723543
14.200999999997569,1.2401363545718982,-0.6688157249069283
14.400999999997458,1.2570517006850817,-0.6778138884073491
14.600999999997347,1.2780732002299167,-0.6930153230260387
14.800999999997236,1.301852112168271,-0.7080203717026974
15.000999999997125,1.3275770614642697,-0.7225238114547899
15.200999999997014,1.3543665298223935,-0.7354279581333993
15.400999999996904,1.3860029631229636,-0.7460114464556189
15.600999999996793,1.4098439670510752,-0.7572753304945454
15.800999999996682,1.4301583187297897,-0.7714370650570245
16.000999999996573,1.4394588118724028,-0.7857926408985856
16.200999999996817,1.4640998408649124,-0.7940730394459397
16.40099999999706,1.4921617765730109,-0.8092828473993945
16.600999999997306,1.513146994521857,-0.8232215959528453
16.80099999999755,1.5291491091690887,-0.8362080261519141
17.000999999997795,1.5515253700684406,-0.8477446608675118
17.20099999999804,1.5805980517807323,-0.8570453373108898
17.400999999998284,1.6026483599118853,-0.869761722604623
17.60099999999853,1.6278131154576174,-0.88510617820028
17.800999999998773,1.6575381737554724,-0.8981187564689752
18.000999999999017,1.6739730947857736,-0.9125606288304811
18.20099999999926,1.6977217186813707,-0.9275539158306707
18.400999999999506,1.727746851896825,-0.9445184377020875
18.60099999999975,1.743927025269817,-0.9648790523263495
18.799999999999994,1.758331532902431,-0.9777635343865339
19.000000000000238,1.7860563754930443,-0.9908454732467095
19.200000000000482,1.797410750212863,-1.0019513694802102
19.400000000000727,1.8147846103554204,-1.0202833698150142
19.60000000000097,1.838157691116461,-1.0368873492446578
19.800000000001216,1.8602857831812114,-1.0512181425566802
20.00000000000146,1.8861783801282697,-1.066436949154162
