Time (s),X (m),Y (m)
0.001,0.0010647643868879006,0.0005914538325516247
0.20000000000000015,-0.004996471349158981,-0.0037536972770988446
0.4000000000000003,-0.0050257534116679315,-0.00372043292173041
0.6000000000000004,-0.003791683414980104,0.004423348152951893
0.8000000000000006,0.0013656204014547977,0.009884108093647072
1.0000000000000007,0.012545043299523292,0.02021741349183107
1.2009999999999785,0.03550220634805054,0.03194081078295638
1.4009999999999565,0.042529603970422304,0.030243636343830663
1.6009999999999345,0.05604554396189536,0.018882855909273952
1.8009999999999124,0.08239037175136567,0.017693232789455705
2.0009999999998906,0.11894200661086637,0.02556796904571733
2.2009999999998686,0.14996197138837997,0.031430583591210655
2.4009999999998466,0.16148887931880815,0.025769072156096775
2.6009999999998246,0.17225865100790097,0.022660193663311064
2.8009999999998025,0.17939728870985405,0.015110627210905208
3.0009999999997805,0.20170538934331075,0.007848366267586655
3.2009999999997585,0.22941152713621424,0.004350196916484538
3.4009999999997365,0.252482198568781,2.478856195268229e-05
3.6009999999997144,0.2654836496987764,-0.009233431636731545
3.8009999999996924,0.2863533009531798,-0.016618542251702624
4.000999999999671,0.318304649496366,-0.027606032518430183
4.200999999999738,0.3423830763851834,-0.040490449152476245
4.400999999999804,0.369118801129267,-0.05046488959483761
4.600999999999871,0.40531961844822856,-0.05516888108544057
4.800999999999938,0.42772698607702675,-0.06267461109927036
5.000000000000004,0.4487326960666768,-0.07103278862163581
5.200000000000071,0.48110565485738427,-0.08202947456520078
5.400000000000138,0.5022465231641976,-0.09552875095767718
5.600000000000205,0.5226458097194879,-0.108919094157855
5.800000000000272,0.531264982939546,-0.11885405223997135
6.000000000000338,0.5430451620381954,-0.13302702805498415
6.200000000000405,0.5724034666421476,-0.1431060360988532
6.400000000000472,0.5955485270413048,-0.1588970750297073
6.600000000000539,0.6171377568682469,-0.18193864404696827
6.800000000000606,0.6480364191373464,-0.20256006256155465
7.000000000000672,0.6697855950986429,-0.2193890947954439
7.200000000000739,0.6894538832884761,-0.23633500929034917
7.400000000000806,0.7120068471500212,-0.2600729406392856
7.600000000000873,0.7332692217971477,-0.2882461628892382
7.8000000000009395,0.7411777980964002,-0.3142700189353101
8.000000000001005,0.7587899384157021,-0.33741389338200073
8.200000000000895,0.7705438202638021,-0.3520640103553906
8.400000000000784,0.7727790174078446,-0.36071493145509687
8.600000000000673,0.7948506243208091,-0.37042040553377864
8.800000000000562,0.8371145660546941,-0.38417334113096324
9.000000000000451,0.876923621573838,-0.4016789542373955
9.20000000000034,0.9132706009838076,-0.42276292048996544
9.40000000000023,0.935073748978349,-0.44255923273045117
9.600000000000119,0.9591813415327645,-0.466230448873517
9.800000000000008,0.9880759987572373,-0.48853594192497074
10.000999999999896,1.0247460671278823,-0.510108019629522
10.200999999999786,1.0687827965544003,-0.5278349471582386
10.400999999999675,1.1091482952690421,-0.5432490052443475
10.600999999999564,1.1415611675954795,-0.556638957709434
10.800999999999453,1.1682777374435551,-0.5675108427311248
11.000999999999342,1.184653630956523,-0.5842230892334168
11.200999999999231,1.2115082172343619,-0.6013689751891607
11.40099999999912,1.235397719329216,-0.6144727915112983
11.60099999999901,1.2566551982294285,-0.6356526000698814
11.800999999998899,1.2761148830776368,-0.6460829131115279
12.000999999998788,1.3074659010512848,-0.6551673237861447
12.200999999998677,1.3421301880393612,-0.671222207997619
12.400999999998566,1.362432574268406,-0.6909470973554991
12.600999999998455,1.3860002994442044,-0.7149921624481408
12.800999999998345,1.4111611498773486,-0.7408296674638087
13.000999999998234,1.4347897150947628,-0.7587531420365129
13.200999999998123,1.468501095430321,-0.7708144723036667
13.400999999998012,1.5008589627071633,-0.7839059258791138
13.600999999997901,1.5305600450652204,-0.801985296652892
13.80099999999779,1.5693152858080202,-0.8215426772894592
14.00099999999768,1.5880397353494737,-0.8393091046823203
14.200999999997569,1.6059082789807015,-0.8552903544888821
14.400999999997458,1.6268919799744972,-0.8797168071930268
14.600999999997347,1.6533166298634665,-0.9027272882762357
14.800999999997236,1.6895376530904465,-0.9239159297761831
15.000999999997125,1.7184751639248719,-0.9485311686967419
15.200999999997014,1.7416597226444515,-0.9687556308000873
15.400999999996904,1.7758159363156334,-0.9827492472951791
15.600999999996793,1.819218013260746,-0.9968528159001638
15.800999999996682,1.8599145379272028,-1.0149396313690084
16.000999999996573,1.888640039639193,-1.0343236017590312
16.200999999996817,1.9176721635371616,-1.0546362449152293
16.40099999999706,1.9560715053732765,-1.0775761674397073
16.600999999997306,1.9925823853022444,-1.0988964475273053
16.80099999999755,2.030576545776894,-1.1234750239018156
17.000999999997795,2.0504828412804033,-1.1484354944271384
17.20099999999804,2.072574570865445,-1.1661350878350125
17.400999999998284,2.09213368666141,-1.1866441175914684
17.60099999999853,2.1252222638928493,-1.2111345481954259
17.800999999998773,2.158834797343684,-1.228090386054719
18.000999999999017,2.195627884429478,-1.2442796686673314
18.20099999999926,2.2319078867096414,-1.2595264803785098
18.400999999999506,2.26960510753078,-1.275407484213346
18.60099999999975,2.2870326941494272,-1.2920673387129744
18.799999999999994,2.325069100874059,-1.306099061545352
19.000000000000238,2.360363631515666,-1.3203872628611075
19.200000000000482,2.3901736489259173,-1.3305000355428926
19.400000000000727,2.4250560213490022,-1.3386754815483626
19.60000000000097,2.4681906954048354,-1.3496432845973423
19.800000000001216,2.5088020060557734,-1.357308201080926
20.00000000000146,2.5533460560850854,-1.3642371611772712
