Time (s),X (m),Y (m)
0.001,0.00048696676677933824,-0.0009960320817112695
0.20000000000000015,0.0014726671153056697,0.006079326480345107
0.4000000000000003,0.0023602788147913502,0.006822926024114953
0.6000000000000004,0.0045549985626390415,-0.0008644432216600288
0.8000000000000006,0.009443506824790898,-0.0195978755884632
1.0000000000000007,0.02546576291493832,-0.043166839517210835
1.2009999999999785,0.04906126581127756,-0.04269993824126127
1.4009999999999565,0.06919107319622754,-0.0434528445455634
1.6009999999999345,0.09112341250882683,-0.038452819577519344
1.8009999999999124,0.10804035960785076,-0.043362289654436253
2.0009999999998906,0.13409942078970793,-0.051713790854951876
2.2009999999998686,0.16127223084958164,-0.07213088595299792
2.4009999999998466,0.18423006711344161,-0.09185829328371829
2.6009999999998246,0.20583593817474283,-0.11765992734836574
2.8009999999998025,0.2324098318419341,-0.13731402732119102
3.0009999999997805,0.26459898434688256,-0.1454051245523491
3.2009999999997585,0.2908494085490868,-0.15993966462370474
3.4009999999997365,0.3109874619785005,-0.18340853286923173
3.6009999999997144,0.32499524415145964,-0.21916408295789655
3.8009999999996924,0.3401609635407525,-0.26365077165119427
4.000999999999671,0.3620415418941382,-0.30026552391718914
4.200999999999738,0.38353202408432396,-0.3325571066124763
4.400999999999804,0.39817937574152956,-0.3795547499722805
4.600999999999871,0.4269943494765703,-0.4245866566873729
4.800999999999938,0.4575352542307808,-0.4614952350127007
5.000000000000004,0.4852955386324103,-0.49918165871140746
5.200000000000071,0.49710911735777236,-0.5411417544372771
5.400000000000138,0.5066878506300343,-0.5800049657887911
5.600000000000205,0.517338785487105,-0.6133183512074749
5.800000000000272,0.532017118546463,-0.6424053863566368
6.000000000000338,0.5394910869612525,-0.6749332075220097
6.200000000000405,0.555862188022608,-0.7079057439347938
6.400000000000472,0.5718626544679403,-0.7418309980359209
6.600000000000539,0.5913003737073651,-0.7799546464626623
6.800000000000606,0.6085732099298389,-0.8081085089303277
7.000000000000672,0.627742765119862,-0.842492147436789
7.200000000000739,0.6528296079756652,-0.8752908784477439
7.400000000000806,0.6917903408478339,-0.9004397208099498
7.600000000000873,0.713080552799367,-0.9353935157377988
7.8000000000009395,0.7229209127606158,-0.9755458418615632
8.000000000001005,0.7410677996075931,-1.0218099377385177
8.200000000000895,0.7667229434967757,-1.058647523584633
8.400000000000784,0.7967523473620621,-1.1028786277415932
8.600000000000673,0.8180263702037689,-1.1447528475127853
8.800000000000562,0.8323818823054934,-1.182008187896342
9.000000000000451,0.84257466880326,-1.2139947127570512
9.20000000000034,0.8653582416502978,-1.2464890199308296
9.40000000000023,0.8932790682924369,-1.2782684603154597
9.600000000000119,0.9190240989781808,-1.3127546041140608
9.800000000000008,0.9257007328857917,-1.3520177248432486
10.000999999999896,0.9228378348438931,-1.3915134348880556
10.200999999999786,0.9202438015663639,-1.4271763249102374
10.400999999999675,0.9342564638277929,-1.466476623529184
10.600999999999564,0.9334583418492843,-1.5021365765215942
10.800999999999453,0.9296441140252056,-1.536105628780745
11.000999999999342,0.9126731525534582,-1.560371973482246
11.200999999999231,0.8970812519198331,-1.593708379879901
11.40099999999912,0.8661386292846872,-1.6284767469704218
11.60099999999901,0.8361622635999258,-1.6677304834939843
11.800999999998899,0.8187774926224226,-1.7060236541952067
12.000999999998788,0.8035972373959911,-1.7394002930430288
12.200999999998677,0.7921861929557339,-1.7761618797214354
12.400999999998566,0.7636314986303269,-1.8107712368542115
12.600999999998455,0.7437147347939735,-1.8513169157253309
12.800999999998345,0.7297852953071253,-1.8933621897613586
13.000999999998234,0.7197456886012743,-1.9340907388592627
13.200999999998123,0.7108647115732447,-1.9723751607349327
13.400999999998012,0.6835635369999348,-2.000456159762815
13.600999999997901,0.6504996295788954,-2.0290011079650805
13.80099999999779,0.61433797389125,-2.0501395385386685
14.00099999999768,0.5768974952119655,-2.0537752603514114
14.200999999997569,0.5386668259309698,-2.0466764384735416
14.400999999997458,0.4994954755984138,-2.0391710007994206
14.600999999997347,0.4663609665009609,-2.0116044402779383
14.800999999997236,0.42778518904324114,-1.9815805549521905
15.000999999997125,0.39116363989358266,-1.9616985992107856
15.200999999997014,0.3666142662847895,-1.934702392953713
15.400999999996904,0.34212245047669115,-1.9150226288886012
15.600999999996793,0.3159870908702258,-1.8922307149224882
15.800999999996682,0.27945573969650556,-1.8743140333873944
16.000999999996573,0.25506533956926836,-1.839221324228638
16.200999999996817,0.23960536657414386,-1.810482885808062
16.40099999999706,0.21462909153292573,-1.7810830433716511
16.600999999997306,0.18916454522665183,-1.7503632693342275
16.80099999999755,0.1629617911534203,-1.7301099802745663
17.000999999997795,0.14857419879350536,-1.704661901899993
17.20099999999804,0.14759887937936425,-1.6573469656216464
17.400999999998284,0.147745065096334,-1.6081895762106835
17.60099999999853,0.13723850348227953,-1.5722254562268054
17.800999999998773,0.12967465396934444,-1.5343428790714617
18.000999999999017,0.12342375465805226,-1.4950138970471734
18.20099999999926,0.11714958692753359,-1.455645881684487
18.400999999999506,0.10814582866794521,-1.4096918995552339
18.60099999999975,0.10740163380318991,-1.3667410029076035
18.799999999999994,0.12762853824892853,-1.3321336272382793
19.000000000000238,0.13982429206808253,-1.2984142815532376
19.200000000000482,0.15881434015478946,-1.2611530129674586
19.400000000000727,0.18137422091807448,-1.2269721363300548
19.60000000000097,0.2111178107093853,-1.1957187269260299
19.800000000001216,0.23160662515222152,-1.1696314244472903
20.00000000000146,0.2441237089363721,-1.1347433190798089
