Time (s),X (m),Y (m)
0.001,-0.0007144750753253542,0.00043579054991000265
0.20000000000000015,0.0018469444738960538,-0.000173830669848862
0.4000000000000003,0.0022344153357884695,-9.024282975419399e-05
0.6000000000000004,0.004328171838496173,-0.0011402733074771148
0.8000000000000006,0.006924094624589176,-0.0017169498526246293
1.0000000000000007,0.008948273201367003,-0.003351475035704261
1.2009999999999785,0.012109490799821206,-0.003152243866283914
1.4009999999999565,0.014418616105822324,-0.003636563225564287
1.6009999999999345,0.01698888437238571,-0.004768828255281301
1.8009999999999124,0.01950995579681881,-0.005744585273396796
2.0009999999998906,0.022896521797809846,-0.0069117034024773994
2.2009999999998686,0.025402939930606185,-0.007853518816255291
2.4009999999998466,0.02850810434918452,-0.009036864178528357
2.6009999999998246,0.031214003960837962,-0.010003112275961233
2.8009999999998025,0.03411940269479731,-0.01106781217355293
3.0009999999997805,0.03689877481726592,-0.011973304061099196
3.2009999999997585,0.0392294051187471,-0.012760558847920992
3.4009999999997365,0.04237187236423765,-0.013632388993854964
3.6009999999997144,0.04484296844369038,-0.014507919974435872
3.8009999999996924,0.047895242218516564,-0.015291533062762175
4.000999999999671,0.05069436305989435,-0.0158905930661864
4.200999999999738,0.054057648531668466,-0.016748030053614207
4.400999999999804,0.05718694167129086,-0.01742391033124693
4.600999999999871,0.060181475903381465,-0.018111512137027875
4.800999999999938,0.06337853588913378,-0.018758813697807273
5.000000000000004,0.06592983677193873,-0.019129037349600534
5.200000000000071,0.06944792329435755,-0.01947517862913309
5.400000000000138,0.0730381685614608,-0.019979949170230327
5.600000000000205,0.07650235041951195,-0.020206277855594174
5.800000000000272,0.08000256404846848,-0.02048912899624799
6.000000000000338,0.08330797660941701,-0.020618025391993013
6.200000000000405,0.08658439699815397,-0.02090290464450706
6.400000000000472,0.0897915228533234,-0.020841306536666222
6.600000000000539,0.09291557114961346,-0.020859385631093127
6.800000000000606,0.09595942396521316,-0.02053583927695202
7.000000000000672,0.09901624675567594,-0.02035642663843853
7.200000000000739,0.10192316742947473,-0.019848677140969866
7.400000000000806,0.10466379600614427,-0.019350555557297172
7.600000000000873,0.10750859499095182,-0.018515141621213566
7.8000000000009395,0.11017503503600239,-0.01784277669292353
8.000000000001005,0.11281297103638592,-0.01687245554450255
8.200000000000895,0.11576312812909076,-0.01609970061971166
8.400000000000784,0.11851238335919767,-0.014943376991280915
8.600000000000673,0.12136584751038366,-0.0140643390326813
8.800000000000562,0.12407939785293644,-0.01273559918963917
9.000000000000451,0.12685410748972195,-0.011577418643769011
9.20000000000034,0.12935116696429572,-0.010089881799470644
9.40000000000023,0.13240937214085613,-0.008800289492884769
9.600000000000119,0.13529411341223693,-0.007141099244955546
9.800000000000008,0.13739464236119617,-0.003988914583546315
10.000999999999896,0.13896249654565537,0.0038155139869994023
10.200999999999786,0.1399718662973847,0.011118105744189505
10.400999999999675,0.14153355451505234,0.019075777138547956
10.600999999999564,0.142222339955571,0.025816776607348404
10.800999999999453,0.14316505451484474,0.03322475322202785
11.000999999999342,0.1433738090496559,0.039612755011967496
11.200999999999231,0.14344197974681833,0.04618362751999862
11.40099999999912,0.1434173055088377,0.0525311546604333
11.60099999999901,0.1435738951028866,0.059369445566676185
11.800999999998899,0.14366880658071857,0.06569990407630576
12.000999999998788,0.1432771892455527,0.07218978195292018
12.200999999998677,0.1424943491943037,0.07857820320295936
12.400999999998566,0.14159583427758382,0.08440414798657923
12.600999999998455,0.14061632838305504,0.09044993312491617
12.800999999998345,0.1391532839425212,0.09580491174221761
13.000999999998234,0.13770705723595109,0.10124043207775081
13.200999999998123,0.13618678950208432,0.10699680715078735
13.400999999998012,0.13463131907769638,0.11173233795803564
13.600999999997901,0.1330331722187858,0.11720167393202982
13.80099999999779,0.13159410557188309,0.12177566919879954
14.00099999999768,0.13003964451133251,0.12715463500820143
14.200999999997569,0.1281401797450154,0.13189295741861617
14.400999999997458,0.12604712553321298,0.13679370550825287
14.600999999997347,0.12428042016463406,0.14109304135176282
14.800999999997236,0.12206688783821905,0.14537403858234327
15.000999999997125,0.1203950438561792,0.1502684047280901
15.200999999997014,0.1179969721311154,0.15438881958486822
15.400999999996904,0.11597599640269377,0.15843210751504427
15.600999999996793,0.11379524744352205,0.16240479398192206
15.800999999996682,0.11180759339568466,0.16600407243413667
16.000999999996573,0.1095708168624077,0.16980400315407992
16.200999999996817,0.10760595143808058,0.17325470680598679
16.40099999999706,0.10722473679643438,0.17636351859822907
16.600999999997306,0.10990732349920647,0.1794389274149043
16.80099999999755,0.1125114310467023,0.18242610290204206
17.000999999997795,0.11545035095803532,0.18542711568435544
17.20099999999804,0.1181165592282306,0.18846064790634667
17.400999999998284,0.12099242003593942,0.19177087064734977
17.60099999999853,0.12360227096492918,0.19520775330112677
17.800999999998773,0.12642160646544454,0.19884922893850784
18.000999999999017,0.12901211710190333,0.20251908261631638
18.20099999999926,0.13143458909402808,0.20599036097038242
18.400999999999506,0.13345227886578442,0.2094904869192223
18.60099999999975,0.1357132054880068,0.21295938222655392
18.799999999999994,0.1374837264851063,0.21637778373401229
19.000000000000238,0.1395856924290053,0.219936856245641
19.200000000000482,0.14131065053469422,0.2237354846736506
19.400000000000727,0.14308394177372666,0.22727357002379395
19.60000000000097,0.1444856178861902,0.2309275713174061
19.800000000001216,0.14602028486022087,0.23461768360483423
20.00000000000146,0.14742540352408653,0.2383628392048113
