Time (s),X (m),Y (m)
0.001,4.1020280575708355e-05,-0.0010155025257856578
0.20000000000000015,0.004996597359114376,0.003696324660141249
0.4000000000000003,0.015244955067225565,-0.0003894313733689761
0.6000000000000004,0.03441597713443717,0.0033419467050420652
0.8000000000000006,0.06827035645779841,0.005284945338925325
1.0000000000000007,0.10197143965119705,0.005784497984679806
1.2009999999999785,0.12334522617858432,-0.004588376700999294
1.4009999999999565,0.1386923296029166,-0.028480419296049497
1.6009999999999345,0.1371909099543975,-0.0562204215965713
1.8009999999999124,0.1344039202099294,-0.09389402182617351
2.0009999999998906,0.12224207295037694,-0.13832224962429687
2.2009999999998686,0.11304827258658183,-0.1809743837419648
2.4009999999998466,0.09219493242522475,-0.21787300994301043
2.6009999999998246,0.0757884445774712,-0.25837266478421955
2.8009999999998025,0.0578242469857116,-0.2937556155083775
3.0009999999997805,0.038106050793009445,-0.3344797859901854
3.2009999999997585,0.008726998878819026,-0.3692187921480343
3.4009999999997365,-0.029952680379051584,-0.39595935784227804
3.6009999999997144,-0.06557235665635684,-0.3900958880871606
3.8009999999996924,-0.10197470319043614,-0.3717111277776498
4.000999999999671,-0.14284582014838781,-0.3540669132141466
4.200999999999738,-0.1941609231254153,-0.33521764001414517
4.400999999999804,-0.23224550139122954,-0.3060581944266079
4.600999999999871,-0.2592176712272748,-0.26741819759356167
4.800999999999938,-0.259826186967893,-0.22344159751698472
5.000000000000004,-0.25147496666414015,-0.1783712513972957
5.200000000000071,-0.24606724124455445,-0.13146232786664402
5.400000000000138,-0.24671343644622243,-0.07565207164600771
5.600000000000205,-0.24745787478151166,-0.017235275757951505
5.800000000000272,-0.2375375159307718,0.04340162634560288
6.000000000000338,-0.22501678779330989,0.112943221893657
6.200000000000405,-0.20677334613492562,0.1601655815021117
6.400000000000472,-0.1786429409245752,0.1992214910836108
6.600000000000539,-0.14286153095824033,0.21371745836276018
6.800000000000606,-0.10056401516761541,0.23107326713115078
7.000000000000672,-0.05259363073098079,0.24552836366072758
7.200000000000739,-0.005889647420964351,0.23452430037935096
7.400000000000806,0.04459669170400061,0.23620067846199666
7.600000000000873,0.1051711227219913,0.2621300540948479
7.8000000000009395,0.15971719931656292,0.2692196148824117
8.000000000001005,0.21627070588311578,0.26087615588275037
8.200000000000895,0.27203327633424945,0.2815332298687746
8.400000000000784,0.33218160164610216,0.3002649351237862
8.600000000000673,0.39404166259803025,0.3126586010953904
8.800000000000562,0.460080804212279,0.3251378453040943
9.000000000000451,0.5170071277656623,0.32918304580490626
9.20000000000034,0.5644517118150031,0.32502143085503
9.40000000000023,0.6108144369187979,0.31232438644777283
9.600000000000119,0.6489223333973797,0.28940100645901906
9.800000000000008,0.6813199056721636,0.2584449610638724
10.000999999999896,0.7135031241452472,0.2247709477911127
10.200999999999786,0.7284839596720372,0.18482354743483714
10.400999999999675,0.7376694690916894,0.13148424027397523
10.600999999999564,0.7258967843017566,0.08130376022564095
10.800999999999453,0.7240729522380698,0.019396179516898503
11.000999999999342,0.7172065555020943,-0.047027212760711964
11.200999999999231,0.7136999817624701,-0.1088988618750826
11.40099999999912,0.7003875827972553,-0.1618362921443889
11.60099999999901,0.6803864134109088,-0.2086334533398123
11.800999999998899,0.659587861948866,-0.25098137686288235
12.000999999998788,0.6437551726306863,-0.3026541607171898
12.200999999998677,0.6259312495672931,-0.35310645870535506
12.400999999998566,0.5971638210581541,-0.3943540881108631
12.600999999998455,0.5654998323659244,-0.4143967728741409
12.800999999998345,0.537912887882562,-0.4126077132752945
13.000999999998234,0.49196311420529404,-0.39954684312053085
13.200999999998123,0.4593220907314116,-0.37285375192998005
13.400999999998012,0.4232766083908068,-0.33231066016983535
13.600999999997901,0.39179035462563305,-0.28741725062354373
13.80099999999779,0.3724475609234067,-0.24250034947702018
14.00099999999768,0.34297783644090574,-0.1932596026305933
14.200999999997569,0.304806118931318,-0.1388760802865007
14.400999999997458,0.2760923311411637,-0.07452516681559274
14.600999999997347,0.25906948320696854,-0.004758016516710105
14.800999999997236,0.24725895124890557,0.056191505212262564
15.000999999997125,0.23716121671809032,0.11923145120948439
15.200999999997014,0.20577919783932166,0.18302516424089055
15.400999999996904,0.1886581625188644,0.24381643823403443
15.600999999996793,0.18466279425154053,0.29923314159555675
15.800999999996682,0.17882280875953868,0.35236700744305904
16.000999999996573,0.1659794291138688,0.40768236522239804
16.200999999996817,0.15927173598619873,0.46219332132466573
16.40099999999706,0.14892302850359215,0.5214555465946522
16.600999999997306,0.16332925695387973,0.5758575733292308
16.80099999999755,0.18367418637102267,0.6282383105301723
17.000999999997795,0.20201129157406306,0.6817603717755272
17.20099999999804,0.2144290397125861,0.7409356352973672
17.400999999998284,0.2264789323378656,0.799008634273753
17.60099999999853,0.224154019620792,0.8584088159218946
17.800999999998773,0.2108103563379089,0.9196990879095753
18.000999999999017,0.20881003626911854,0.9881584261202765
18.20099999999926,0.21069227332848361,1.036492504595443
18.400999999999506,0.23310973922121367,1.0643492860178925
18.60099999999975,0.2704987414667296,1.0783431165961148
18.799999999999994,0.3030990925877736,1.077567809147609
19.000000000000238,0.3261172482686613,1.0646428708953661
19.200000000000482,0.33320782002568,1.033997602503809
19.400000000000727,0.33555897871327384,0.9899573706343816
19.60000000000097,0.3389587078957595,0.9448885666655278
19.800000000001216,0.3522242982797228,0.897439853758712
20.00000000000146,0.36675429376721713,0.8382351836641284
