Time (s),X (m),Y (m)
0.001,0.0010647643868879006,0.0005914538325516247
0.20000000000000015,-0.0021032941673197335,-0.003906977823915351
0.4000000000000003,-0.001016693930719728,-0.010719277243779551
0.6000000000000004,0.0077701540243166915,-0.015213976691126807
0.8000000000000006,0.021540296603949086,-0.018045045059449562
1.0000000000000007,0.023369631538111238,-0.018961491516653297
1.2009999999999785,0.035888598598234345,-0.0234664880494671
1.4009999999999565,0.05578066762513917,-0.03569867117644881
1.6009999999999345,0.08276922382289466,-0.057308228800010505
1.8009999999999124,0.11342604625078748,-0.08744840964629304
2.0009999999998906,0.14932951825565047,-0.12381811203843453
2.2009999999998686,0.18909489011429548,-0.1676323169065274
2.4009999999998466,0.2254590653394712,-0.1994153762006738
2.6009999999998246,0.25885426783440335,-0.22784434585671795
2.8009999999998025,0.2851664973856976,-0.2614869279400511
3.0009999999997805,0.29314254249500465,-0.30071806130864503
3.2009999999997585,0.2806882036580791,-0.3342655695392424
3.4009999999997365,0.25661745185327195,-0.3663807205493123
3.6009999999997144,0.2030134202752072,-0.3954459193663854
3.8009999999996924,0.15316258868888838,-0.4140860879420666
4.000999999999671,0.09890686572575524,-0.4097561681217054
4.200999999999738,0.044574726863532706,-0.3856218707986385
4.400999999999804,-0.008153588765245913,-0.35323960691918455
4.600999999999871,-0.034497044381076834,-0.3201635600791467
4.800999999999938,-0.0384870755714291,-0.2910773496248239
5.000000000000004,-0.02658886831845409,-0.2668262139604646
5.200000000000071,-0.015561144511018216,-0.24738712390638476
5.400000000000138,0.009696919125282541,-0.23146187946426147
5.600000000000205,0.03998870263427519,-0.2335875994854453
5.800000000000272,0.07743091834346355,-0.2475204311091589
6.000000000000338,0.131000788003154,-0.26512411334070574
6.200000000000405,0.18745992107399212,-0.28816030609717946
6.400000000000472,0.2461530845681416,-0.3245078815399706
6.600000000000539,0.30123664013317863,-0.3704915723316487
6.800000000000606,0.3593118031657382,-0.42635214481811956
7.000000000000672,0.4104483374062864,-0.48475927245950523
7.200000000000739,0.4559370617018886,-0.5574329249392964
7.400000000000806,0.4851918605092063,-0.6192356440240686
7.600000000000873,0.4834688885151869,-0.6766133192323892
7.8000000000009395,0.46428115824209937,-0.7326257990464894
8.000000000001005,0.43481194456368316,-0.7808263452452554
8.200000000000895,0.3948744185282731,-0.8321473324923638
8.400000000000784,0.34359341252444825,-0.8912370048038899
8.600000000000673,0.2847407225797706,-0.9456536212233358
8.800000000000562,0.2208958011614993,-0.9855228630814423
9.000000000000451,0.14797507287171952,-1.0126558040801816
9.20000000000034,0.08043114258106551,-1.024405426995622
9.40000000000023,0.02761425831255593,-1.0132448502575915
9.600000000000119,-0.027207902567663343,-0.9844350834252553
9.800000000000008,-0.08460785865106098,-0.9419516186981415
10.000999999999896,-0.14588280219204522,-0.8850198739197311
10.200999999999786,-0.21012504724803108,-0.8109559864603243
10.400999999999675,-0.27068512950730306,-0.7343359410788123
10.600999999999564,-0.31420986529432865,-0.6452446892262712
10.800999999999453,-0.3217204660472254,-0.5707186861250596
11.000999999999342,-0.31114320856285616,-0.5171904003736072
11.200999999999231,-0.278071302673047,-0.49822379746095463
11.40099999999912,-0.23376001296169355,-0.5082136158248849
11.60099999999901,-0.1743626166842825,-0.5286273375850672
11.800999999998899,-0.11740607628931746,-0.5576742491443422
12.000999999998788,-0.05522169093846396,-0.6007820287724265
12.200999999998677,0.0015361605216763364,-0.6508824945343586
12.400999999998566,0.051868372045158914,-0.701942227723829
12.600999999998455,0.09655781532979874,-0.7514517085328606
12.800999999998345,0.13928569676598432,-0.8068500454762747
13.000999999998234,0.18187418082499207,-0.8698054869465521
13.200999999998123,0.22105919065152857,-0.9439319487235076
13.400999999998012,0.25795785978470887,-1.0249443385275714
13.600999999997901,0.2928260653202843,-1.1151146908303495
13.80099999999779,0.3122816020347419,-1.1908516840567307
14.00099999999768,0.3082942951469883,-1.2783716225469894
14.200999999997569,0.2846368674387961,-1.3534476403636873
14.400999999997458,0.23705976449247085,-1.4261038072344472
14.600999999997347,0.17593194408786292,-1.4969765340799697
14.800999999997236,0.10972356034002136,-1.5603415832282583
15.000999999997125,0.04485373321502056,-1.6162928813533097
15.200999999997014,-0.03165214076031321,-1.655049763643699
15.400999999996904,-0.10920886605373871,-1.6642251319579247
15.600999999996793,-0.1848929418928647,-1.6473700368714683
15.800999999996682,-0.25372489835505224,-1.616589484124812
16.000999999996573,-0.31973552154434537,-1.5726176665990594
16.200999999996817,-0.3864650283661072,-1.5193947322832115
16.40099999999706,-0.454570969411781,-1.4630722801498433
16.600999999997306,-0.5322561242763912,-1.4094139849399454
16.80099999999755,-0.6062145395799606,-1.3508145730843764
17.000999999997795,-0.6731777121143495,-1.2859837365842695
17.20099999999804,-0.732472440209278,-1.2215398992507542
17.400999999998284,-0.7826377350461248,-1.1617464701556164
17.60099999999853,-0.7976603908123392,-1.1003759715673305
17.800999999998773,-0.7785546706840548,-1.031183633116623
18.000999999999017,-0.744165182904652,-0.9629017974624134
18.20099999999926,-0.699633183533095,-0.9027524407196862
18.400999999999506,-0.6465629699342571,-0.8431228331236228
18.60099999999975,-0.5849114343954599,-0.7852139165783427
18.799999999999994,-0.520064112937126,-0.7294883651676078
19.000000000000238,-0.4583833998481003,-0.6868619444466737
19.200000000000482,-0.40445651426732926,-0.671767519957114
19.400000000000727,-0.3597052332030788,-0.6884845733858439
19.60000000000097,-0.3246556006445016,-0.7207492124400073
19.800000000001216,-0.27546421830782736,-0.770805269847204
20.00000000000146,-0.20598979479666107,-0.8294151785486622
