Time (s),X (m),Y (m)
0.001,-0.00037137305770231177,-0.0008446836120385868
0.20000000000000015,0.005951528046457537,0.002985187734258752
0.4000000000000003,0.01742088124670507,0.0015704284860681586
0.6000000000000004,0.03569104576879962,0.0061740123364274375
0.8000000000000006,0.05431333266684283,0.009003100999500553
1.0000000000000007,0.07823198041351082,0.007226336102704485
1.2009999999999785,0.10703350185864223,0.0019949749183991467
1.4009999999999565,0.13176358460351004,-0.006060859345041739
1.6009999999999345,0.15639921571308293,-0.02337487063510255
1.8009999999999124,0.17884667920259162,-0.05050054123988187
2.0009999999998906,0.20565387478556996,-0.080989472138989
2.2009999999998686,0.23450353449247938,-0.10745275305079585
2.4009999999998466,0.25286542078779295,-0.13727305803792236
2.6009999999998246,0.27192400621387064,-0.16070087656678822
2.8009999999998025,0.2933184749852423,-0.18205291938982912
3.0009999999997805,0.30940129180835596,-0.21083505348748086
3.2009999999997585,0.33010774345190697,-0.246866631245253
3.4009999999997365,0.35034192120021107,-0.28662637336824603
3.6009999999997144,0.38695701543439937,-0.3314962611407212
3.8009999999996924,0.42079739874165895,-0.3739030071706515
4.000999999999671,0.4574840797862925,-0.4180060960651012
4.200999999999738,0.46802779766704283,-0.46154990151481146
4.400999999999804,0.46821179531388957,-0.5087516714202501
4.600999999999871,0.4789561096354394,-0.5583956629790576
4.800999999999938,0.5051471744787679,-0.6077490623749434
5.000000000000004,0.5335524444325382,-0.6502823955452339
5.200000000000071,0.5482315628092709,-0.6908594842445177
5.400000000000138,0.5625269654434135,-0.7321471824929576
5.600000000000205,0.5823375078485691,-0.7825958387399223
5.800000000000272,0.6031501630533553,-0.8330142747291656
6.000000000000338,0.6317235320966748,-0.8874786789905523
6.200000000000405,0.6791121507848319,-0.9420294845917773
6.400000000000472,0.7315703875848499,-0.9918512340331411
6.600000000000539,0.7828308337754571,-1.0459699880405913
6.800000000000606,0.8249143977851564,-1.1011825731815739
7.000000000000672,0.8566968022554955,-1.1518716554640465
7.200000000000739,0.8751460929946867,-1.1987075826922795
7.400000000000806,0.9077248793733809,-1.2332905277409978
7.600000000000873,0.9508608591308219,-1.2682826582910458
7.8000000000009395,0.9995299546644534,-1.297416252752429
8.000000000001005,1.0400002175016263,-1.3225257376155803
8.200000000000895,1.0843085179397272,-1.3395889447570346
8.400000000000784,1.1254657682809355,-1.3599546744350035
8.600000000000673,1.1811582569994667,-1.3961975957815174
8.800000000000562,1.254195554483502,-1.429460384796428
9.000000000000451,1.3248334725754634,-1.4561522547491401
9.20000000000034,1.3892252272365893,-1.4786916475728693
9.40000000000023,1.43758631588522,-1.5089741286182206
9.600000000000119,1.4567735949210168,-1.548715445394221
9.800000000000008,1.4704886974170737,-1.598995722062139
10.000999999999896,1.499976954938107,-1.6587873725055697
10.200999999999786,1.539731529531605,-1.7159612429322866
10.400999999999675,1.586663845347536,-1.7731516680910946
10.600999999999564,1.6406820914946292,-1.826507359144866
10.800999999999453,1.6865132811794818,-1.8770766207869267
11.000999999999342,1.7382726110787707,-1.933530831212043
11.200999999999231,1.7799860955040772,-1.9901795263720856
11.40099999999912,1.8083580476024823,-2.0498866138060015
11.60099999999901,1.8420490164330126,-2.1149385043643245
11.800999999998899,1.879400539292008,-2.1856674233980984
12.000999999998788,1.9211471222373648,-2.248964192716112
12.200999999998677,1.964190097522639,-2.3038112019331436
12.400999999998566,1.9997152206320352,-2.3563348684673078
12.600999999998455,2.0420596688428168,-2.4112438656831174
12.800999999998345,2.0792399154060917,-2.4713714804759936
13.000999999998234,2.13649045351358,-2.5260310603845144
13.200999999998123,2.2011136838346883,-2.5778656779385303
13.400999999998012,2.259904974189398,-2.625631990059988
13.600999999997901,2.3066406543519813,-2.6824984298462278
13.80099999999779,2.372807261919216,-2.7365873400303355
14.00099999999768,2.4272133075413636,-2.7882095693926723
14.200999999997569,2.467928188358229,-2.832353988795822
14.400999999997458,2.5200336048432885,-2.8739020833982356
14.600999999997347,2.578722066542659,-2.9078050442954684
14.800999999997236,2.6506245274527394,-2.9384510728365654
15.000999999997125,2.7158507779452314,-2.9557067630688167
15.200999999997014,2.773787420883538,-2.978451392144374
15.400999999996904,2.835953376646681,-3.008802293049662
15.600999999996793,2.887090936201365,-3.046832389776974
15.800999999996682,2.9403621997010596,-3.088006839537257
16.000999999996573,3.0110355847134227,-3.124281881036127
16.200999999996817,3.0739728732245717,-3.168707069722912
16.40099999999706,3.129978368299108,-3.2213518022508523
16.600999999997306,3.1770585362267556,-3.2820308337781343
16.80099999999755,3.218427996380853,-3.343927822524154
17.000999999997795,3.252630819707784,-3.406410637796161
17.20099999999804,3.299754926673664,-3.4560630116123088
17.400999999998284,3.3552319813485534,-3.499895863452497
17.60099999999853,3.390679295402103,-3.5473027925976996
17.800999999998773,3.4354243082614424,-3.6030584088264823
18.000999999999017,3.4835333992236377,-3.6688812739839523
18.20099999999926,3.5328245297286687,-3.7334672088134426
18.400999999999506,3.5883938059016,-3.789926469431592
18.60099999999975,3.6617664792357005,-3.841207822002088
18.799999999999994,3.7310672429840337,-3.8873561239980647
19.000000000000238,3.8049024342754096,-3.9244368462676364
19.200000000000482,3.8806209258504025,-3.951043254145594
19.400000000000727,3.961325953495913,-3.975656994451307
19.60000000000097,4.030042175264731,-4.0021359728517725
19.800000000001216,4.077346553028942,-4.035475489720614
20.00000000000146,4.130027031076002,-4.076265033982312
