Time (s),X (m),Y (m)
0.001,0.0012512490639692614,0.0
0.20000000000000015,0.0005929547754580826,0.0006345713250261874
0.4000000000000003,0.007331658102526981,0.0011519829463215077
0.6000000000000004,0.014266144641562686,0.0008697851814408231
0.8000000000000006,0.01949395608349072,-0.00046934024014492717
1.0000000000000007,0.024262307856078538,-1.3786738848102655e-05
1.2009999999999785,0.030913430176872744,0.0029131850230439617
1.4009999999999565,0.043896379027066966,-0.0004885896487837711
1.6009999999999345,0.05437729179843554,0.0009758908574759749
1.8009999999999124,0.06837902608329254,0.002021427285858525
2.0009999999998906,0.08062708950248354,0.003561606562265125
2.2009999999998686,0.08717174232908413,0.00280899016235552
2.4009999999998466,0.0981607589720057,0.000977068189388704
2.6009999999998246,0.10631622003555331,-0.0022866138753484585
2.8009999999998025,0.12861779280401753,-0.006205851040780348
3.0009999999997805,0.1431636913892791,-0.013748627256238228
3.2009999999997585,0.1593356498832331,-0.021582493053479423
3.4009999999997365,0.17146353067779688,-0.029599113353999562
3.6009999999997144,0.188551876721936,-0.03267955278488544
3.8009999999996924,0.21042156371062307,-0.03819340221705276
4.000999999999671,0.2259124776934892,-0.04540681304059886
4.200999999999738,0.24028228669932714,-0.05427960790782407
4.400999999999804,0.24914436377005508,-0.06064416124394342
4.600999999999871,0.2671726404005239,-0.06373260274278421
4.800999999999938,0.27874830733043365,-0.06715641682497883
5.000000000000004,0.29463144370840777,-0.0737860803843734
5.200000000000071,0.3064863614996632,-0.08043832161524059
5.400000000000138,0.32211976694534256,-0.08701134960840384
5.600000000000205,0.337749250443612,-0.09257957295823008
5.800000000000272,0.35281939146445307,-0.09778490455837509
6.000000000000338,0.3706384361334996,-0.10408085651066655
6.200000000000405,0.3858697399275115,-0.1103808902847125
6.400000000000472,0.3984806539758098,-0.11802755643021898
6.600000000000539,0.4153879416849457,-0.12367289181282581
6.800000000000606,0.44047930428970067,-0.13600989278426018
7.000000000000672,0.4570078054598881,-0.14815275300563027
7.200000000000739,0.4766288671279548,-0.15955253739241637
7.400000000000806,0.4957143099571657,-0.16907153112766585
7.600000000000873,0.5200004332617912,-0.17906724085650644
7.8000000000009395,0.5390543467049983,-0.1896180898290802
8.000000000001005,0.553618139403375,-0.19136299477850824
8.200000000000895,0.5705728640369394,-0.20086336748455122
8.400000000000784,0.586808646443406,-0.21710758769255203
8.600000000000673,0.6067059122732479,-0.22912533462065812
8.800000000000562,0.6315237447392972,-0.24485061774669092
9.000000000000451,0.6520652139238574,-0.25549018415590524
9.20000000000034,0.6674337631546544,-0.26519977053793664
9.40000000000023,0.6852278042455191,-0.27719337907977304
9.600000000000119,0.7045084965932188,-0.2900542873139305
9.800000000000008,0.7197069505127843,-0.2995216457127391
10.000999999999896,0.7400125034299463,-0.3115123404145061
10.200999999999786,0.758280574964744,-0.32207783213396163
10.400999999999675,0.7823667660605834,-0.33403180216773615
10.600999999999564,0.8000855584803767,-0.3405363550214175
10.800999999999453,0.8155526977571227,-0.3508606888506365
11.000999999999342,0.8333774480970976,-0.35766633519415914
11.200999999999231,0.8605343334560402,-0.36984028355700915
11.40099999999912,0.877213630716543,-0.38090699753920154
11.60099999999901,0.8919094449982011,-0.39090080511579645
11.800999999998899,0.9160768343656018,-0.40478007389452614
12.000999999998788,0.9432183567971343,-0.4192453408822849
12.200999999998677,0.9705596177703026,-0.4299658622131076
12.400999999998566,0.9915955941604223,-0.43839908211465856
12.600999999998455,1.00986195102808,-0.4472993514628975
12.800999999998345,1.0294493860287564,-0.45760888534571775
13.000999999998234,1.059906336178349,-0.4741625959718494
13.200999999998123,1.0780116777295805,-0.4835265086902332
13.400999999998012,1.0960496169985006,-0.4946742798556861
13.600999999997901,1.1079891323797786,-0.504833939836394
13.80099999999779,1.1205570632655177,-0.5133330116056145
14.00099999999768,1.1379430593927404,-0.5169109585056837
14.200999999997569,1.1598624654399217,-0.526058013375873
14.400999999997458,1.1795839361791665,-0.540819982920199
14.600999999997347,1.1987333804688411,-0.5550027983651359
14.800999999997236,1.2167084655867855,-0.566165940626239
15.000999999997125,1.2366602729037748,-0.5787293542914737
15.200999999997014,1.254239452243534,-0.5891574424850775
15.400999999996904,1.275669455670945,-0.6074399552915203
15.600999999996793,1.2945661857912034,-0.6206083283967976
15.800999999996682,1.3099922140161646,-0.6295139166690863
16.000999999996573,1.329561462750155,-0.6429762116395052
16.200999999996817,1.3456982298396578,-0.6542145439885586
16.40099999999706,1.367585119143216,-0.667769153628939
16.600999999997306,1.3886675823301577,-0.6855586059516801
16.80099999999755,1.4039751745971525,-0.698805990447023
17.000999999997795,1.414846253226466,-0.7027411081078064
17.20099999999804,1.4323504933934286,-0.7093247564189638
17.400999999998284,1.4465317184945865,-0.7193039143229635
17.60099999999853,1.4657148139784513,-0.7338893070825271
17.800999999998773,1.48259444580497,-0.7445705595772468
18.000999999999017,1.4984729871255233,-0.758008482803651
18.20099999999926,1.5172139168214338,-0.7717271511757732
18.400999999999506,1.537830935124109,-0.7878580673144149
18.60099999999975,1.55644002770494,-0.8037964693896057
18.799999999999994,1.5753299244218812,-0.8168342437318759
19.000000000000238,1.5959656564797622,-0.8306376084377988
19.200000000000482,1.6190692547045,-0.8496634459520932
19.400000000000727,1.63644934127488,-0.8633357905887792
19.60000000000097,1.6517777760954018,-0.8795192515600123
19.800000000001216,1.6641524307635183,-0.8980100869646765
20.00000000000146,1.6722744787477115,-0.918516793947707
