Time (s),X (m),Y (m)
0.001,0.0003991412691229187,-0.0010155025257856578
0.20000000000000015,0.001923399688697785,-0.002808237621590204
0.4000000000000003,0.002858707193972109,0.0022719419413255245
0.6000000000000004,0.004367521636184178,0.004433400166630588
0.8000000000000006,0.007568038468197634,-0.00570014165510235
1.0000000000000007,0.013853004570143322,-0.007968704802324122
1.2009999999999785,0.02362932788428834,-0.012449239545716721
1.4009999999999565,0.03521741652675157,-0.015361422443970795
1.6009999999999345,0.043122770292841284,-0.012906742167445551
1.8009999999999124,0.050116702778391725,-0.010814724370794742
2.0009999999998906,0.05867171731058012,-0.01399002596127274
2.2009999999998686,0.06523520924836848,-0.008780398836528478
2.4009999999998466,0.07344062011335577,-0.008029692220335068
2.6009999999998246,0.07877505899069469,-0.010172614012698871
2.8009999999998025,0.0842435561635871,-0.018680471901023007
3.0009999999997805,0.09233597033880798,-0.016725945753371385
3.2009999999997585,0.10073840276572048,-0.012356027104816059
3.4009999999997365,0.11123096486823336,-0.010051151565698326
3.6009999999997144,0.12116928017792594,-0.020289832196500945
3.8009999999996924,0.12889972062443483,-0.023159442577393587
4.000999999999671,0.13762493346724683,-0.023213050966525647
4.200999999999738,0.147898749475465,-0.0359596620620425
4.400999999999804,0.15761805922789046,-0.03654718460110703
4.600999999999871,0.16557588659282182,-0.04144361505499754
4.800999999999938,0.1748928281252117,-0.04951551391206126
5.000000000000004,0.18592945604146924,-0.05360425851813835
5.200000000000071,0.19449077402460477,-0.06257696256212383
5.400000000000138,0.204543960656099,-0.06948225980798411
5.600000000000205,0.20926537972256426,-0.08509629529907972
5.800000000000272,0.22169596974031108,-0.08792700489425948
6.000000000000338,0.2336968595301167,-0.08801490251708431
6.200000000000405,0.24035259399119824,-0.0928073119941133
6.400000000000472,0.24396587099796832,-0.10862792437912278
6.600000000000539,0.2539534550033892,-0.10716475759765129
6.800000000000606,0.26490778038195234,-0.10346266309477826
7.000000000000672,0.2757790529146639,-0.11347153929301364
7.200000000000739,0.28448450831969885,-0.12007832225184159
7.400000000000806,0.2910821678926192,-0.13393823463931603
7.600000000000873,0.29924721630372003,-0.13796757851534236
7.8000000000009395,0.3059109547946231,-0.1402434699596283
8.000000000001005,0.31556854348008057,-0.1477375048115586
8.200000000000895,0.32459892293382175,-0.15156578560045111
8.400000000000784,0.3299668206665757,-0.16501336691381183
8.600000000000673,0.3398052872998125,-0.1710856493100235
8.800000000000562,0.3469931444722658,-0.17858695384805695
9.000000000000451,0.35395203283216276,-0.19041595185951482
9.20000000000034,0.3651485231616155,-0.19483517185491367
9.40000000000023,0.37581399995624815,-0.2004035153136058
9.600000000000119,0.3832192813202513,-0.21072973841695197
9.800000000000008,0.3917515675922452,-0.2150253500454473
10.000999999999896,0.39850509417848806,-0.2138385065153877
10.200999999999786,0.4038567465944476,-0.22386580211796214
10.400999999999675,0.411113032790668,-0.2332579315865288
10.600999999999564,0.4168663846819462,-0.2419773722051099
10.800999999999453,0.4250249326566706,-0.2486224756157782
11.000999999999342,0.4302672197426624,-0.26135687197110963
11.200999999999231,0.4374695717733841,-0.26881799100068704
11.40099999999912,0.444832050670338,-0.27387813413324624
11.60099999999901,0.45528037404296257,-0.2762097064808034
11.800999999998899,0.46474359702108725,-0.2828402797662919
12.000999999998788,0.47043507696693726,-0.2927640297825828
12.200999999998677,0.47803313678373616,-0.2998128475677161
12.400999999998566,0.4882624501790382,-0.3050353618891529
12.600999999998455,0.49938343069691055,-0.3127927285024204
12.800999999998345,0.5083711632113872,-0.3168409816850938
13.000999999998234,0.5182230652941973,-0.3191527762261103
13.200999999998123,0.5294121088128063,-0.32544012182598436
13.400999999998012,0.5401169815713932,-0.33135337517970426
13.600999999997901,0.5512120103598988,-0.3338574320450304
13.80099999999779,0.5592921062695277,-0.34166881281714157
14.00099999999768,0.5633244527629916,-0.3513080594360154
14.200999999997569,0.5705148886144326,-0.36101333559802373
14.400999999997458,0.5807395940267724,-0.36882249912724496
14.600999999997347,0.5928914455139263,-0.37350877940003596
14.800999999997236,0.605806490681427,-0.37831397739297634
15.000999999997125,0.6148948589922845,-0.38937761251642655
15.200999999997014,0.6225833739454496,-0.3947198523677166
15.400999999996904,0.6290603669563871,-0.40685694372655323
15.600999999996793,0.6370971504911985,-0.4127105921462743
15.800999999996682,0.6451842128221152,-0.4221161217368593
16.000999999996573,0.652892538371835,-0.430679290215457
16.200999999996817,0.6587641719670753,-0.4321326071119587
16.40099999999706,0.6664694848310668,-0.43909128602850667
16.600999999997306,0.6741143984342217,-0.4458732914396822
16.80099999999755,0.6820972905459068,-0.4547154508897458
17.000999999997795,0.6903060837969137,-0.458005691547971
17.20099999999804,0.7023193688596714,-0.4644832005192046
17.400999999998284,0.7126450845109734,-0.4717402052019245
17.60099999999853,0.7217197614157823,-0.47730755143486114
17.800999999998773,0.7295517935336695,-0.48355419999588073
18.000999999999017,0.741810905875305,-0.49178509050667235
18.20099999999926,0.7502634417881071,-0.5043116428188026
18.400999999999506,0.7590378577082073,-0.5235892707329894
18.60099999999975,0.7688393808093812,-0.5318526114770011
18.799999999999994,0.7719959114157261,-0.5427603429961655
19.000000000000238,0.7815078585439347,-0.5481517753179658
19.200000000000482,0.7900990284857516,-0.5552957466668884
19.400000000000727,0.7981978657245574,-0.5621185029825221
19.60000000000097,0.8073499481333337,-0.5674447531595357
19.800000000001216,0.8138056925686095,-0.5823083424543434
20.00000000000146,0.8163035802942638,-0.5950416104393395
