Time (s),X (m),Y (m)
0.001,0.0002200807748493132,0.0010311682891199472
0.20000000000000015,0.0021293334354340453,-0.0035314100197239035
0.4000000000000003,0.007089294636992603,-0.011446199798157645
0.6000000000000004,0.023691238864558192,-0.009980330096446936
0.8000000000000006,0.05197329353848679,-0.025001148818716176
1.0000000000000007,0.09818844533895404,-0.03375156140409466
1.2009999999999785,0.1481943031094443,-0.04955771497811667
1.4009999999999565,0.1834084953634051,-0.07226496460162157
1.6009999999999345,0.183375216084513,-0.10585348936058019
1.8009999999999124,0.16199084697511476,-0.14393793932827803
2.0009999999998906,0.144705624484999,-0.19626694255182053
2.2009999999998686,0.11520248616319367,-0.24118576797540547
2.4009999999998466,0.08476630679142463,-0.2901678381465958
2.6009999999998246,0.05171925143290278,-0.3466996012069518
2.8009999999998025,0.012336341298858971,-0.4129983166231835
3.0009999999997805,-0.03238838684085014,-0.45538237853232516
3.2009999999997585,-0.08439823329065177,-0.4670962950019149
3.4009999999997365,-0.13793857791880598,-0.4594736584523587
3.6009999999997144,-0.18509302110986892,-0.4399931906174138
3.8009999999996924,-0.20916859707763363,-0.4082337166117517
4.000999999999671,-0.1995480284502156,-0.37560186826431274
4.200999999999738,-0.1750747410485612,-0.3626128608540589
4.400999999999804,-0.14030619453127613,-0.3627706469796907
4.600999999999871,-0.09210959283180968,-0.35169747468271995
4.800999999999938,-0.035592435354798155,-0.34057652137924543
5.000000000000004,0.028860509857707262,-0.3361203728812841
5.200000000000071,0.09642857748662301,-0.34348553165282114
5.400000000000138,0.164631593776721,-0.36336490902738017
5.600000000000205,0.21696494993116267,-0.39283241430697585
5.800000000000272,0.2383449395561133,-0.4330975953047572
6.000000000000338,0.2388022234945524,-0.47978086859386865
6.200000000000405,0.228917345390304,-0.5398306910457485
6.400000000000472,0.20743811133269904,-0.6071035457833389
6.600000000000539,0.17976106689526758,-0.6566140051728148
6.800000000000606,0.13912528977081426,-0.6749206360395289
7.000000000000672,0.09213743982214871,-0.6670660485089775
7.200000000000739,0.04271768690828313,-0.6493790513920124
7.400000000000806,-0.00245178339211033,-0.6267169303282183
7.600000000000873,-0.027077510303507454,-0.5882637585302717
7.8000000000009395,-0.03167759857318003,-0.5392929673384338
8.000000000001005,-0.01680446669125927,-0.48670879491538005
8.200000000000895,0.013393479988304289,-0.4575156591766194
8.400000000000784,0.06110248772842516,-0.44988318642010844
8.600000000000673,0.10082936147177225,-0.4665018691316689
8.800000000000562,0.12922182025633352,-0.5065678797864397
9.000000000000451,0.12869476762117182,-0.5492111165108304
9.20000000000034,0.11413707716805312,-0.5834092700401655
9.40000000000023,0.08261206377801567,-0.5904848164318112
9.600000000000119,0.040808582697305903,-0.5793835651551213
9.800000000000008,0.0007343411109695948,-0.5562124720360948
10.000999999999896,-0.03876187437523999,-0.5148335370734223
10.200999999999786,-0.09212881252893809,-0.4715650490039022
10.400999999999675,-0.1587007291077977,-0.42049855887903287
10.600999999999564,-0.23142045808428238,-0.35609045150375407
10.800999999999453,-0.26028539712621196,-0.2951368353313133
11.000999999999342,-0.26099986666011643,-0.24531387311157257
11.200999999999231,-0.2420276507703249,-0.2156421216829138
11.40099999999912,-0.2038343200745121,-0.21476230339992758
11.60099999999901,-0.14642520081831117,-0.22135152956011503
11.800999999998899,-0.08126735347154132,-0.23954431557432007
12.000999999998788,-0.020477221975793238,-0.2744019424937188
12.200999999998677,0.03657156101488081,-0.3248958439487683
12.400999999998566,0.06930519873876954,-0.39004351502904505
12.600999999998455,0.07409770867523674,-0.4515229483808462
12.800999999998345,0.05854348116202202,-0.49760122412872454
13.000999999998234,0.02220997385663746,-0.5109658784081912
13.200999999998123,-0.016482707206534462,-0.502594361703283
13.400999999998012,-0.06740664831985428,-0.4834205185244807
13.600999999997901,-0.10232822597588759,-0.4406589133099787
13.80099999999779,-0.11627381012389566,-0.3963093347148974
14.00099999999768,-0.11571493950207382,-0.3907789505065155
14.200999999997569,-0.08729207372545617,-0.40862476408256176
14.400999999997458,-0.04623333134154564,-0.44129630578561896
14.600999999997347,-0.029736663687107617,-0.48821029444617553
14.800999999997236,-0.04445350707049474,-0.5263697660903213
15.000999999997125,-0.06694063262388997,-0.5767978185822653
15.200999999997014,-0.0929307322495496,-0.6229637800219504
15.400999999996904,-0.12612336284045098,-0.6388869783891203
15.600999999996793,-0.17130872081343806,-0.6410535914081272
15.800999999996682,-0.2320060319913284,-0.6299869536712253
16.000999999996573,-0.2865549513119025,-0.6023225748450589
16.200999999996817,-0.3256938199213282,-0.5655095573176085
16.40099999999706,-0.33766739186012656,-0.5189875860927539
16.600999999997306,-0.34113788930001926,-0.45882799148309866
16.80099999999755,-0.3310532687423849,-0.3919289613518284
17.000999999997795,-0.30804792940588754,-0.33514491868008794
17.20099999999804,-0.2678341731079806,-0.3110791046192633
17.400999999998284,-0.21331661395070742,-0.3031062219889543
17.60099999999853,-0.1543184185276286,-0.30929720839879277
17.800999999998773,-0.09059753493795412,-0.332028093517109
18.000999999999017,-0.058709730511197274,-0.37472749883479245
18.20099999999926,-0.05447987910585651,-0.42572317735974546
18.400999999999506,-0.062150599884687345,-0.48047442489589115
18.60099999999975,-0.07932627895491158,-0.5169325780076409
18.799999999999994,-0.11470999745518441,-0.5368676002909594
19.000000000000238,-0.16258754830866243,-0.5446091241947767
19.200000000000482,-0.21848941625772964,-0.5326739908018854
19.400000000000727,-0.24738963853988136,-0.5020186014289214
19.60000000000097,-0.24794879314215335,-0.45714173889110893
19.800000000001216,-0.23055378008427976,-0.41322843544505955
20.00000000000146,-0.19931427022679757,-0.39722642764551025
