Time (s),X (m),Y (m)
0.001,-0.0007489004572251305,-0.00035268032603768894
0.20000000000000015,0.0018374712504946854,0.00011367894692245553
0.4000000000000003,0.002688740318167402,7.681117430653343e-05
0.6000000000000004,0.004331148669871223,0.0002764668889552519
0.8000000000000006,0.007234485999318182,0.001201923521976584
1.0000000000000007,0.009498625319988687,0.002179740745239878
1.2009999999999785,0.012181413415088922,0.0032524951755120825
1.4009999999999565,0.014224109531343504,0.0041753058936408235
1.6009999999999345,0.016110000323580728,0.004830296318654382
1.8009999999999124,0.01692061287582485,0.005434329308013666
2.0009999999998906,0.01843232290991288,0.0059504440580851045
2.2009999999998686,0.0191073417478129,0.00632465730163766
2.4009999999998466,0.019780690150345424,0.007017857864486005
2.6009999999998246,0.021824874764945924,0.008850264551375733
2.8009999999998025,0.023423353924413148,0.009741536575659737
3.0009999999997805,0.02473669233210251,0.010279161422225637
3.2009999999997585,0.02597040229739282,0.010821153735702587
3.4009999999997365,0.027224551415697018,0.011391002564365166
3.6009999999997144,0.02834805677340117,0.01194485667894728
3.8009999999996924,0.029539087846676245,0.01257704437316235
4.000999999999671,0.030699740004382362,0.013224647461593
4.200999999999738,0.0319530288718927,0.013942260196805148
4.400999999999804,0.033214807179004255,0.014692006770368055
4.600999999999871,0.03443577914884292,0.015426371701844575
4.800999999999938,0.03567530212726974,0.016194102240542352
5.000000000000004,0.03694004712430363,0.017026383239331245
5.200000000000071,0.03819623570886176,0.017850628226722648
5.400000000000138,0.039480062049476,0.018725005524055118
5.600000000000205,0.04065275295001846,0.019575051284122104
5.800000000000272,0.041929817627107804,0.020488690722681183
6.000000000000338,0.043137616039164314,0.02139618585405631
6.200000000000405,0.0444175692121603,0.022353274641007927
6.400000000000472,0.045634493954309775,0.023302039067749733
6.600000000000539,0.04683800747542799,0.024254309136053108
6.800000000000606,0.0480889751448854,0.025275734651508258
7.000000000000672,0.049162612374239044,0.02639617613185665
7.200000000000739,0.05010718829363701,0.027762275613739062
7.400000000000806,0.051265047258215464,0.029942519238434353
7.600000000000873,0.05236091395520544,0.03220246143942977
7.8000000000009395,0.053015174178202895,0.034172922467881846
8.000000000001005,0.05350756596935807,0.03605288126184055
8.200000000000895,0.05320112849177263,0.03696005209696975
8.400000000000784,0.05298346920591537,0.03794596240994565
8.600000000000673,0.05335570408310571,0.0399579939821465
8.800000000000562,0.05389515806002314,0.04218548626706577
9.000000000000451,0.05386040559401942,0.043506141250118084
9.20000000000034,0.05345493549103056,0.04415439556146868
9.40000000000023,0.052685407431462966,0.04440517558024444
9.600000000000119,0.05292830888017455,0.04658188176874564
9.800000000000008,0.05380601122758947,0.04961326115800489
10.000999999999896,0.054249338958428706,0.052163001446235036
10.200999999999786,0.054347757546403044,0.05434438667722246
10.400999999999675,0.05459872614321089,0.05679587592524159
10.600999999999564,0.05473198394895212,0.05943429631845463
10.800999999999453,0.05466674489354489,0.06135438368659183
11.000999999999342,0.05433102142023796,0.0627374216624914
11.200999999999231,0.05413527624521894,0.06491965871382796
11.40099999999912,0.05387395792873239,0.06697453500702077
11.60099999999901,0.053616487650884996,0.06940341727006359
11.800999999998899,0.05335137571032823,0.07185913203524408
12.000999999998788,0.05292923173652779,0.07422096249434995
12.200999999998677,0.05236451809036299,0.07628261609813311
12.400999999998566,0.05170947804226729,0.07774112188767268
12.600999999998455,0.050973082693268716,0.07979614573188679
12.800999999998345,0.05041438540783935,0.08025407161282105
13.000999999998234,0.049711115131893205,0.0799476744227704
13.200999999998123,0.04875248126263212,0.08007214302840165
13.400999999998012,0.04756363308480611,0.08123097791958368
13.600999999997901,0.046046239189475105,0.0832218057216922
13.80099999999779,0.04471636546671121,0.0842514409814375
14.00099999999768,0.04398340562508976,0.08397157435143836
14.200999999997569,0.04350701803821232,0.08293014415714646
14.400999999997458,0.04276540733783045,0.08215342504703864
14.600999999997347,0.04235138848249463,0.08107135145224963
14.800999999997236,0.042349004805256635,0.07947184257922972
15.000999999997125,0.042356196115973896,0.07800091734160498
15.200999999997014,0.04253017879670562,0.07716076281132574
15.400999999996904,0.042321934876093786,0.07677056623199179
15.600999999996793,0.040813754591758324,0.07705958745075563
15.800999999996682,0.03781825709961593,0.0786130911814822
16.000999999996573,0.03596646110072054,0.07895543983162269
16.200999999996817,0.03449291578840383,0.07886249393940999
16.40099999999706,0.03289811675263471,0.07891214182698053
16.600999999997306,0.03083337325718921,0.07935096930110147
16.80099999999755,0.028274301199654527,0.08011651759841905
17.000999999997795,0.026008362903371742,0.08062470866981855
17.20099999999804,0.02504400101843618,0.08036049297153099
17.400999999998284,0.025142519445025113,0.08005190655407768
17.60099999999853,0.025358752390709848,0.07952870256211975
17.800999999998773,0.026050691952665562,0.07844213907702396
18.000999999999017,0.02529976157643862,0.07906342557741487
18.20099999999926,0.02528137818029258,0.07848372746567625
18.400999999999506,0.02605824143440196,0.07766048601812343
18.60099999999975,0.026993062071636577,0.07685975207379117
18.799999999999994,0.02721967290752423,0.07646902439457869
19.000000000000238,0.027470827011390114,0.07569992700780295
19.200000000000482,0.027931986683376462,0.07509606986203017
19.400000000000727,0.028384303523313874,0.07435980938502929
19.60000000000097,0.02836421377380454,0.07378969825931153
19.800000000001216,0.026186205121961924,0.07337096396954175
20.00000000000146,0.02385524087267359,0.07311223604668142
