Time (s),X (m),Y (m)
0.001,0.0008829029745972832,-0.0007899207378008392
0.20000000000000015,0.0025553456019713596,-0.00039904583466479165
0.4000000000000003,0.012489237145300654,0.004185157676726751
0.6000000000000004,0.030645798323477337,0.0019191107158917588
0.8000000000000006,0.0657498055156147,-0.025962062146660598
1.0000000000000007,0.10010185211816147,-0.05205035169291624
1.2009999999999785,0.13263723654975434,-0.052643939428834066
1.4009999999999565,0.16515843065929825,-0.07021046494098926
1.6009999999999345,0.19953633691176237,-0.09754957203715856
1.8009999999999124,0.2328649678200556,-0.12852390451620663
2.0009999999998906,0.2653591188601248,-0.1589568066389873
2.2009999999998686,0.280458990434912,-0.1954191619370963
2.4009999999998466,0.28792524106056394,-0.2280856294584718
2.6009999999998246,0.2740398660742214,-0.26514161896796845
2.8009999999998025,0.23462920663167602,-0.30126957654048625
3.0009999999997805,0.20053075833931117,-0.33257912966785014
3.2009999999997585,0.16098605920484557,-0.3554823915926903
3.4009999999997365,0.11239812946669275,-0.37428209465006695
3.6009999999997144,0.05157619940172012,-0.38751188935823877
3.8009999999996924,-0.021855252345635626,-0.3901678024962398
4.000999999999671,-0.09462215568919083,-0.38482543753052334
4.200999999999738,-0.16519415104541732,-0.3835264955693366
4.400999999999804,-0.23099792419067813,-0.3779818615086536
4.600999999999871,-0.28218200974851715,-0.3543008236828251
4.800999999999938,-0.31811466345585876,-0.3193936741692933
5.000000000000004,-0.3351928767798452,-0.27057870723924615
5.200000000000071,-0.3322065664943848,-0.2130385351433781
5.400000000000138,-0.3209384613985372,-0.1539600371521131
5.600000000000205,-0.2951699459551135,-0.09870308300979978
5.800000000000272,-0.25495388995982887,-0.05504919919749154
6.000000000000338,-0.2224303806846375,-0.022879179721877085
6.200000000000405,-0.16867337124764067,0.00037583922445642924
6.400000000000472,-0.10787852255150861,0.01362245316679039
6.600000000000539,-0.048983057484556995,0.029113851408429803
6.800000000000606,0.007488425519954785,0.05454948805974822
7.000000000000672,0.06601221093339467,0.058854080159515064
7.200000000000739,0.11845898081304412,0.0379285619020544
7.400000000000806,0.1611901458038582,0.005739295631007853
7.600000000000873,0.19261335873910757,-0.03605505220993959
7.8000000000009395,0.220456361384252,-0.08603877759754235
8.000000000001005,0.240382005335972,-0.14587463855835203
8.200000000000895,0.23220564918799785,-0.20736523981846286
8.400000000000784,0.19681546761648974,-0.26588907833246994
8.600000000000673,0.17082510405175175,-0.3099076957349176
8.800000000000562,0.11854360918918909,-0.3315380052598895
9.000000000000451,0.046336737854380444,-0.33221963839645036
9.20000000000034,-0.024724963810100052,-0.3241338261485516
9.40000000000023,-0.0948642631069226,-0.29973565059610774
9.600000000000119,-0.15786709137529234,-0.2636017915984182
9.800000000000008,-0.20419001159809114,-0.2258007205350214
10.000999999999896,-0.20928477516873947,-0.17832322257857075
10.200999999999786,-0.18541425463685518,-0.1305247312362091
10.400999999999675,-0.13603969540241034,-0.09407893998747499
10.600999999999564,-0.0696872988739829,-0.06570287347517115
10.800999999999453,-7.880138775583018e-05,-0.0415776273324628
11.000999999999342,0.05747204964314077,-0.024674057117644893
11.200999999999231,0.1095575053715607,-0.007440624404198938
11.40099999999912,0.16199003035185697,0.01331406399230226
11.60099999999901,0.2215434904306509,0.02404674779370558
11.800999999998899,0.2837901212620406,0.016517262010157827
12.000999999998788,0.33592358839730857,-0.012638977517407406
12.200999999998677,0.3738387536960911,-0.06481351330779024
12.400999999998566,0.39530081185923815,-0.13635207513559103
12.600999999998455,0.40579099224879595,-0.21925363319873906
12.800999999998345,0.4167543270580478,-0.29962447477061227
13.000999999998234,0.43825375367353947,-0.3557868264262748
13.200999999998123,0.45817103335023407,-0.40918443405875243
13.400999999998012,0.4711639863465621,-0.465198561958213
13.600999999997901,0.4692649101207363,-0.5284438822466637
13.80099999999779,0.46989753858375427,-0.5939764747318995
14.00099999999768,0.4510836152998411,-0.6585798712279521
14.200999999997569,0.4152859118650452,-0.7086991855427166
14.400999999997458,0.3621506118883771,-0.7388860454649014
14.600999999997347,0.30611520047992363,-0.7573756684466656
14.800999999997236,0.2469953375611217,-0.7527183923451161
15.000999999997125,0.19044970491159918,-0.7167634135059093
15.200999999997014,0.14482053326097857,-0.6657391112120068
15.400999999996904,0.11045979804428846,-0.6153716186577471
15.600999999996793,0.07910810999734617,-0.5604366599825529
15.800999999996682,0.05360936293578852,-0.5039214642403911
16.000999999996573,0.04681330011243607,-0.44872863080559433
16.200999999996817,0.06842797081966279,-0.41070310486704664
16.40099999999706,0.11344342612692836,-0.39751933612870005
16.600999999997306,0.16347177582929004,-0.3999933467059866
16.80099999999755,0.21356334881246422,-0.4196804242622169
17.000999999997795,0.2484752078581051,-0.4588107965061514
17.20099999999804,0.2767476639477193,-0.4979095016132006
17.400999999998284,0.2991676607927325,-0.5415314216732889
17.60099999999853,0.2955444784923573,-0.5960257128822679
17.800999999998773,0.2798365664845573,-0.6532768315539904
18.000999999999017,0.24865971207853751,-0.7052364883140377
18.20099999999926,0.19404564207096037,-0.7456180006429528
18.400999999999506,0.13145087578933515,-0.7736048498532366
18.60099999999975,0.07245922201635464,-0.797996107130436
18.799999999999994,0.01323297254177226,-0.7926808367558354
19.000000000000238,-0.036441518751235774,-0.7629331483504515
19.200000000000482,-0.06418802373225033,-0.7085000790567437
19.400000000000727,-0.06531456758701605,-0.6375528193675666
19.60000000000097,-0.06804774131290499,-0.5661524843933295
19.800000000001216,-0.05630665825653887,-0.49631302046927817
20.00000000000146,-0.04536524481878911,-0.42648091869848725
