Time (s),X (m),Y (m)
0.001,-0.0005698399629515257,0.0006628221997479692
0.20000000000000015,0.003878589676952194,-0.0008106081565427779
0.4000000000000003,0.00684971285118357,0.0003692498956276729
0.6000000000000004,0.012351262075238947,-0.007648198198310864
0.8000000000000006,0.014893086211752551,-0.00029307960394871663
1.0000000000000007,0.028036490136317486,-0.0013311580371691725
1.2009999999999785,0.04253874758998615,-0.00021923679380911202
1.4009999999999565,0.06635749958665148,-0.010066968341179906
1.6009999999999345,0.08732618607286641,-0.011663583824270478
1.8009999999999124,0.10045684392928557,-0.0014785851849262442
2.0009999999998906,0.11622221611753557,0.005825114833882642
2.2009999999998686,0.1391381785114331,0.010131023726731784
2.4009999999998466,0.16528158712381813,0.010140722492183642
2.6009999999998246,0.19295173115932307,0.012251990654968426
2.8009999999998025,0.2130493125670638,0.01220803105259252
3.0009999999997805,0.23485777466967805,0.010527007364240863
3.2009999999997585,0.2587101944679374,0.016172011600213764
3.4009999999997365,0.28544445519753564,0.012315745289214343
3.6009999999997144,0.3136428018709014,0.011136532205094139
3.8009999999996924,0.33237070334443963,0.01857777005391489
4.000999999999671,0.3557510974157134,0.013386669673344722
4.200999999999738,0.38987056242365836,0.0012597673648709043
4.400999999999804,0.41663810735651247,-0.015081602858080528
4.600999999999871,0.4436834886388908,-0.02298434332095738
4.800999999999938,0.4709953368997742,-0.0413240632005785
5.000000000000004,0.501182250250151,-0.06654086450572566
5.200000000000071,0.5302918034394629,-0.08348234529588924
5.400000000000138,0.5560231042563638,-0.09424699167291192
5.600000000000205,0.5795300752888157,-0.09496622927134431
5.800000000000272,0.6033594144342339,-0.10506271487173913
6.000000000000338,0.6295985181211309,-0.11035957136354223
6.200000000000405,0.6557688748161876,-0.12885329557455735
6.400000000000472,0.6877631101369657,-0.14698265745232728
6.600000000000539,0.7158730253826437,-0.16759243357974482
6.800000000000606,0.746147825665223,-0.18310192819890342
7.000000000000672,0.7683384725257957,-0.20353501391356615
7.200000000000739,0.7883219327506155,-0.239372377813776
7.400000000000806,0.8075004240395985,-0.2613718825089789
7.600000000000873,0.8173723870264615,-0.2824277245055501
7.8000000000009395,0.8234867402485315,-0.30541441240633416
8.000000000001005,0.8250203409578208,-0.3354690094903293
8.200000000000895,0.8220418683510831,-0.375420904147392
8.400000000000784,0.8252303516017779,-0.41508085155729163
8.600000000000673,0.8256703320750629,-0.44937289781606193
8.800000000000562,0.8225394717549455,-0.47608156810337654
9.000000000000451,0.8288182695359321,-0.5041951670113387
9.20000000000034,0.827269644309103,-0.5378234111414032
9.40000000000023,0.8219369660094876,-0.5786917638565728
9.600000000000119,0.8161395400317092,-0.6205583701552329
9.800000000000008,0.802823851822098,-0.6566196575988361
10.000999999999896,0.7924123132587834,-0.6867006627898361
10.200999999999786,0.7901783161111304,-0.719708087621645
10.400999999999675,0.7870605601024522,-0.7521691331173704
10.600999999999564,0.7822860116953865,-0.7798796400068275
10.800999999999453,0.7725544299178058,-0.8070769576582318
11.000999999999342,0.7559092839347507,-0.8305185099578478
11.200999999999231,0.734073911624488,-0.8533315030555331
11.40099999999912,0.6993204744984403,-0.8697841302289149
11.60099999999901,0.6847542335615175,-0.881978850220522
11.800999999998899,0.6732864359378699,-0.8945779611499123
12.000999999998788,0.643734664653133,-0.9030985336659998
12.200999999998677,0.6107807100227485,-0.9077545506056325
12.400999999998566,0.5705400903996328,-0.9132369685782064
12.600999999998455,0.5381063953032305,-0.9085883766095534
12.800999999998345,0.515323208503494,-0.9135972183838944
13.000999999998234,0.4864436901875844,-0.9200030441988162
13.200999999998123,0.45876510618675476,-0.9278525246505741
13.400999999998012,0.4338150920288627,-0.9372706930213889
13.600999999997901,0.407721704255461,-0.9368397971283225
13.80099999999779,0.37142350387221007,-0.9247676063340509
14.00099999999768,0.3407531619439967,-0.9163575687602018
14.200999999997569,0.3185699603387289,-0.891379095342455
14.400999999997458,0.29952335137293895,-0.8850927627190678
14.600999999997347,0.28077777163571277,-0.8630104373552868
14.800999999997236,0.2650228930580293,-0.8379147123409119
15.000999999997125,0.2528388361996073,-0.8154408811482803
15.200999999997014,0.24549837871307134,-0.7854845634212501
15.400999999996904,0.23816267997345228,-0.7572135689097245
15.600999999996793,0.22724498043327604,-0.7294427442968962
15.800999999996682,0.22675256170802383,-0.695941945215259
16.000999999996573,0.23367693635610337,-0.6565357285568463
16.200999999996817,0.23758987690204053,-0.6295013000801403
16.40099999999706,0.24411358482956222,-0.5999735513994051
16.600999999997306,0.25327488651239993,-0.5638397069556479
16.80099999999755,0.25781484755876777,-0.5269670047402287
17.000999999997795,0.26403087074031534,-0.4916272270402237
17.20099999999804,0.2684553731809399,-0.4576645903426082
17.400999999998284,0.2832819658160605,-0.42014869626099544
17.60099999999853,0.2914327359345212,-0.3969060917697021
17.800999999998773,0.3079074042644122,-0.3773295704216384
18.000999999999017,0.3106675998393928,-0.3621612004829452
18.20099999999926,0.3290176365580624,-0.3447607749164197
18.400999999999506,0.3595569982489411,-0.33068717870687964
18.60099999999975,0.386682122914531,-0.3166988059214038
18.799999999999994,0.41513271727528145,-0.30935864666223906
19.000000000000238,0.45467432242465106,-0.30548108364125115
19.200000000000482,0.4830169008534797,-0.2949779636956304
19.400000000000727,0.5063561247693334,-0.29238173883527957
19.60000000000097,0.5382551697488761,-0.3005048520236737
19.800000000001216,0.5723320792031803,-0.3007377133731111
20.00000000000146,0.5989528967581454,-0.2923800213913192
