Time (s),X (m),Y (m)
0.001,0.0010100015126501532,0.0006628221997479689
0.20000000000000015,0.006015927809296839,0.003470310010463704
0.4000000000000003,0.00572990164921702,0.002977438029607993
0.6000000000000004,0.007153568785453722,0.00031432296490361465
0.8000000000000006,0.008471143810076309,-0.004308984675703381
1.0000000000000007,0.010686815257177856,-0.004937093025210997
1.2009999999999785,0.0167518376114511,-0.0035957615118081578
1.4009999999999565,0.020401526598902618,-0.005083071032642364
1.6009999999999345,0.026788703737605002,-0.002973299999274174
1.8009999999999124,0.03318315418582451,0.0018925919772136471
2.0009999999998906,0.039051056086079346,0.005932244105544226
2.2009999999998686,0.04396729868025304,0.006285014493234536
2.4009999999998466,0.0504005374892975,0.007477275917666233
2.6009999999998246,0.05615601035235397,0.009557993277737488
2.8009999999998025,0.060470225469807175,0.011066115851941997
3.0009999999997805,0.06558242003424046,0.013629276768350306
3.2009999999997585,0.07105920996261621,0.01689254511729056
3.4009999999997365,0.07566864162271737,0.01903045001613634
3.6009999999997144,0.08061800849652644,0.02112011206341467
3.8009999999996924,0.08480843613567852,0.022115478344819934
4.000999999999671,0.09002815228051242,0.023525066552514712
4.200999999999738,0.09464518677412136,0.026098311325047422
4.400999999999804,0.09861151281459404,0.03202209779145265
4.600999999999871,0.10239178249229694,0.03710926514827187
4.800999999999938,0.1061384151694533,0.04040136183778859
5.000000000000004,0.1100600606602148,0.044513757334481194
5.200000000000071,0.11338455974771498,0.04775563478211194
5.400000000000138,0.11608845001890254,0.05323172372119795
5.600000000000205,0.11828980224538974,0.058935855670943754
5.800000000000272,0.12189069516576628,0.059043845289345274
6.000000000000338,0.12337727068948805,0.0639437035677159
6.200000000000405,0.12482567875306531,0.06924142162404075
6.400000000000472,0.12864333607258946,0.06864926644105411
6.600000000000539,0.13097244100151761,0.0723940221057302
6.800000000000606,0.13309094962268583,0.07725956865189205
7.000000000000672,0.13609440889245997,0.08063868535102059
7.200000000000739,0.13890689020076488,0.08459600641764135
7.400000000000806,0.14048432553857407,0.08764763236000137
7.600000000000873,0.14216527876455037,0.09099878761923993
7.8000000000009395,0.14241745526954921,0.09510320230176068
8.000000000001005,0.14339784778103587,0.09897506730509441
8.200000000000895,0.14514172215458945,0.10292378659642351
8.400000000000784,0.1471390192712152,0.10421112602841393
8.600000000000673,0.1485612185850699,0.107275035511911
8.800000000000562,0.150276381952946,0.11089069099514096
9.000000000000451,0.15187446336547766,0.11374620995989518
9.20000000000034,0.15305804688999,0.11706398835187565
9.40000000000023,0.15411118037419003,0.1206870522905361
9.600000000000119,0.15612716408593288,0.12483631462654537
9.800000000000008,0.15758397921395306,0.1292174394833522
10.000999999999896,0.15953719448308687,0.13331323800924264
10.200999999999786,0.16028019004524197,0.13780356856590678
10.400999999999675,0.16260158313631912,0.14027465704667244
10.600999999999564,0.1635203969575981,0.1442315107980968
10.800999999999453,0.16421876120716847,0.14789418096481252
11.000999999999342,0.1650908641223155,0.15331380171746253
11.200999999999231,0.1663764956553086,0.15720323476424927
11.40099999999912,0.16757537234674255,0.16302324955216502
11.60099999999901,0.16679263430386018,0.16777975125296127
11.800999999998899,0.16870450871935283,0.17166283613889977
12.000999999998788,0.16982890235444073,0.17640316102424378
12.200999999998677,0.17072718559927313,0.18081211885906545
12.400999999998566,0.16816188151998002,0.18837968083861806
12.600999999998455,0.16702156846847482,0.19345416201654092
12.800999999998345,0.1679772381834249,0.19912208091170988
13.000999999998234,0.1674905522391849,0.20370598128955822
13.200999999998123,0.16725303117881493,0.20898344768950078
13.400999999998012,0.16570814573225343,0.21554344872730166
13.600999999997901,0.16250968974945265,0.22328360211840623
13.80099999999779,0.16121473695068764,0.23007616255592517
14.00099999999768,0.16112191730349756,0.23625031019249507
14.200999999997569,0.16029251047868837,0.24195192459619458
14.400999999997458,0.16011815960933887,0.24714464109944792
14.600999999997347,0.16031390919177646,0.252933937166002
14.800999999997236,0.15964121056027616,0.25865333597787826
15.000999999997125,0.1565861027437797,0.26560413590050985
15.200999999997014,0.15220450800347343,0.2733642225670673
15.400999999996904,0.1492311244660002,0.2794569250147496
15.600999999996793,0.14847293946851897,0.28596224170549545
15.800999999996682,0.14287164742748945,0.29276054220022174
16.000999999996573,0.13964413478628437,0.2986503667495169
16.200999999996817,0.13744400576219096,0.305399606760724
16.40099999999706,0.13307124901856138,0.311559307611825
16.600999999997306,0.12913103868758083,0.3174375238881525
16.80099999999755,0.12504848162447016,0.32312223447934124
17.000999999997795,0.12108688353659451,0.32892429706165965
17.20099999999804,0.11747167282885154,0.33350808397479254
17.400999999998284,0.11358943029030735,0.3386176379538223
17.60099999999853,0.11125049881649304,0.34338119054694805
17.800999999998773,0.10821257376454373,0.3472285767953736
18.000999999999017,0.10184478738662486,0.3499779635307133
18.20099999999926,0.09803918028538632,0.3543490572913429
18.400999999999506,0.09359359526723121,0.3568546662516379
18.60099999999975,0.09056373324573318,0.3602837655515249
18.799999999999994,0.0854237987861448,0.36312963789381847
19.000000000000238,0.08249544008022898,0.36727523783354743
19.200000000000482,0.07854299403591138,0.3712732888186015
19.400000000000727,0.07653784308229684,0.3749420886642612
19.60000000000097,0.07114002270889327,0.3759921825832583
19.800000000001216,0.06691501263954386,0.37940069624158473
20.00000000000146,0.06185117929248157,0.3807652884471483
