Time (s),X (m),Y (m)
0.001,-0.0007489004572251305,0.00035268032603768894
0.20000000000000015,0.003915686433766377,-0.0007527550191803997
0.4000000000000003,-0.0002960678344452627,0.0023674021466632542
0.6000000000000004,0.004628275189335355,0.0034564293282851473
0.8000000000000006,0.01104257237445561,0.0063098634377878144
1.0000000000000007,0.02611639579181811,0.0034349132627632434
1.2009999999999785,0.0369501524897242,0.004168302658041629
1.4009999999999565,0.0440736031917004,0.005207591953460333
1.6009999999999345,0.05190951334330128,0.0008841461816659901
1.8009999999999124,0.05781773211857118,-0.006449138257530139
2.0009999999998906,0.07863670378155375,-0.01843379274401082
2.2009999999998686,0.09575823256247963,-0.017783395574231798
2.4009999999998466,0.10959758818361255,-0.02333145440017505
2.6009999999998246,0.12917207055608942,-0.026509826827888217
2.8009999999998025,0.15214666732143445,-0.03463314572058153
3.0009999999997805,0.1840946668320959,-0.04812375101688869
3.2009999999997585,0.21588777431974315,-0.056946427755821066
3.4009999999997365,0.2432957024470637,-0.07163519203377722
3.6009999999997144,0.26742038264490164,-0.09025061337475232
3.8009999999996924,0.29061565421376934,-0.11586587488638846
4.000999999999671,0.31486698239475525,-0.1413765556343136
4.200999999999738,0.3384027240858223,-0.16061527362176942
4.400999999999804,0.3605746340783926,-0.16604277280392596
4.600999999999871,0.38180931638823895,-0.17773163688657911
4.800999999999938,0.3910945623629197,-0.19535937265587705
5.000000000000004,0.4018893453162943,-0.21616650890468314
5.200000000000071,0.4175499117592702,-0.23374996249830066
5.400000000000138,0.4303289692905446,-0.26127505539662205
5.600000000000205,0.4415335937910128,-0.2800229399328704
5.800000000000272,0.443677752561733,-0.3055185845249318
6.000000000000338,0.43955520409919424,-0.3407127867826356
6.200000000000405,0.44005484830608027,-0.36979030691011
6.400000000000472,0.4349605793586057,-0.3924247219295401
6.600000000000539,0.43186874907795064,-0.41676573731744393
6.800000000000606,0.42697982871683826,-0.43918080833350315
7.000000000000672,0.4255717845771369,-0.46386519369450235
7.200000000000739,0.42301360078396455,-0.4818930967111141
7.400000000000806,0.42153554012898514,-0.5008867138687987
7.600000000000873,0.41658871208590503,-0.5149363148895246
7.8000000000009395,0.4105958377053175,-0.5388432023695131
8.000000000001005,0.39605767430916006,-0.5710721208474148
8.200000000000895,0.37141975185637227,-0.6083083938613556
8.400000000000784,0.34596905971026526,-0.6398923451200038
8.600000000000673,0.32289310051967096,-0.6723571754460443
8.800000000000562,0.2951964743722313,-0.7087602217163106
9.000000000000451,0.2673068880504467,-0.7406529883119694
9.20000000000034,0.2397894939983682,-0.7672607173922217
9.40000000000023,0.21223657928135678,-0.7861055924198451
9.600000000000119,0.1919168396447008,-0.8004120933845429
9.800000000000008,0.1705979335920852,-0.8113961763485312
10.000999999999896,0.14999581527486405,-0.8176039838060238
10.200999999999786,0.11238883546999101,-0.8171468268054982
10.400999999999675,0.0861139740699819,-0.8128468568337969
10.600999999999564,0.05257500319312196,-0.8056884535920696
10.800999999999453,0.017794360328775564,-0.7986927669710342
11.000999999999342,-0.006299952169568349,-0.7907355811724782
11.200999999999231,-0.03437590869251313,-0.7830176873428724
11.40099999999912,-0.06779220852613635,-0.7687760129542325
11.60099999999901,-0.10218367428789178,-0.7552570644281658
11.800999999998899,-0.1327832802942996,-0.7441230265544398
12.000999999998788,-0.16203708105125425,-0.7312356682515422
12.200999999998677,-0.19124599181497515,-0.714742734764482
12.400999999998566,-0.2151723079095477,-0.7043735670963279
12.600999999998455,-0.2395708361889792,-0.693088020428413
12.800999999998345,-0.2669694116129698,-0.6838600845197759
13.000999999998234,-0.2974458437382702,-0.6693265198841661
13.200999999998123,-0.3362703859884226,-0.6483392820622768
13.400999999998012,-0.3672406120407105,-0.6368430805777249
13.600999999997901,-0.40540589139143146,-0.6133956784286656
13.80099999999779,-0.44352180671404956,-0.5930675033954683
14.00099999999768,-0.47237039218526605,-0.5676110206870748
14.200999999997569,-0.49925175051048976,-0.5394469498120249
14.400999999997458,-0.5184691294053883,-0.5220525518242264
14.600999999997347,-0.5298694854757268,-0.4953676332851788
14.800999999997236,-0.533566204469929,-0.4696565609276134
15.000999999997125,-0.5292849143168707,-0.443439040842064
15.200999999997014,-0.5172363883388313,-0.410885680924211
15.400999999996904,-0.493442287037299,-0.36764541953178415
15.600999999996793,-0.4766243731782693,-0.32876256971739737
15.800999999996682,-0.45688650795215097,-0.29145581070132426
16.000999999996573,-0.43708035778658405,-0.2562857316977073
16.200999999996817,-0.42280206660792374,-0.2305784901916898
16.40099999999706,-0.40733181095321,-0.1994938064333765
16.600999999997306,-0.38761544164413736,-0.17185873212045552
16.80099999999755,-0.36742010125000046,-0.14796495023749956
17.000999999997795,-0.3497550187955539,-0.11751638367221032
17.20099999999804,-0.33284573709752535,-0.08799342668530472
17.400999999998284,-0.3247477402452502,-0.06391919715171969
17.60099999999853,-0.3137349474812593,-0.03685527464137941
17.800999999998773,-0.30240490728217123,-0.01048143999819025
18.000999999999017,-0.28425486565797475,0.013849185655496036
18.20099999999926,-0.2681896222314694,0.033883496475164185
18.400999999999506,-0.24620263740650103,0.04867299465641152
18.60099999999975,-0.2189122757880749,0.06683731500246196
18.799999999999994,-0.18728523295177085,0.07605275602480412
19.000000000000238,-0.15946877226142417,0.07722288290836285
19.200000000000482,-0.14203676479152344,0.0775588106827191
19.400000000000727,-0.11837599659855473,0.0791882625138351
19.60000000000097,-0.09584493936336158,0.08068901541204462
19.800000000001216,-0.07022470016967937,0.08536351363653169
20.00000000000146,-0.05005809873570289,0.08724654168212184
