Time (s),X (m),Y (m)
0.001,-0.0006729371591054978,-0.000515584144559974
0.20000000000000015,-0.00022051389398817676,-0.00033538842010100953
0.4000000000000003,-0.003958591935041605,-0.004672782806795949
0.6000000000000004,-0.006800360970010944,-0.008639374077585504
0.8000000000000006,-0.00201898329406793,-0.00972758965277073
1.0000000000000007,0.004368034738540791,-0.004295575657694113
1.2009999999999785,0.012682418523610678,-0.003727850460893132
1.4009999999999565,0.0243163702839338,0.0015258959627449718
1.6009999999999345,0.029863518169803475,0.007616952349229223
1.8009999999999124,0.0393833862769208,0.010634061508332179
2.0009999999998906,0.04574676422625385,0.010580903857935735
2.2009999999998686,0.05139251744246563,0.01334626813228285
2.4009999999998466,0.062184763438594144,0.020301401337086838
2.6009999999998246,0.078774125412729,0.02897737173797968
2.8009999999998025,0.08974080598760147,0.03454627023444899
3.0009999999997805,0.09894417934624887,0.042995709643007564
3.2009999999997585,0.110608308240537,0.04644444212307039
3.4009999999997365,0.12061811453964187,0.04851364145159859
3.6009999999997144,0.13028031461279768,0.0478344440539659
3.8009999999996924,0.1424946960584724,0.049749385463141345
4.000999999999671,0.15447023749109856,0.051131914690204644
4.200999999999738,0.1655311493440616,0.05750138045524353
4.400999999999804,0.17483874173441322,0.06301237554545196
4.600999999999871,0.185829382780424,0.07336619360629074
4.800999999999938,0.19873986050830858,0.0813246441990289
5.000000000000004,0.21405594838153547,0.0939410959329079
5.200000000000071,0.23056181154357552,0.10403108268890099
5.400000000000138,0.23869212602671197,0.11112231140146893
5.600000000000205,0.2483538080962354,0.1140988834904293
5.800000000000272,0.2597491894781431,0.12060791596957174
6.000000000000338,0.27125989958539287,0.13031970184257977
6.200000000000405,0.28139527129480196,0.1383724913251598
6.400000000000472,0.2943290028861253,0.15403130775288543
6.600000000000539,0.30573153789099616,0.16320737272420766
6.800000000000606,0.3169079862189648,0.1725060693737196
7.000000000000672,0.32735029373812574,0.1810504878843317
7.200000000000739,0.33722573706577924,0.19483989163256807
7.400000000000806,0.34728818032973063,0.19919052650574579
7.600000000000873,0.35648893953786126,0.20286105276811273
7.8000000000009395,0.366776314627303,0.21587802918510876
8.000000000001005,0.3774073018428557,0.2269456306646972
8.200000000000895,0.38408560145057286,0.23978815042517398
8.400000000000784,0.3944426939574594,0.2512437900717686
8.600000000000673,0.40068386248394033,0.2651655951405948
8.800000000000562,0.4072405931996899,0.27615777611566855
9.000000000000451,0.41153992262475464,0.28810953265153455
9.20000000000034,0.42089205002290897,0.29221725164621276
9.40000000000023,0.4268363333494096,0.2981712255657633
9.600000000000119,0.4353668774761597,0.3096491787057704
9.800000000000008,0.4412662932630926,0.31631148728365943
10.000999999999896,0.44575232093020534,0.3228074367323442
10.200999999999786,0.45331467707535894,0.33336499421581844
10.400999999999675,0.4639881700088302,0.344672974124886
10.600999999999564,0.4724742580312226,0.35464991462432927
10.800999999999453,0.4791042126673576,0.368581756431973
11.000999999999342,0.4895019288330535,0.38229177844071777
11.200999999999231,0.49483948197020156,0.3902926585072863
11.40099999999912,0.5002022142257746,0.4057155425030383
11.60099999999901,0.5070458174812111,0.41427926716169683
11.800999999998899,0.5123685214928888,0.4254598811637025
12.000999999998788,0.5176554998039888,0.43304278687532155
12.200999999998677,0.5248206196954434,0.44003286879115144
12.400999999998566,0.5317840567744877,0.45104750895522977
12.600999999998455,0.5395707712020398,0.4570763110023644
12.800999999998345,0.5454189780922044,0.46711378494620354
13.000999999998234,0.5516236721935935,0.4816093615485188
13.200999999998123,0.5613655698785311,0.4875813040159849
13.400999999998012,0.5644603542976315,0.5053499321595811
13.600999999997901,0.5706225169434043,0.5209315146681235
13.80099999999779,0.5774077927002753,0.5334983276499562
14.00099999999768,0.5816800616762814,0.5382335787534895
14.200999999997569,0.5855573788304774,0.5512410289265897
14.400999999997458,0.5917246564838822,0.560646466959193
14.600999999997347,0.5944535609798968,0.5802942979062431
14.800999999997236,0.5993735133640511,0.6007805923357686
15.000999999997125,0.6053158646205468,0.6172934258364261
15.200999999997014,0.6122855902399318,0.6352349542972294
15.400999999996904,0.6208290928108642,0.6460251256367836
15.600999999996793,0.6267408019629344,0.6600120645970129
15.800999999996682,0.6344949252966453,0.6786677115470386
16.000999999996573,0.6411109803044844,0.6970046234528574
16.200999999996817,0.6455631180306046,0.7156597053414374
16.40099999999706,0.6508364810224994,0.7244118503927516
16.600999999997306,0.6569768156265982,0.7339359509255274
16.80099999999755,0.6639767536587471,0.7515446720683362
17.000999999997795,0.6706383476096178,0.7616051962825076
17.20099999999804,0.6786031428191063,0.7754845638404336
17.400999999998284,0.6837439887633157,0.7889448697472945
17.60099999999853,0.6914361634163678,0.8006249065114103
17.800999999998773,0.7001407201536376,0.8123824373374459
18.000999999999017,0.7097322986695245,0.8225440709405829
18.20099999999926,0.7173763653454811,0.8326562318448268
18.400999999999506,0.727002743209427,0.8522296145881817
18.60099999999975,0.7367053760728742,0.8724288955247748
18.799999999999994,0.7463341268841271,0.8836991210026985
19.000000000000238,0.7554564529314683,0.8904447028726339
19.200000000000482,0.760344281367572,0.9011060199483698
19.400000000000727,0.7647282615407983,0.9124667584096183
19.60000000000097,0.772140460171639,0.925882605850597
19.800000000001216,0.7786153996767211,0.9380055918983563
20.00000000000146,0.7864672769869483,0.9478713022933831
