Time (s),X (m),Y (m)
0.001,-0.0006729371591054965,0.000515584144559974
0.20000000000000015,0.003099712718277024,-0.0018516849203866418
0.4000000000000003,0.007570864025412022,-0.0002638645123720704
0.6000000000000004,0.007610959185920193,0.004237749294793654
0.8000000000000006,0.01559253956359433,0.006143044384095921
1.0000000000000007,0.026995677010460854,0.0032061969618164847
1.2009999999999785,0.03566482487692771,0.003579268903295813
1.4009999999999565,0.047146039594973696,-0.0011720722731699414
1.6009999999999345,0.057389773129779484,0.0026475562127681105
1.8009999999999124,0.07098849993700128,0.0037854029301873917
2.0009999999998906,0.08461475119653772,0.0011967157152796297
2.2009999999998686,0.09465971123169038,0.0031446776714384745
2.4009999999998466,0.10276662195789159,0.001745437244444246
2.6009999999998246,0.12463351732064011,-0.0025258888746551205
2.8009999999998025,0.14455109639140676,-0.010576073378360173
3.0009999999997805,0.1615669838809046,-0.013648501094832972
3.2009999999997585,0.18063890928902085,-0.024852016702681005
3.4009999999997365,0.19881376542078097,-0.03394226548529407
3.6009999999997144,0.21933720250138342,-0.03860768352101003
3.8009999999996924,0.23691588589990353,-0.04162776390991479
4.000999999999671,0.24951721774137472,-0.0484117100596057
4.200999999999738,0.2616833642078593,-0.04724736749603564
4.400999999999804,0.28039046964858283,-0.048239681625496175
4.600999999999871,0.29577697850772644,-0.051378502719092924
4.800999999999938,0.3203316071744991,-0.06676142542081596
5.000000000000004,0.345513950220828,-0.08145871534973659
5.200000000000071,0.370510493276719,-0.09091171570196935
5.400000000000138,0.39497508361528477,-0.10325940499701798
5.600000000000205,0.41211377987361686,-0.11834185530890039
5.800000000000272,0.42700377937998985,-0.13085424577956598
6.000000000000338,0.44356144652515456,-0.14450372068269687
6.200000000000405,0.4596447180477709,-0.16499634415728
6.400000000000472,0.4732186562254216,-0.1833374464693268
6.600000000000539,0.4860454736704708,-0.20014885389388823
6.800000000000606,0.4947878245138976,-0.2218889781006814
7.000000000000672,0.4987149595051736,-0.24431348553484405
7.200000000000739,0.501209027265426,-0.2646375305675157
7.400000000000806,0.5012329737251291,-0.293292259041916
7.600000000000873,0.504868256587457,-0.3114604589911952
7.8000000000009395,0.5029957428686428,-0.3292182838485306
8.000000000001005,0.5043869806172653,-0.34707945821215835
8.200000000000895,0.5034251368552805,-0.3672414963392436
8.400000000000784,0.5033253535302147,-0.38313662985699093
8.600000000000673,0.5048794199901446,-0.40257674215013156
8.800000000000562,0.4994044455496084,-0.4237644473350041
9.000000000000451,0.49693065216310794,-0.4458907507010059
9.20000000000034,0.49208526661619517,-0.4691612145328814
9.40000000000023,0.48499667248021283,-0.49068623533300965
9.600000000000119,0.4847289104165054,-0.5113349138435561
9.800000000000008,0.4802510451402488,-0.5325537309615634
10.000999999999896,0.46543347144333924,-0.5611374732758999
10.200999999999786,0.45760228019157095,-0.5885114021760725
10.400999999999675,0.45131448222772413,-0.6122428054696802
10.600999999999564,0.4411037669919372,-0.6389195222157897
10.800999999999453,0.4326326457322329,-0.6652138239555273
11.000999999999342,0.4299732962948773,-0.6891121538509661
11.200999999999231,0.4269983845856591,-0.7149723136477073
11.40099999999912,0.43482934473369916,-0.7274056591046577
11.60099999999901,0.43424385701471646,-0.744807951582567
11.800999999998899,0.4177628169352162,-0.7704592185618747
12.000999999998788,0.40349115734416824,-0.7919440204650862
12.200999999998677,0.38744669341324034,-0.8124450977312414
12.400999999998566,0.3701874111281199,-0.8306051554225448
12.600999999998455,0.35228454036433404,-0.8456843587261215
12.800999999998345,0.3401015241684217,-0.8546639420704569
13.000999999998234,0.318317997875851,-0.8597464068278219
13.200999999998123,0.286209344970184,-0.8622057560063384
13.400999999998012,0.2553068113823885,-0.8631121831992195
13.600999999997901,0.22858051949816935,-0.8621375770874891
13.80099999999779,0.19694130771418064,-0.8598045032431101
14.00099999999768,0.17031756993959477,-0.8564761236622644
14.200999999997569,0.14416118218084417,-0.8542752723729924
14.400999999997458,0.11519451472655597,-0.8475878378493021
14.600999999997347,0.09163157620380513,-0.8429266280964618
14.800999999997236,0.0679342561694499,-0.8436587555212824
15.000999999997125,0.03551265184218235,-0.8402320842570679
15.200999999997014,0.006933031517324725,-0.8372637251850531
15.400999999996904,-0.02141294757582317,-0.8349675940475306
15.600999999996793,-0.04585096399557417,-0.8317995660363136
15.800999999996682,-0.06794409486647346,-0.8275042693819836
16.000999999996573,-0.09203536895317639,-0.8223391575757812
16.200999999996817,-0.11715969306989207,-0.8158134935269339
16.40099999999706,-0.1466508311985992,-0.80718085205257
16.600999999997306,-0.18246294693651968,-0.7938713411136448
16.80099999999755,-0.20654969371674198,-0.7883314843081392
17.000999999997795,-0.23041254065282554,-0.7824229058435724
17.20099999999804,-0.2525950221397126,-0.7650442373830381
17.400999999998284,-0.28073621261251164,-0.7518600690301557
17.60099999999853,-0.3105841149754819,-0.7392316889925685
17.800999999998773,-0.33927630529505143,-0.7194087245277502
18.000999999999017,-0.36701814531134913,-0.7113116179370989
18.20099999999926,-0.38798440232421244,-0.7027902950069288
18.400999999999506,-0.41058437923082963,-0.689411821421762
18.60099999999975,-0.4358531993807205,-0.6809651215907414
18.799999999999994,-0.4626311558397974,-0.6654595363168799
19.000000000000238,-0.48923019489892433,-0.6438364283750603
19.200000000000482,-0.5133872997385015,-0.6251189867618651
19.400000000000727,-0.5326330252857149,-0.6091599494204476
19.60000000000097,-0.5470646066565431,-0.5838666733433424
19.800000000001216,-0.5593985195120811,-0.5619086698024665
20.00000000000146,-0.5639401747455691,-0.5308983424824897
