Time (s),X (m),Y (m)
0.001,-0.0006729371591054965,0.000515584144559974
0.20000000000000015,0.003733210557872233,-0.0022918036233443937
0.4000000000000003,0.005118297746397815,-0.0030269808895690667
0.6000000000000004,0.01394464329910119,-0.007197886510667272
0.8000000000000006,0.026358941966727032,-0.007489700606036283
1.0000000000000007,0.03260672991661938,-0.006447692859697248
1.2009999999999785,0.03936280503937479,-0.006390072802398655
1.4009999999999565,0.045201158703251,-0.007495395080569983
1.6009999999999345,0.056656485324113784,-0.0011228178540327852
1.8009999999999124,0.0674085387564247,0.0012322936912000737
2.0009999999998906,0.07460663369930286,0.004450871322456449
2.2009999999998686,0.08264029592787413,0.009054562128889287
2.4009999999998466,0.09084980081848194,0.01152148823408762
2.6009999999998246,0.09654907886936309,0.009914044441201267
2.8009999999998025,0.11501051574504055,0.003855293696245085
3.0009999999997805,0.13181386954099583,0.0017969298551648455
3.2009999999997585,0.14398232674230685,-0.0013426867838486167
3.4009999999997365,0.16250179564924186,0.0001661573051507383
3.6009999999997144,0.1786170400634908,0.0011545642065123678
3.8009999999996924,0.19421383160307132,-0.0017677960708620672
4.000999999999671,0.21848612376932874,-0.014085101660684845
4.200999999999738,0.24020471626472165,-0.01750237122614815
4.400999999999804,0.2580039010423389,-0.017919490478310304
4.600999999999871,0.2702032495707766,-0.015667215545542786
4.800999999999938,0.28673355403931333,-0.018477192040176862
5.000000000000004,0.30379413693693486,-0.0200980087086704
5.200000000000071,0.3183819994114611,-0.021701565050264538
5.400000000000138,0.33247246667997,-0.02374816043697777
5.600000000000205,0.35842117743566215,-0.02942519962149383
5.800000000000272,0.38001067643518754,-0.036748535507444814
6.000000000000338,0.4000932046741543,-0.037050781914001
6.200000000000405,0.415696926660058,-0.03465265729457992
6.400000000000472,0.42725229537545145,-0.03485748048046099
6.600000000000539,0.4420259045586214,-0.0386429560650176
6.800000000000606,0.4595610418043456,-0.041411366047868464
7.000000000000672,0.4801759005732396,-0.05095163055613249
7.200000000000739,0.49893396395035355,-0.06284626642228303
7.400000000000806,0.5210214126471288,-0.07370460618934928
7.600000000000873,0.5445235409880657,-0.08598580301794208
7.8000000000009395,0.5628575650341784,-0.08640047775242475
8.000000000001005,0.5809607388480799,-0.09011039594869732
8.200000000000895,0.6065712293596949,-0.10120557378262421
8.400000000000784,0.629124516873857,-0.10808052222508538
8.600000000000673,0.6489606224971244,-0.11317263736505818
8.800000000000562,0.6707902351453765,-0.1285127810281265
9.000000000000451,0.7002272442649461,-0.14320186845316416
9.20000000000034,0.7235067498703216,-0.15665445712380138
9.40000000000023,0.7461832186454166,-0.16557963000379594
9.600000000000119,0.7604768872981149,-0.1789147949383612
9.800000000000008,0.7775486418370292,-0.19300609512308994
10.000999999999896,0.79812898365153,-0.19764153036451892
10.200999999999786,0.8148067889920605,-0.2136652011870566
10.400999999999675,0.8316192688857127,-0.22479249653807123
10.600999999999564,0.844253442924756,-0.23927738321539122
10.800999999999453,0.8518303776964408,-0.25056371817396556
11.000999999999342,0.8588816966078686,-0.26468579143053134
11.200999999999231,0.8701257138153871,-0.28053949766997843
11.40099999999912,0.8778980463889291,-0.29485380470734107
11.60099999999901,0.8777582281523952,-0.3166177183910467
11.800999999998899,0.8745541752579351,-0.337099320813293
12.000999999998788,0.8704271278463118,-0.35987776730276005
12.200999999998677,0.8664926747925683,-0.3822384452323913
12.400999999998566,0.8680039092949233,-0.4011653786814882
12.600999999998455,0.8716506395603072,-0.421628801059705
12.800999999998345,0.8722421274795826,-0.44244078660418873
13.000999999998234,0.869988723869188,-0.4610258002066314
13.200999999998123,0.8644844893726971,-0.4835095640443275
13.400999999998012,0.854986884729487,-0.5111328595766768
13.600999999997901,0.8464373648394677,-0.5352447420554091
13.80099999999779,0.8435728588948153,-0.5646566778999935
14.00099999999768,0.8344391784507765,-0.59372247326655
14.200999999997569,0.8273542178303217,-0.6176363891499619
14.400999999997458,0.8184494618097621,-0.6421598787167849
14.600999999997347,0.8125209184540741,-0.6668936117649116
14.800999999997236,0.807700131351709,-0.6925686662195808
15.000999999997125,0.8017253060910094,-0.7154012081103787
15.200999999997014,0.798499896439718,-0.7357567797702448
15.400999999996904,0.7927481647806199,-0.7538981308814272
15.600999999996793,0.7831052932214895,-0.7740698888163822
15.800999999996682,0.766571842742911,-0.7999548776629948
16.000999999996573,0.7525004341837294,-0.8182288110787082
16.200999999996817,0.7271338404883088,-0.8335368499430703
16.40099999999706,0.7020360012622526,-0.8466129637791856
16.600999999997306,0.6840565212949332,-0.8617719002324633
16.80099999999755,0.6655856706478487,-0.8760461506910905
17.000999999997795,0.6513682142174292,-0.886527939569168
17.20099999999804,0.6353390400086686,-0.8909690412017903
17.400999999998284,0.6048299249369756,-0.8933105207932833
17.60099999999853,0.5820138555704008,-0.897135268841542
17.800999999998773,0.5580844591960968,-0.8969745837578413
18.000999999999017,0.5393985814209882,-0.8951694089723512
18.20099999999926,0.5160629517218593,-0.8920801567837271
18.400999999999506,0.4939064217567842,-0.8830483478711277
18.60099999999975,0.4676262385037533,-0.882210408214546
18.799999999999994,0.44326328671326404,-0.8780818556020131
19.000000000000238,0.426239792810551,-0.8749232368030242
19.200000000000482,0.4067641292935133,-0.8717929176914434
19.400000000000727,0.3824027859190334,-0.8632680915588669
19.60000000000097,0.3572668958958596,-0.8580970092450523
19.800000000001216,0.3329803052937916,-0.8474938500001443
20.00000000000146,0.30672248282624787,-0.8399574350900747
