Time (s),X (m),Y (m)
0.001,0.0012355833006349724,0.00017906049427360518
0.20000000000000015,0.00433070494723442,0.0012649397990046611
0.4000000000000003,0.0012170706298616023,0.00022422291691217793
0.6000000000000004,-0.01290387584628059,-0.001292385765755336
0.8000000000000006,-0.01444462613799436,-0.0009105070287009911
1.0000000000000007,0.006477993022068121,0.00011786740281322876
1.2009999999999785,0.018402742998117734,3.756644109971561e-05
1.4009999999999565,0.043589749591326096,-0.0037900763514832703
1.6009999999999345,0.0661777443279764,-0.0075635391409290325
1.8009999999999124,0.09669543249554356,-0.014587094733339856
2.0009999999998906,0.12059481764423918,-0.023657575524733104
2.2009999999998686,0.14812958135124277,-0.041018007853978994
2.4009999999998466,0.18167049699642018,-0.06887991055172593
2.6009999999998246,0.21415297524510002,-0.1014772620296776
2.8009999999998025,0.233751297198788,-0.1327094698357746
3.0009999999997805,0.23541177692343446,-0.16832736625300257
3.2009999999997585,0.22668580814283493,-0.1991958083481718
3.4009999999997365,0.21204109390300485,-0.23032878333880927
3.6009999999997144,0.19139267458407602,-0.2651286719568109
3.8009999999996924,0.16267258913642016,-0.29968396269402786
4.000999999999671,0.1228694184697761,-0.32125677099628147
4.200999999999738,0.08951993527072044,-0.32134269511687397
4.400999999999804,0.052884051508735874,-0.30706507747578976
4.600999999999871,0.013755481944415096,-0.2918709074867344
4.800999999999938,-0.02639288649587978,-0.2685604193353934
5.000000000000004,-0.053550062485219825,-0.22017525214949762
5.200000000000071,-0.06375054109970495,-0.1794719472947316
5.400000000000138,-0.05846513657947344,-0.13718094227457486
5.600000000000205,-0.04116412928716173,-0.10034115241155142
5.800000000000272,-0.010717637487293017,-0.057099537456261874
6.000000000000338,0.012944982409917241,-0.011111906961863672
6.200000000000405,0.04350324022735998,0.03460153280440626
6.400000000000472,0.09475764581972082,0.06362927971144702
6.600000000000539,0.14672536012661772,0.06762389613039067
6.800000000000606,0.19968811007812046,0.04848204323201368
7.000000000000672,0.24419033297725298,0.019615093299263732
7.200000000000739,0.2837583810721623,-0.010081812783888172
7.400000000000806,0.32505211749617735,-0.03912613102865658
7.600000000000873,0.3794128208678484,-0.07337795188279655
7.8000000000009395,0.44058356118785535,-0.11623200304860197
8.000000000001005,0.5029340886950029,-0.175502854595132
8.200000000000895,0.5580332041396981,-0.2385843517433109
8.400000000000784,0.5902571049900261,-0.3030567658229426
8.600000000000673,0.5924192788434465,-0.36082901542384527
8.800000000000562,0.5791660816200616,-0.4081671998033435
9.000000000000451,0.5513823274002554,-0.46116142113020836
9.20000000000034,0.5108727156538526,-0.5188907954152625
9.40000000000023,0.46291887520107106,-0.5783147699466751
9.600000000000119,0.4163757027234253,-0.637785916631876
9.800000000000008,0.37092549698883936,-0.6995622597005716
10.000999999999896,0.32920332579484013,-0.7556210588796403
10.200999999999786,0.2792176836607589,-0.8142070783666442
10.400999999999675,0.2236144377580137,-0.8731243147871431
10.600999999999564,0.1637197948938969,-0.9230409950080435
10.800999999999453,0.1027067438065645,-0.9578744574013855
11.000999999999342,0.047375405313435995,-0.9808718872578136
11.200999999999231,-0.0114477744194364,-0.9715539166359273
11.40099999999912,-0.06837562803104748,-0.9426020291877601
11.60099999999901,-0.11308137122634893,-0.9036702577888315
11.800999999998899,-0.1659548256161504,-0.8759695840064562
12.000999999998788,-0.224391212324768,-0.8460276503336424
12.200999999998677,-0.2915743125793213,-0.8110272430796222
12.400999999998566,-0.36514311615307743,-0.7769021730948111
12.600999999998455,-0.43169959902474486,-0.7396235577754023
12.800999999998345,-0.49715710631245713,-0.6980182964605413
13.000999999998234,-0.5619547735428595,-0.6514608745623287
13.200999999998123,-0.6282613598356206,-0.6032299252273814
13.400999999998012,-0.7025133494087057,-0.5419162403840739
13.600999999997901,-0.7757051685786125,-0.47763462611191615
13.80099999999779,-0.8349262381402446,-0.4273784058731975
14.00099999999768,-0.8605037532037781,-0.37730460036316676
14.200999999997569,-0.856364145950817,-0.3223598825662751
14.400999999997458,-0.8267302171004646,-0.25520271691967755
14.600999999997347,-0.7920034531495395,-0.1854959051467722
14.800999999997236,-0.7480859952648912,-0.11096409033853896
15.000999999997125,-0.7021251863538485,-0.04443070193027073
15.200999999997014,-0.6595525638380791,0.013743233988516764
15.400999999996904,-0.6152334960683229,0.07218096966627889
15.600999999996793,-0.5564836980076562,0.12189449721338817
15.800999999996682,-0.4972300889886694,0.1524115177156429
16.000999999996573,-0.44525925930547416,0.16478673556902398
16.200999999996817,-0.3845600906645909,0.15210938233583482
16.40099999999706,-0.3213716961711861,0.12205305076099038
16.600999999997306,-0.24722695844681405,0.07220949502694428
16.80099999999755,-0.17934334635960433,0.02422083104178491
17.000999999997795,-0.1174884521239531,-0.026120680586492483
17.20099999999804,-0.06481271360309691,-0.07161610773667158
17.400999999998284,-0.03460133829671044,-0.10936933312189401
17.60099999999853,-0.039819034732775246,-0.14200576511570562
17.800999999998773,-0.0704372015556557,-0.18723863402479557
18.000999999999017,-0.11748380280664103,-0.24007209229872753
18.20099999999926,-0.16639055328405056,-0.294616901855334
18.400999999999506,-0.22636773300501734,-0.34563317980369884
18.60099999999975,-0.29437708377208854,-0.3764827776069529
18.799999999999994,-0.3660477148786722,-0.38077782165620117
19.000000000000238,-0.4372064980799945,-0.36299802898799
19.200000000000482,-0.5061588485674411,-0.3266278609876259
19.400000000000727,-0.5699282023350483,-0.2715403408523538
19.60000000000097,-0.615736262813704,-0.21582569849717453
19.800000000001216,-0.6322097999822102,-0.1559088850433787
20.00000000000146,-0.6351856356877609,-0.09235511402657667
