Time (s),X (m),Y (m)
0.001,-0.00013259955118837574,-0.0009689812320744441
0.20000000000000015,0.0030932057733767887,0.0029632902716400147
0.4000000000000003,0.011321211628735653,0.0019142052994870974
0.6000000000000004,0.03541001953786113,0.0037213178521401063
0.8000000000000006,0.06908374480699829,-0.007515352290867013
1.0000000000000007,0.08336121658000821,-0.02339801260011494
1.2009999999999785,0.07855235793259666,-0.042898907888879526
1.4009999999999565,0.07173475178163696,-0.07494577209141474
1.6009999999999345,0.07255384317868019,-0.11977920243826323
1.8009999999999124,0.06955231625344192,-0.16225904731778207
2.0009999999998906,0.06269267422581756,-0.22026933473952034
2.2009999999998686,0.04535353562442718,-0.2778015535568782
2.4009999999998466,0.0237131690688969,-0.3137955040510098
2.6009999999998246,-0.005281960705088174,-0.33207132863472777
2.8009999999998025,-0.040866622002347634,-0.33737874033533183
3.0009999999997805,-0.08328998295656528,-0.36312138674622957
3.2009999999997585,-0.12971387344764979,-0.38833574467850496
3.4009999999997365,-0.18546370281472804,-0.402307830944621
3.6009999999997144,-0.2386060024814063,-0.4081118807253523
3.8009999999996924,-0.29792545131091863,-0.42240572801342235
4.000999999999671,-0.363263694917759,-0.4368390296259744
4.200999999999738,-0.43146744475319254,-0.4478040292873514
4.400999999999804,-0.48739075175295377,-0.4573334363262365
4.600999999999871,-0.5577450331811162,-0.46006661579943564
4.800999999999938,-0.6236507237920577,-0.44474079366617764
5.000000000000004,-0.6758653927804189,-0.41392398895427435
5.200000000000071,-0.7230689515779216,-0.3716111662298528
5.400000000000138,-0.7635497300355465,-0.32455121373605117
5.600000000000205,-0.788050742501772,-0.272553858058994
5.800000000000272,-0.8101624577128435,-0.21781059494614646
6.000000000000338,-0.8266160507542588,-0.16096556915105828
6.200000000000405,-0.8386208404500985,-0.0990241144483029
6.400000000000472,-0.8558871287423047,-0.024899822428847626
6.600000000000539,-0.8836327085270943,0.053341941590871064
6.800000000000606,-0.8994573436676385,0.12671030938298017
7.000000000000672,-0.9129304233110155,0.21070243679267137
7.200000000000739,-0.9360535875644884,0.29650574686983694
7.400000000000806,-0.9547113801697202,0.36458811204145514
7.600000000000873,-0.9604602099644725,0.4237734709751068
7.8000000000009395,-0.9480548149206196,0.46049894895747967
8.000000000001005,-0.9127189535157879,0.49975448520654264
8.200000000000895,-0.8653054003192957,0.5386579229652316
8.400000000000784,-0.8078289560931398,0.5724704242760229
8.600000000000673,-0.7432936696448563,0.6038545205395321
8.800000000000562,-0.6736775678529838,0.6410598853149388
9.000000000000451,-0.6071749465604241,0.7036615785235558
9.20000000000034,-0.5399461373890149,0.7592651944198916
9.40000000000023,-0.467983894073316,0.7940389036373564
9.600000000000119,-0.38915791454486637,0.8417296596202559
9.800000000000008,-0.302189412863411,0.886084710580741
10.000999999999896,-0.21841324675610208,0.9149635090186571
10.200999999999786,-0.13447785516561983,0.9421266322855534
10.400999999999675,-0.05339656859290132,0.9700045044005144
10.600999999999564,0.02579027874455261,0.9918503318750057
10.800999999999453,0.10100083452714513,1.0126213829990158
11.000999999999342,0.16572781756605193,1.0191070008316512
11.200999999999231,0.24525004384881735,1.0227818669488589
11.40099999999912,0.3292165101679046,1.0268150016794362
11.60099999999901,0.3986247717045663,1.0095174460266432
11.800999999998899,0.44933349453438876,0.9747936258203329
12.000999999998788,0.48818183075074184,0.9347044071657894
12.200999999998677,0.49911953467135123,0.8863374315645645
12.400999999998566,0.5136418760334222,0.8255666360665863
12.600999999998455,0.531118194997629,0.7581538819305768
12.800999999998345,0.556376167059132,0.6896504706136262
13.000999999998234,0.5777087989361316,0.6228869079356744
13.200999999998123,0.5938138935829468,0.549415468709012
13.400999999998012,0.6136684858056706,0.4696516418260255
13.600999999997901,0.6259152860529515,0.38235703786058256
13.80099999999779,0.6318462966350359,0.30626434735659164
14.00099999999768,0.6208176619456592,0.25036437349963747
14.200999999997569,0.5771743650583334,0.19898226477793918
14.400999999997458,0.5169327037436022,0.16147218019272438
14.600999999997347,0.45338624096674185,0.13684365132422452
14.800999999997236,0.38472295818229146,0.10872717737791823
15.000999999997125,0.3091092671874235,0.07998619934875159
15.200999999997014,0.23719711463719254,0.06352366852933726
15.400999999996904,0.15612203230208804,0.05908737691194643
15.600999999996793,0.09198514118009782,0.06539549968935608
15.800999999996682,0.04074284173126804,0.09538355242831838
16.000999999996573,0.010826863064561727,0.14768156908095317
16.200999999996817,-0.029964916114412918,0.20783765751013428
16.40099999999706,-0.061108522329238545,0.27387298441786545
16.600999999997306,-0.09450551905922239,0.3475098723759839
16.80099999999755,-0.13968731953638308,0.4253160232833975
17.000999999997795,-0.17721950977402384,0.5007237000704996
17.20099999999804,-0.19717238181811345,0.5768718857871903
17.400999999998284,-0.22855880681979968,0.6502976183556195
17.60099999999853,-0.27415933419393945,0.7265517409149719
17.800999999998773,-0.3073069643571698,0.8090332835183383
18.000999999999017,-0.3534742095348619,0.8932878809450678
18.20099999999926,-0.4072214178208035,0.976696333166399
18.400999999999506,-0.44702480368586567,1.0647384078439843
18.60099999999975,-0.4761750975605266,1.1552876463779478
18.799999999999994,-0.522220788736172,1.2464059048634202
19.000000000000238,-0.5776304353087236,1.333563423122118
19.200000000000482,-0.6401289627542377,1.4319412215394653
19.400000000000727,-0.6963293863929512,1.5290206706249978
19.60000000000097,-0.7321380080844965,1.6205791165543242
19.800000000001216,-0.7603494375480409,1.7032574144254786
20.00000000000146,-0.7729168180891739,1.765617388058633
