Time (s),X (m),Y (m)
0.001,0.0008829029745972832,-0.0007899207378008392
0.20000000000000015,0.0009914605977820754,0.004009825076130928
0.4000000000000003,0.0069605715360067655,0.012438119493931806
0.6000000000000004,0.025690798259808557,0.006082696352608853
0.8000000000000006,0.048314576914587876,0.0006199781068191366
1.0000000000000007,0.07003024957588963,-0.007913747743022871
1.2009999999999785,0.09985232312263158,-0.008591556655864967
1.4009999999999565,0.13181472878796088,-0.007426734065782271
1.6009999999999345,0.16373852861028634,-0.005339827525083618
1.8009999999999124,0.18938370557247697,-0.018789862959869837
2.0009999999998906,0.20668663087302808,-0.03400035885269241
2.2009999999998686,0.21438981264320392,-0.056861155473966626
2.4009999999998466,0.2242727113048664,-0.07633481758760724
2.6009999999998246,0.23825791044810174,-0.10498194845908192
2.8009999999998025,0.25103684265573495,-0.13580190520299396
3.0009999999997805,0.26657874752545785,-0.1655465078676155
3.2009999999997585,0.28890593481603477,-0.1877419886979805
3.4009999999997365,0.3169378321415905,-0.20058601667656323
3.6009999999997144,0.344315961556815,-0.2108726622438044
3.8009999999996924,0.36896816212477973,-0.2415045995778756
4.000999999999671,0.3911690697243518,-0.2611121536774313
4.200999999999738,0.40649775071919353,-0.28638776283505146
4.400999999999804,0.41656006733106327,-0.325437287166982
4.600999999999871,0.42196735473598973,-0.3752234410003548
4.800999999999938,0.426766117161358,-0.4215579756046981
5.000000000000004,0.4260662339695384,-0.4689925348788341
5.200000000000071,0.4190279650522518,-0.5120582372649717
5.400000000000138,0.410139788568101,-0.5525936395022698
5.600000000000205,0.3858230061062252,-0.5914569015031181
5.800000000000272,0.3513265824491222,-0.6185798664026178
6.000000000000338,0.3088434566072404,-0.6354215652707605
6.200000000000405,0.26976137118944965,-0.6543988313891341
6.400000000000472,0.24027998595396155,-0.6775449023009349
6.600000000000539,0.20625094385842493,-0.698275387226701
6.800000000000606,0.1692560284906379,-0.7183547294266371
7.000000000000672,0.13019721477367013,-0.7300624555813062
7.200000000000739,0.0929740458230841,-0.7314369140139034
7.400000000000806,0.057050817103535004,-0.710302419590389
7.600000000000873,0.03572181177692854,-0.671504881060443
7.8000000000009395,0.018892733308921876,-0.6338626686181427
8.000000000001005,0.00977110182381693,-0.5950271259473652
8.200000000000895,0.00789851866382845,-0.5503846340909888
8.400000000000784,0.003897079985052796,-0.5057268775975515
8.600000000000673,0.0070709664895128475,-0.46493515209859254
8.800000000000562,0.0029975080868406413,-0.42669957445278295
9.000000000000451,0.01324012947527125,-0.3885256156487226
9.20000000000034,0.02387884115608133,-0.35362534183335326
9.40000000000023,0.041588623304602335,-0.3189983693228934
9.600000000000119,0.06821517160021444,-0.2913707815720285
9.800000000000008,0.10525367435556185,-0.2702444308605441
10.000999999999896,0.1489758921039154,-0.25617149862008703
10.200999999999786,0.18835416604101535,-0.24194512486371783
10.400999999999675,0.24352210256593468,-0.23759505856074792
10.600999999999564,0.29149051128837933,-0.23125811612414288
10.800999999999453,0.3300651025139279,-0.21669396736809515
11.000999999999342,0.3748698706192034,-0.2144152628072973
11.200999999999231,0.4214092425625776,-0.2175255907958064
11.40099999999912,0.4618942102357429,-0.2303695146042248
11.60099999999901,0.497368259867613,-0.255647259947357
11.800999999998899,0.5275710944556489,-0.29529894016836317
12.000999999998788,0.5572366233893974,-0.3297213923866677
12.200999999998677,0.5907954768893494,-0.34986302064372127
12.400999999998566,0.6126968402623263,-0.3882552625946283
12.600999999998455,0.6225684359563513,-0.43902837072771705
12.800999999998345,0.6359630456814608,-0.4816572856420539
13.000999999998234,0.6490737372100623,-0.5222720976815951
13.200999999998123,0.6657072398421153,-0.5615973912529357
13.400999999998012,0.6683738852974532,-0.6092254288281699
13.600999999997901,0.6596689598797957,-0.6564561770198987
13.80099999999779,0.6384247616894371,-0.6973197692293666
14.00099999999768,0.6113596154631193,-0.7279972986062231
14.200999999997569,0.5794575361708139,-0.7538346429304718
14.400999999997458,0.5426915113540743,-0.772280826101277
14.600999999997347,0.5028895278259304,-0.7892553358725439
14.800999999997236,0.46246568626168133,-0.8032091994190035
15.000999999997125,0.41536413513869125,-0.811406654515771
15.200999999997014,0.36427601993060843,-0.8019674372523637
15.400999999996904,0.3177294286258393,-0.7806437578992391
15.600999999996793,0.2842971675172665,-0.7403073061286053
15.800999999996682,0.2559671153966443,-0.7096487875827386
16.000999999996573,0.2351111949208744,-0.6734777085696242
16.200999999996817,0.21807513609201662,-0.6318709605886608
16.40099999999706,0.19836906000834406,-0.5876411913261763
16.600999999997306,0.18679200012439742,-0.5416881607445778
16.80099999999755,0.17974771847209942,-0.4971706136818555
17.000999999997795,0.18170713312550635,-0.4525883952415811
17.20099999999804,0.19957107150250866,-0.4089116450169073
17.400999999998284,0.22403688240804645,-0.36535144468219755
17.60099999999853,0.254042476112537,-0.331570729766572
17.800999999998773,0.27579881056135624,-0.30113389136188745
18.000999999999017,0.31672981445505116,-0.28425935586118106
18.20099999999926,0.36277070041127557,-0.2734647031301325
18.400999999999506,0.41766221819579724,-0.26590007026118717
18.60099999999975,0.469723656201752,-0.25949368557597724
18.799999999999994,0.5169875307792005,-0.2611176408359082
19.000000000000238,0.5605210516730774,-0.260084518779564
19.200000000000482,0.5999751893403622,-0.2770464934376184
19.400000000000727,0.6428657125549364,-0.28841065170556374
19.60000000000097,0.6781071406991009,-0.30179193740986265
19.800000000001216,0.7080886050546924,-0.3264652466811184
20.00000000000146,0.728083728883487,-0.363431185694873
