Time (s),X (m),Y (m)
0.001,0.0001302085367132322,-0.0010272443824616275
0.20000000000000015,0.0030319721976284136,0.007006969397640611
0.4000000000000003,0.011584505562335212,0.006014803562183147
0.6000000000000004,0.025768736003962903,0.0021952279689447037
0.8000000000000006,0.052778722811028946,0.002349059562995722
1.0000000000000007,0.09167410721037436,0.0005380908399021392
1.2009999999999785,0.1291017551512812,-0.012083543938009905
1.4009999999999565,0.14490794048635175,-0.037240450333948585
1.6009999999999345,0.16102700651204965,-0.07188769518310495
1.8009999999999124,0.17780808981310342,-0.11296232077186595
2.0009999999998906,0.18876738456940984,-0.1591251833207464
2.2009999999998686,0.19388851985453903,-0.20721784045207378
2.4009999999998466,0.19833358027862522,-0.26537879041502305
2.6009999999998246,0.19342456434199154,-0.32100935988648194
2.8009999999998025,0.18164773722934424,-0.37063005215833394
3.0009999999997805,0.16327842437146445,-0.4058705844795397
3.2009999999997585,0.13832695923124053,-0.4283470385397166
3.4009999999997365,0.10035066991795726,-0.46681360246794845
3.6009999999997144,0.05724869758337303,-0.5122967456411228
3.8009999999996924,0.001975328529412644,-0.5477043119134888
4.000999999999671,-0.05412635539027186,-0.5608212803365884
4.200999999999738,-0.11418413120879746,-0.5645201891712529
4.400999999999804,-0.17827263060236276,-0.560713142098241
4.600999999999871,-0.23734948167613198,-0.5383091185876931
4.800999999999938,-0.28751196547057456,-0.5043682814454071
5.000000000000004,-0.341057156987976,-0.47693543545600936
5.200000000000071,-0.4038440506974133,-0.4591066009478093
5.400000000000138,-0.45691415194994583,-0.4349394970482415
5.600000000000205,-0.4739409729340348,-0.39684194080807905
5.800000000000272,-0.4789623316545296,-0.34111571091980836
6.000000000000338,-0.47466385323442,-0.27974898427031997
6.200000000000405,-0.459459710331447,-0.22220530886098636
6.400000000000472,-0.4371601285288477,-0.18382837234450988
6.600000000000539,-0.40006005583693194,-0.17141386024621147
6.800000000000606,-0.352668551356678,-0.1654316750862659
7.000000000000672,-0.29827176197659744,-0.15280131576706746
7.200000000000739,-0.23440252099310252,-0.14953799623726288
7.400000000000806,-0.16788887394958263,-0.1589255544263538
7.600000000000873,-0.10999427071795627,-0.1786727105867552
7.8000000000009395,-0.06024099551558384,-0.2072590073962182
8.000000000001005,0.0016455089022392876,-0.2370886093633175
8.200000000000895,0.042405263936815256,-0.27774088578328643
8.400000000000784,0.06717563926301964,-0.33142528660481735
8.600000000000673,0.07828586539683291,-0.388538181348513
8.800000000000562,0.07098504800082733,-0.4384455404499044
9.000000000000451,0.05282380835842199,-0.47351661386388805
9.20000000000034,0.017507257965409282,-0.49155918913324553
9.40000000000023,-0.028214089318089948,-0.48981918886082415
9.600000000000119,-0.0833952295832298,-0.4858694365779346
9.800000000000008,-0.12753420304134924,-0.4702690541147136
10.000999999999896,-0.1421465180864735,-0.4363645988383676
10.200999999999786,-0.14095454198382856,-0.38352952915748806
10.400999999999675,-0.12134832673651405,-0.34016251682092546
10.600999999999564,-0.0834231260849728,-0.29610106520956503
10.800999999999453,-0.041235938098622686,-0.2546034901396716
11.000999999999342,-0.000737543751128797,-0.21345851219337408
11.200999999999231,0.0427505163810639,-0.15689368721287872
11.40099999999912,0.09242637180522315,-0.12122896940993172
11.60099999999901,0.14572897930865314,-0.12230770316609389
11.800999999998899,0.2107999905659896,-0.11780073849359617
12.000999999998788,0.28481338272141077,-0.11366021461412443
12.200999999998677,0.35118197545279023,-0.12720786661500644
12.400999999998566,0.4027519848925729,-0.16021237936717486
12.600999999998455,0.46065274811852613,-0.20855298933049046
12.800999999998345,0.4755695200496421,-0.25583902567988853
13.000999999998234,0.4761352180529894,-0.3148283906933564
13.200999999998123,0.46721747249964934,-0.3629451337635803
13.400999999998012,0.4432591713280458,-0.38943976096083843
13.600999999997901,0.40267871353947704,-0.3885712266597347
13.80099999999779,0.34921308851556937,-0.38187337900095114
14.00099999999768,0.28927944354544577,-0.37181515591857783
14.200999999997569,0.23003475881502816,-0.35813407292432126
14.400999999997458,0.20162476803934334,-0.3277732974026227
14.600999999997347,0.19808685265617848,-0.283563069537495
14.800999999997236,0.20793328756577178,-0.2366136130137207
15.000999999997125,0.22015689368954502,-0.185466799980567
15.200999999997014,0.24427582521217014,-0.1262373591715882
15.400999999996904,0.26869609799616906,-0.04953119858293843
15.600999999996793,0.2982641696355623,0.022822496323416343
15.800999999996682,0.3400946319311014,0.08026179994364344
16.000999999996573,0.3948460628679805,0.11697269213829434
16.200999999996817,0.4500545616146506,0.12510069282236583
16.40099999999706,0.5141200047208135,0.1208736588710445
16.600999999997306,0.5706156995444246,0.10123216769377712
16.80099999999755,0.6003951565925703,0.05956391150288974
17.000999999997795,0.6188534765217955,0.004478537507372931
17.20099999999804,0.6162256652344544,-0.05730052207329317
17.400999999998284,0.5948997216384988,-0.1318914603372438
17.60099999999853,0.5633079125629389,-0.1865480226724589
17.800999999998773,0.5131253848183088,-0.21459244253489024
18.000999999999017,0.4537780901638288,-0.22625167765903365
18.20099999999926,0.3969198589097782,-0.22902293921512093
18.400999999999506,0.34303600221409275,-0.2246371215187694
18.60099999999975,0.3032912055618101,-0.20638387982476275
18.799999999999994,0.2974728105716215,-0.17213828232787629
19.000000000000238,0.3053240443774525,-0.12247630255623039
19.200000000000482,0.32108880314433047,-0.06349326917267814
19.400000000000727,0.3418337339616897,-0.0072831182855494885
19.60000000000097,0.37649265794139425,0.05015980948622824
19.800000000001216,0.4258448252673907,0.10326157362070315
20.00000000000146,0.4879420696558563,0.1391367447577352
