Time (s),X (m),Y (m)
0.001,-0.000811087514270633,3.327365771613117e-19
0.20000000000000015,0.004889482561778462,-0.0006475306078952338
0.4000000000000003,0.009392116349533406,-0.0017501608506059055
0.6000000000000004,0.015368729079488457,-0.0025161530453079064
0.8000000000000006,0.02006306718272278,-0.005040911100596057
1.0000000000000007,0.03315718478635928,-0.006535411172281709
1.2009999999999785,0.04775591063457896,-0.009288057412944938
1.4009999999999565,0.061948648641129006,-0.016485378077954874
1.6009999999999345,0.07456135570757173,-0.021836118654781574
1.8009999999999124,0.09376908711643156,-0.024797962399818144
2.0009999999998906,0.11788722742306951,-0.041947454753640485
2.2009999999998686,0.14106918829411208,-0.06350758693543039
2.4009999999998466,0.1677588459972325,-0.09042076446677094
2.6009999999998246,0.19355984288308373,-0.10505479512459677
2.8009999999998025,0.21714862551640365,-0.10678626352700377
3.0009999999997805,0.2415464249033281,-0.12338573543992357
3.2009999999997585,0.2628083165992422,-0.1582152335735968
3.4009999999997365,0.2722750102772153,-0.18242281611969224
3.6009999999997144,0.2743755084910702,-0.1961004546629938
3.8009999999996924,0.27966496820090697,-0.21865911816905031
4.000999999999671,0.28005563364269437,-0.23656959465655947
4.200999999999738,0.280632112144183,-0.262811679433624
4.400999999999804,0.2794850635703815,-0.29639484977115915
4.600999999999871,0.27221269928427605,-0.33576534852770745
4.800999999999938,0.2650594775675036,-0.3765639914700681
5.000000000000004,0.2593818294366721,-0.41268199860841226
5.200000000000071,0.23793069128977645,-0.45089487771904124
5.400000000000138,0.20906019964852493,-0.481656837097791
5.600000000000205,0.17346227003864353,-0.49867897301657227
5.800000000000272,0.1454273900478723,-0.5076186025592958
6.000000000000338,0.11440875933396133,-0.5010836924283177
6.200000000000405,0.08284589294932643,-0.48871930942281006
6.400000000000472,0.05575337009208538,-0.4743014694764254
6.600000000000539,0.023679562059592662,-0.46020104424618685
6.800000000000606,-0.008981791413344035,-0.4422727696309823
7.000000000000672,-0.041866057014235215,-0.42343701817688223
7.200000000000739,-0.0799132185773421,-0.4052550759879103
7.400000000000806,-0.11766046936616482,-0.3841749719254093
7.600000000000873,-0.1560245373164888,-0.361152593095267
7.8000000000009395,-0.1959021812550423,-0.3310429866967167
8.000000000001005,-0.24601253836849435,-0.29876234373278243
8.200000000000895,-0.30570724651684333,-0.2556231032216994
8.400000000000784,-0.36705734060608325,-0.20382903745282852
8.600000000000673,-0.41979329249054353,-0.1522738694646988
8.800000000000562,-0.45291584976089694,-0.10075227298637743
9.000000000000451,-0.46420562988704284,-0.06077264295075664
9.20000000000034,-0.4536621726822929,-0.019287435724706925
9.40000000000023,-0.43694431196237016,0.011700766554910057
9.600000000000119,-0.4152437477892365,0.040852026460218994
9.800000000000008,-0.3867685346212648,0.08458068002154352
10.000999999999896,-0.35603667141158857,0.1305589509378349
10.200999999999786,-0.3238947442880376,0.18418282776363484
10.400999999999675,-0.30037370727681645,0.23622825197195804
10.600999999999564,-0.27230911607680197,0.2888848179796164
10.800999999999453,-0.23940424676356167,0.3426819897374757
11.000999999999342,-0.2012091067637348,0.38734521415974466
11.200999999999231,-0.1685141557085816,0.4082081130477115
11.40099999999912,-0.13316336673098217,0.4039668343265987
11.60099999999901,-0.09793078012968927,0.38905186144334086
11.800999999998899,-0.06660956474641933,0.3731706823493273
12.000999999998788,-0.03619363427668843,0.35518243652456327
12.200999999998677,-0.0007887348304870804,0.3329948802528871
12.400999999998566,0.03886642618473949,0.3101261822627138
12.600999999998455,0.07281572634779937,0.28637055679089246
12.800999999998345,0.10801003887718112,0.2704300621970443
13.000999999998234,0.15923229121810292,0.24621833474631052
13.200999999998123,0.2148475171283037,0.21153271150223069
13.400999999998012,0.2615125593425243,0.1776337234312978
13.600999999997901,0.3050084539171679,0.15483821506090303
13.80099999999779,0.3532044024934862,0.1289381517266669
14.00099999999768,0.4061904657040099,0.10227540097250025
14.200999999997569,0.4662510022220777,0.06860795399788674
14.400999999997458,0.5248799148083915,0.03665346059531743
14.600999999997347,0.5741706054770956,-0.004851542230842254
14.800999999997236,0.5965308256761603,-0.04704502891639491
15.000999999997125,0.5886892336235606,-0.09488593137328517
15.200999999997014,0.5752590423204851,-0.1356941736728937
15.400999999996904,0.5557477326488951,-0.17680181147239932
15.600999999996793,0.5245752038087158,-0.22402364248743215
15.800999999996682,0.4807824740986815,-0.2657468819459701
16.000999999996573,0.4272435367701213,-0.28821553677058936
16.200999999996817,0.37033515859815125,-0.29386911223091916
16.40099999999706,0.32485099349127045,-0.28067683734243654
16.600999999997306,0.2790601656308703,-0.26070917585418124
16.80099999999755,0.23266410891478626,-0.24354117017081767
17.000999999997795,0.18170540437342436,-0.22351693957094074
17.20099999999804,0.1325747492664261,-0.200981184834776
17.400999999998284,0.0756991021587394,-0.16909558989716295
17.60099999999853,0.017787159991183594,-0.1299410238990862
17.800999999998773,-0.033325191164630445,-0.09286050982967016
18.000999999999017,-0.07720223363701517,-0.05222776198519486
18.20099999999926,-0.09911124297691165,-0.008132346288836823
18.400999999999506,-0.09965502867783754,0.03250496965840392
18.60099999999975,-0.08266371239981408,0.08523283837034681
18.799999999999994,-0.05637376705866619,0.1396388874403658
19.000000000000238,-0.032237339724828486,0.18564740795092854
19.200000000000482,-0.0009827857918997982,0.23672313032803413
19.400000000000727,0.029840529817150938,0.28730971562468166
19.60000000000097,0.06941638153606036,0.3328629762630773
19.800000000001216,0.11087497577541316,0.374930285399427
20.00000000000146,0.16142028618251278,0.3987937607493381
