Time (s),X (m),Y (m)
0.001,0.00013020853671323254,0.0010272443824616275
0.20000000000000015,0.0014162189683547103,-0.0021662270623476958
0.4000000000000003,0.0029452156684236014,0.005238563215765188
0.6000000000000004,0.0072638718127235056,0.00047589434449328566
0.8000000000000006,0.02404359149668099,-0.0059945623204086815
1.0000000000000007,0.04511280518927394,-0.0066550917823279465
1.2009999999999785,0.05733111159320315,-0.023872252755661634
1.4009999999999565,0.07224206081518847,-0.04693021329182578
1.6009999999999345,0.09648108712080035,-0.06465379680647677
1.8009999999999124,0.12176101956464361,-0.06989625602607255
2.0009999999998906,0.15700533161740882,-0.0738305148914379
2.2009999999998686,0.18224287162465158,-0.08827454737072075
2.4009999999998466,0.21036744041099367,-0.10512328320200372
2.6009999999998246,0.24740855410954712,-0.10801798632824332
2.8009999999998025,0.27966052545776465,-0.1122493817024146
3.0009999999997805,0.3099006048466039,-0.1166580985291051
3.2009999999997585,0.3400039145126296,-0.12610708455680006
3.4009999999997365,0.37025770165353095,-0.15505408331612255
3.6009999999997144,0.4072019618863467,-0.1781105023943982
3.8009999999996924,0.4385205228673587,-0.19729403929576086
4.000999999999671,0.4683093959575889,-0.22604050301099785
4.200999999999738,0.49597714054994163,-0.2420814093118865
4.400999999999804,0.5183442814144266,-0.26689941878344486
4.600999999999871,0.543617820451821,-0.28744775742182355
4.800999999999938,0.573433978176945,-0.3027859758751114
5.000000000000004,0.5942656950822645,-0.3115965480980038
5.200000000000071,0.6153778666125116,-0.33323804572431415
5.400000000000138,0.6397464252843585,-0.35078459585049804
5.600000000000205,0.6611936933067591,-0.37264878732853296
5.800000000000272,0.682488159739369,-0.40132649779282686
6.000000000000338,0.7092340530405635,-0.43644534887468905
6.200000000000405,0.727104433606811,-0.46673977782576637
6.400000000000472,0.750037701436911,-0.4878604162833105
6.600000000000539,0.7802721342215674,-0.5043054730781384
6.800000000000606,0.8076477355179495,-0.5254317967165067
7.000000000000672,0.8463600019505308,-0.5374503991604721
7.200000000000739,0.8853392014293678,-0.5414579941607167
7.400000000000806,0.9152316880435084,-0.5558667406206308
7.600000000000873,0.9403538913653704,-0.576479474705484
7.8000000000009395,0.9617681897184046,-0.6034782130691845
8.000000000001005,0.9934153875651928,-0.6208843718026356
8.200000000000895,1.034719669161111,-0.6261546048547701
8.400000000000784,1.076782954713838,-0.6220431738381518
8.600000000000673,1.1145002192660625,-0.6155310005715504
8.800000000000562,1.1407097261569767,-0.620159628793891
9.000000000000451,1.1665941975248653,-0.6429449252926746
9.20000000000034,1.1792745372762143,-0.6772849688542483
9.40000000000023,1.1869239031238854,-0.7075803217638975
9.600000000000119,1.1837968683165603,-0.7448033056069303
9.800000000000008,1.1628230600563911,-0.7803551718923099
10.000999999999896,1.1554066414859163,-0.8190878048948553
10.200999999999786,1.1530523857011628,-0.8633197057996657
10.400999999999675,1.1368210599590285,-0.8903986773333055
10.600999999999564,1.1127174986065025,-0.9219542269320034
10.800999999999453,1.083099928986621,-0.948029699141558
11.000999999999342,1.058213109117303,-0.9708031329707625
11.200999999999231,1.0330732955958466,-0.9865970771258823
11.40099999999912,1.0113331026457308,-1.0160983720412475
11.60099999999901,0.9824548484735952,-1.0439983044994794
11.800999999998899,0.9573197084960371,-1.063129784167345
12.000999999998788,0.9383574124267198,-1.0845578690661926
12.200999999998677,0.9051732370482142,-1.1081866642816443
12.400999999998566,0.8753192230489238,-1.1244370888495412
12.600999999998455,0.851617855442201,-1.1475141327200307
12.800999999998345,0.8296219577570514,-1.1744441446732903
13.000999999998234,0.7980398562659198,-1.196298231464227
13.200999999998123,0.7688026318344787,-1.2199450171415642
13.400999999998012,0.7453392681602599,-1.2506815408371816
13.600999999997901,0.7227580179744865,-1.2803452644154207
13.80099999999779,0.7125509853896305,-1.3199887134550334
14.00099999999768,0.6915102232452112,-1.3531102663050623
14.200999999997569,0.6677415934134414,-1.3829020706759132
14.400999999997458,0.6391785817629191,-1.411396565323049
14.600999999997347,0.6159197705105862,-1.444855886888458
14.800999999997236,0.58482759587467,-1.4743297918825307
15.000999999997125,0.5548342669978423,-1.5063149795911364
15.200999999997014,0.5234079176820693,-1.5307529172509005
15.400999999996904,0.4976771865282004,-1.5434827421582897
15.600999999996793,0.4661721527331263,-1.5390887036663756
15.800999999996682,0.4343419880643412,-1.5227848989533461
16.000999999996573,0.4028516717937294,-1.5105047793714448
16.200999999996817,0.3653009536414671,-1.4890242875435646
16.40099999999706,0.331032984242019,-1.469306588230424
16.600999999997306,0.3007956440299309,-1.4407409229146226
16.80099999999755,0.26461772932907024,-1.434371223862987
17.000999999997795,0.22382835816483576,-1.4252838126588772
17.20099999999804,0.1883390759145418,-1.4064924214387837
17.400999999998284,0.15632609301374192,-1.396097037727547
17.60099999999853,0.12540605210801123,-1.3868104978681057
17.800999999998773,0.09349434576576807,-1.3739689279455227
18.000999999999017,0.05770279521066717,-1.3534750960852668
18.20099999999926,0.017665013384186353,-1.336218767672073
18.400999999999506,-0.016276378123041953,-1.3108597330433427
18.60099999999975,-0.046069376680533125,-1.273323338102319
18.799999999999994,-0.07670796192833271,-1.240075743239869
19.000000000000238,-0.10743322059237413,-1.2205191374841091
19.200000000000482,-0.13646785353860508,-1.1995026148807675
19.400000000000727,-0.16949411343379095,-1.1977227770589656
19.60000000000097,-0.2127008301417581,-1.1974318282676537
19.800000000001216,-0.25821715252448224,-1.197184029608476
20.00000000000146,-0.3033992896406799,-1.1899667751746081
