Time (s),X (m),Y (m)
0.001,0.0007356649194092869,0.0008930179339548111
0.20000000000000015,0.0004775056653943,-0.00240052387869335
0.4000000000000003,0.0074742242029557536,-0.000840725124591288
0.6000000000000004,0.01897482176923174,0.006717620266841094
0.8000000000000006,0.03056424755211801,0.00621189938328713
1.0000000000000007,0.048124362626032785,-0.00199722102054761
1.2009999999999785,0.0700169878368375,-0.011048163842210608
1.4009999999999565,0.08807221405940703,-0.013811048419320224
1.6009999999999345,0.10737957904941367,-0.009014313399974749
1.8009999999999124,0.12941007588109132,-0.01351774063822616
2.0009999999998906,0.16003832406839288,-0.008669070020464596
2.2009999999998686,0.1914012140097582,-0.0025600707252153216
2.4009999999998466,0.22134605461837428,-0.0017416369565370342
2.6009999999998246,0.25876956628890335,0.005441906310585976
2.8009999999998025,0.29479567327360684,0.023926545228477886
3.0009999999997805,0.321154622650859,0.03874245328445934
3.2009999999997585,0.3452730772431077,0.04613046272993803
3.4009999999997365,0.37195934234100064,0.045022034470328536
3.6009999999997144,0.396101982416687,0.04102410565048825
3.8009999999996924,0.4154681005445763,0.02675389793036177
4.000999999999671,0.4388702393562873,0.008128548804479
4.200999999999738,0.45394222524055317,-0.017255227903567923
4.400999999999804,0.4790026814263656,-0.0302877847326639
4.600999999999871,0.49943558358927187,-0.043620313232992015
4.800999999999938,0.509048974799602,-0.060578880442653915
5.000000000000004,0.5292171915109967,-0.07858022493137498
5.200000000000071,0.5443396400741991,-0.10107677150761853
5.400000000000138,0.5521013003206404,-0.12725528016993254
5.600000000000205,0.5737591888007277,-0.14433111306481583
5.800000000000272,0.5888587835652862,-0.16706052336414243
6.000000000000338,0.6029561837830377,-0.18680446985752217
6.200000000000405,0.6232554607310002,-0.21272255432820078
6.400000000000472,0.6477111553984288,-0.23961550948978655
6.600000000000539,0.670142431205006,-0.2646532010858298
6.800000000000606,0.6826487077971858,-0.28556133472663614
7.000000000000672,0.6890785237077932,-0.3076622269258804
7.200000000000739,0.7085193228386405,-0.32471038163415455
7.400000000000806,0.7278926543159204,-0.34172169354929605
7.600000000000873,0.7411785648141573,-0.36794864545188305
7.8000000000009395,0.7515251220965563,-0.39585010191392184
8.000000000001005,0.7678516515968018,-0.42607770433104014
8.200000000000895,0.803969181224597,-0.4533362949958409
8.400000000000784,0.8307052977290427,-0.4798378641791624
8.600000000000673,0.849637796155142,-0.507382208321764
8.800000000000562,0.8756095726191216,-0.535564047890319
9.000000000000451,0.9085405681914689,-0.5591924883552306
9.20000000000034,0.9468486828940635,-0.5792721426670425
9.40000000000023,0.9770313162494139,-0.6051202656980068
9.600000000000119,1.0058376341811672,-0.6274909811301044
9.800000000000008,1.0424317799932707,-0.6496839709008875
10.000999999999896,1.0657589006844712,-0.6743239544581962
10.200999999999786,1.0974394356168415,-0.6954556764720045
10.400999999999675,1.1232059299563888,-0.7184817956159824
10.600999999999564,1.1376721236413354,-0.7357970271833523
10.800999999999453,1.1539902813798568,-0.7562793214933755
11.000999999999342,1.1913628576911675,-0.7793426221542347
11.200999999999231,1.2165594161911306,-0.8045959972556795
11.40099999999912,1.2388319655903886,-0.833602984869823
11.60099999999901,1.2507746933574024,-0.8634089915876088
11.800999999998899,1.2796587643653303,-0.8929005765898685
12.000999999998788,1.3057045073472286,-0.9190082742759431
12.200999999998677,1.3203999082842488,-0.9498257879054245
12.400999999998566,1.351369438591911,-0.9802400433649676
12.600999999998455,1.387199779924454,-1.010654731427556
12.800999999998345,1.4160307907161394,-1.0438136438862844
13.000999999998234,1.4403850468207497,-1.0748008015695552
13.200999999998123,1.4633136485588933,-1.10841638989806
13.400999999998012,1.491753895413959,-1.1367815616780588
13.600999999997901,1.5067578707668035,-1.1625468285680776
13.80099999999779,1.538132835467162,-1.1894188151589142
14.00099999999768,1.5578256857709123,-1.2176515702808326
14.200999999997569,1.5809894932896233,-1.2483756148848653
14.400999999997458,1.602275282631665,-1.2774182291194098
14.600999999997347,1.6254556974421102,-1.2941977587154478
14.800999999997236,1.6354212975469615,-1.3155520867829076
15.000999999997125,1.658221837988226,-1.3391137122387864
15.200999999997014,1.6761881222080641,-1.3630723105413565
15.400999999996904,1.6866433446611337,-1.3865468911662409
15.600999999996793,1.7064438577996477,-1.4106089003557702
15.800999999996682,1.7219253073444647,-1.4342201486230448
16.000999999996573,1.7432322382159948,-1.4532289125536522
16.200999999996817,1.7726857549879012,-1.4768360981932387
16.40099999999706,1.8041571062239943,-1.4996586898080213
16.600999999997306,1.838420813678637,-1.5197916809552678
16.80099999999755,1.8660595328908496,-1.5393732634671147
17.000999999997795,1.8983952430340643,-1.5519925462371311
17.20099999999804,1.9292554589292112,-1.5682187307061535
17.400999999998284,1.9506592476477098,-1.5881999217500724
17.60099999999853,1.9692142296161292,-1.6109118274232663
17.800999999998773,1.9982567533196354,-1.632292379798171
18.000999999999017,2.013690208660627,-1.6572609816691013
18.20099999999926,2.034534644743076,-1.6764090180772433
18.400999999999506,2.0586189482503987,-1.6994951283405213
18.60099999999975,2.088784910554427,-1.7215908240202489
18.799999999999994,2.1172961684191165,-1.7398659902945235
19.000000000000238,2.1454363986664053,-1.759645792905688
19.200000000000482,2.1661125621687765,-1.7793328855032433
19.400000000000727,2.195039126224467,-1.8028357750343516
19.60000000000097,2.2143528172349023,-1.8263822987533527
19.800000000001216,2.237986865577472,-1.8521094663300695
20.00000000000146,2.268623348515143,-1.8704976549363026
