Time (s),X (m),Y (m)
0.001,4.1020280575708355e-05,-0.0010155025257856578
0.20000000000000015,0.001759976643403916,0.0004285564794547091
0.4000000000000003,0.004057123082347069,-0.0034029482266038653
0.6000000000000004,0.009106824373006129,-0.006035539647801959
0.8000000000000006,0.018760487411353294,-0.002172405919863198
1.0000000000000007,0.030597263724913518,0.0009704052295956045
1.2009999999999785,0.04225022422492072,0.007289204461009024
1.4009999999999565,0.049584920692013784,-0.0026841894028113884
1.6009999999999345,0.055263248518263426,-0.005137357861341755
1.8009999999999124,0.07110595645017033,-0.003386818194846103
2.0009999999998906,0.0874818693443375,-0.007399136428205069
2.2009999999998686,0.10172382753577737,-0.0026223259278380304
2.4009999999998466,0.11491194113481733,-0.007294259930101728
2.6009999999998246,0.13244613807079988,-0.005418617840592778
2.8009999999998025,0.1500953136780179,-0.007074262102332385
3.0009999999997805,0.17051094442138515,-0.006336709723879281
3.2009999999997585,0.19214889387280493,0.007605213400070122
3.4009999999997365,0.21033018669709855,0.0005075680835275255
3.6009999999997144,0.22658575623774801,0.0026302402342566473
3.8009999999996924,0.24501417348747306,0.00394949601239593
4.000999999999671,0.2712012420197283,0.011044747116876212
4.200999999999738,0.2923341219608746,0.014402315398841526
4.400999999999804,0.3085977202896484,0.013156948625461202
4.600999999999871,0.3244521054591339,0.018795680030445183
4.800999999999938,0.3401871768697697,0.014300523689612257
5.000000000000004,0.3516706132187155,0.006145965190269397
5.200000000000071,0.3628309025542883,0.002196822748523617
5.400000000000138,0.3844277013426226,-0.0008499284964898078
5.600000000000205,0.4036478794558787,-0.0008061810099979349
5.800000000000272,0.42383172186851076,-0.0020383117037000263
6.000000000000338,0.439117272958561,-0.0076718161953782445
6.200000000000405,0.45400981772306925,-0.009481310006854315
6.400000000000472,0.4689075743729404,-0.010818944521733707
6.600000000000539,0.48575276626910757,-0.01695926682846088
6.800000000000606,0.4996781600093449,-0.022337760823019727
7.000000000000672,0.5158340691895882,-0.024065116189156216
7.200000000000739,0.5322639056748688,-0.018612744268065657
7.400000000000806,0.5497626993309227,-0.019044136600449086
7.600000000000873,0.5647574349162205,-0.01622122606251657
7.8000000000009395,0.583984311669618,-0.01470891943962819
8.000000000001005,0.6068520463540665,-0.01036626304226827
8.200000000000895,0.6268923259362302,-0.014537644294417743
8.400000000000784,0.6434201878070028,-0.019885790248886797
8.600000000000673,0.6623865984693158,-0.0198547797110797
8.800000000000562,0.6754554405236217,-0.02637719539293793
9.000000000000451,0.690602231580602,-0.02900970820336227
9.20000000000034,0.7074925602251707,-0.0384468740026963
9.40000000000023,0.7250879851733265,-0.04130625349919764
9.600000000000119,0.7446390386983824,-0.037078824119691364
9.800000000000008,0.7673848467952019,-0.031036805107882953
10.000999999999896,0.7881141558659425,-0.025231240257253273
10.200999999999786,0.8059727928380805,-0.030984458362353137
10.400999999999675,0.8275615439450533,-0.02443412198914305
10.600999999999564,0.8478074196463762,-0.019644979272715486
10.800999999999453,0.8677640561440645,-0.024398864363655556
11.000999999999342,0.8822915050650338,-0.026451336234894946
11.200999999999231,0.8995778764808366,-0.0222222468169088
11.40099999999912,0.918730331133993,-0.021974354824171764
11.60099999999901,0.9393393946665526,-0.026849229939620998
11.800999999998899,0.96111821019367,-0.02864420373736177
12.000999999998788,0.9832515134015758,-0.01991599971641791
12.200999999998677,1.0056837284676923,-0.013123409578166559
12.400999999998566,1.0280587568440196,-0.0025457417614144747
12.600999999998455,1.0456528264083524,-0.0014897019870915315
12.800999999998345,1.0625743146293682,-0.003173842311058054
13.000999999998234,1.079820127097033,-0.0046949700643888455
13.200999999998123,1.0977611199805049,-0.002909591442412486
13.400999999998012,1.1148101369934569,-0.002308892641602586
13.600999999997901,1.1304691325034555,0.005457953491643023
13.80099999999779,1.1462459775086629,0.001011281389395549
14.00099999999768,1.1624821114723252,0.0036426107878498215
14.200999999997569,1.1827456646638355,0.004164258221923361
14.400999999997458,1.1974342780814857,-0.0054506159161968526
14.600999999997347,1.213733520437974,-0.008164601495998812
14.800999999997236,1.2370703174883866,4.053429058992566e-05
15.000999999997125,1.2553003382280723,0.0008420717637798968
15.200999999997014,1.272366375878929,-0.00043418040662073057
15.400999999996904,1.289518021362656,0.0012849989237423403
15.600999999996793,1.3096448311330127,0.014693245429818036
15.800999999996682,1.3333970183566672,0.022896669613782943
16.000999999996573,1.3485051781692052,0.02311039315106033
16.200999999996817,1.369262262969078,0.030527393706906065
16.40099999999706,1.3842150533277449,0.032426745202677625
16.600999999997306,1.4046862479501347,0.040198988163665364
16.80099999999755,1.4244906047400678,0.03987593940431371
17.000999999997795,1.4473317012755984,0.042081513182363535
17.20099999999804,1.4721672816302274,0.046768524396559014
17.400999999998284,1.4909491087055906,0.049548357361260245
17.60099999999853,1.5097701664228698,0.05398830879660339
17.800999999998773,1.5263021750830221,0.05338927557913173
18.000999999999017,1.5437391204667235,0.06045628577980208
18.20099999999926,1.5597868251478046,0.056720455586559776
18.400999999999506,1.5802653449140587,0.05425793578224345
18.60099999999975,1.5955010271776513,0.055879927858762536
18.799999999999994,1.6094205928810434,0.06009677299590846
19.000000000000238,1.6289899151772782,0.06812557345962068
19.200000000000482,1.6435016547870096,0.06657657997531455
19.400000000000727,1.6654115623606394,0.07219430882447216
19.60000000000097,1.6847523492032817,0.0710612957720963
19.800000000001216,1.703212825526159,0.08168911968933763
20.00000000000146,1.7214810733561874,0.07040345425471427
