Time (s),X (m),Y (m)
0.001,-0.00021570977506068912,0.0009345558501746678
0.20000000000000015,0.0032436244021052272,-0.003929152430910329
0.4000000000000003,0.011894975986331154,-0.015206223221170321
0.6000000000000004,0.01871598918355292,-0.015706437678467272
0.8000000000000006,0.028545378984925672,-0.014060068464055992
1.0000000000000007,0.03959852360829427,-0.01880205898236327
1.2009999999999785,0.052439112266211826,-0.029844077714451515
1.4009999999999565,0.07663812456386905,-0.034407606275111025
1.6009999999999345,0.09505978993476316,-0.05647997482346961
1.8009999999999124,0.11023609027162715,-0.07821446829508107
2.0009999999998906,0.12062283139517775,-0.09207191712946282
2.2009999999998686,0.13403665471856976,-0.09724391659085775
2.4009999999998466,0.14506292777260718,-0.1047077973816457
2.6009999999998246,0.1611340715871607,-0.11128054847882182
2.8009999999998025,0.18070186514676198,-0.12434022152438126
3.0009999999997805,0.19295844239024235,-0.13697543397452477
3.2009999999997585,0.21035122841571377,-0.15712116201718365
3.4009999999997365,0.2277778560373171,-0.1586844503213275
3.6009999999997144,0.2381406317210528,-0.1763024053528147
3.8009999999996924,0.2510858290893338,-0.20276290389525004
4.000999999999671,0.26114419217222107,-0.22373734368084572
4.200999999999738,0.27756488070252183,-0.23128854500793275
4.400999999999804,0.29654767512802244,-0.23968505009660193
4.600999999999871,0.31964134570627073,-0.25558878344024216
4.800999999999938,0.33281525937859013,-0.2791925912688431
5.000000000000004,0.34743648263176913,-0.30140254024327484
5.200000000000071,0.36522346689301716,-0.32230557202314497
5.400000000000138,0.38164490870060525,-0.3414976403816
5.600000000000205,0.3830846074486511,-0.36543015651569233
5.800000000000272,0.39146809965112644,-0.38591482299999064
6.000000000000338,0.40341071894730923,-0.39727861599261177
6.200000000000405,0.4262232537867869,-0.4120029520443339
6.400000000000472,0.4448674887384915,-0.4334478655042547
6.600000000000539,0.46523188084383166,-0.4435776594185987
6.800000000000606,0.47607725023149544,-0.4546793871334532
7.000000000000672,0.49410668204690805,-0.46894312351301165
7.200000000000739,0.5111440073125632,-0.4889229472699374
7.400000000000806,0.5262790264732568,-0.5113114253308476
7.600000000000873,0.5470243749519995,-0.5257715490413059
7.8000000000009395,0.5616712270347624,-0.5491240480011281
8.000000000001005,0.5625869780085099,-0.5776916237154386
8.200000000000895,0.5635885865256699,-0.6009014613105078
8.400000000000784,0.5784527942888449,-0.6238280343857876
8.600000000000673,0.5996652012950948,-0.6434665721063015
8.800000000000562,0.6199115283192131,-0.6619782287400124
9.000000000000451,0.6456540569487489,-0.6743214000710311
9.20000000000034,0.6616221067770629,-0.6925941677920545
9.40000000000023,0.6778473864929864,-0.7203817666752873
9.600000000000119,0.6931122048764903,-0.7446000211197235
9.800000000000008,0.7012784630679068,-0.7649314161433115
10.000999999999896,0.7034599246388297,-0.7878654322463535
10.200999999999786,0.713279857568758,-0.8047493029937529
10.400999999999675,0.7305270792929661,-0.8268877157445607
10.600999999999564,0.7440690574003014,-0.8508200052170494
10.800999999999453,0.7543207809975236,-0.8736724117239859
11.000999999999342,0.7676658610729945,-0.9049142559367905
11.200999999999231,0.7764196880378387,-0.9389618386691093
11.40099999999912,0.7814375536609586,-0.9759108744580014
11.60099999999901,0.7905821190262556,-0.9930647792098427
11.800999999998899,0.7998856390989023,-1.014010928770722
12.000999999998788,0.7970633040163115,-1.0426170543374267
12.200999999998677,0.7907555402670894,-1.067051288441204
12.400999999998566,0.7896243169419686,-1.0935995446733202
12.600999999998455,0.7963984480704533,-1.116649256565953
12.800999999998345,0.7939302133135646,-1.146266193627483
13.000999999998234,0.803419571009607,-1.1734807665106066
13.200999999998123,0.7905004954979933,-1.2020732701577448
13.400999999998012,0.7836812387510401,-1.235813766370697
13.600999999997901,0.7775439139361102,-1.2654032463816092
13.80099999999779,0.7665253240085059,-1.2894712624111935
14.00099999999768,0.7488151113634193,-1.3092598588403839
14.200999999997569,0.7490645152535218,-1.3333861114560328
14.400999999997458,0.7525913863364068,-1.3572235834926947
14.600999999997347,0.739058938914595,-1.375875673661481
14.800999999997236,0.7216009356442907,-1.3878497355976502
15.000999999997125,0.7094136125610406,-1.4060847634986064
15.200999999997014,0.6910268140314217,-1.4267094092537884
15.400999999996904,0.6720377435545322,-1.4425471994038108
15.600999999996793,0.6550465040074912,-1.452733612284399
15.800999999996682,0.6420041420658629,-1.469714988609109
16.000999999996573,0.6261592716529384,-1.4847628025884223
16.200999999996817,0.6090389266785593,-1.4978353428209248
16.40099999999706,0.5870337106901854,-1.513361518664575
16.600999999997306,0.5534132484815351,-1.523233898589474
16.80099999999755,0.5231230790994359,-1.53131259706134
17.000999999997795,0.4902269030750869,-1.5386498432566427
17.20099999999804,0.47119718475666317,-1.5547443856016807
17.400999999998284,0.4488477090438007,-1.5760795070507974
17.60099999999853,0.42722187019633207,-1.5931554150811145
17.800999999998773,0.3988864829952299,-1.5920594978207505
18.000999999999017,0.370360948595709,-1.5924207323237436
18.20099999999926,0.355216179207455,-1.6063459505241529
18.400999999999506,0.3421926935012255,-1.627960226239128
18.60099999999975,0.31526779085521417,-1.639330740912241
18.799999999999994,0.2925938992455077,-1.657711131577657
19.000000000000238,0.2727084582267715,-1.6735833154855537
19.200000000000482,0.2500086909421344,-1.6736794971390752
19.400000000000727,0.21991460788862577,-1.6835288798871915
19.60000000000097,0.19287632924180742,-1.692340226900817
19.800000000001216,0.16649049026323745,-1.695750361590765
20.00000000000146,0.13606812765177892,-1.703375375606187
