Time (s),X (m),Y (m)
0.001,-0.0004427414248986554,0.0007899207378008392
0.20000000000000015,0.0067580659465220246,-0.004008508394574834
0.4000000000000003,0.018017569098758963,0.00028305532380078484
0.6000000000000004,0.032495402090701384,0.01987299750671658
0.8000000000000006,0.04815396242582356,0.05236873716398686
1.0000000000000007,0.06543516809355639,0.06548763355559052
1.2009999999999785,0.0894802754237325,0.06268418292649389
1.4009999999999565,0.11310288497597239,0.060488405711121726
1.6009999999999345,0.13573367853851764,0.023797305096580106
1.8009999999999124,0.15867262502345972,-0.023671350692409818
2.0009999999998906,0.187652757909616,-0.06570362244069085
2.2009999999998686,0.2168101204784675,-0.10386730995786722
2.4009999999998466,0.2415407995192186,-0.14515985803022768
2.6009999999998246,0.26245582614036966,-0.17940149870358196
2.8009999999998025,0.2754360683260159,-0.2186832339105087
3.0009999999997805,0.25845144569444367,-0.2637512049494539
3.2009999999997585,0.22578568276824484,-0.3014109029066973
3.4009999999997365,0.1928863592718825,-0.3323630473823647
3.6009999999997144,0.1520362068804829,-0.36047052496306414
3.8009999999996924,0.10828703945823558,-0.3873501090022787
4.000999999999671,0.0682528782161892,-0.41346918110737585
4.200999999999738,0.016687804141639267,-0.430997972275634
4.400999999999804,-0.04164348339526589,-0.4318330082778583
4.600999999999871,-0.101039552192166,-0.41890891992561263
4.800999999999938,-0.16066055938926505,-0.3985252315889385
5.000000000000004,-0.21436165309242822,-0.3967816887198472
5.200000000000071,-0.26746187072638244,-0.38583208298025734
5.400000000000138,-0.31955319441079,-0.3655532213031524
5.600000000000205,-0.36178298979553036,-0.32063976444620745
5.800000000000272,-0.40051923567086045,-0.27788220520085277
6.000000000000338,-0.42981100672865097,-0.24415824004640538
6.200000000000405,-0.4357817977169101,-0.19501014619213453
6.400000000000472,-0.43539225842104506,-0.13482178206818765
6.600000000000539,-0.4259021001095055,-0.06392527998387618
6.800000000000606,-0.3967890751319733,0.0007823621288706827
7.000000000000672,-0.3616954575941605,0.060211733369705936
7.200000000000739,-0.32157415595657407,0.10328123899884552
7.400000000000806,-0.2762202029804382,0.12674267823135424
7.600000000000873,-0.236128251484659,0.14933880512770464
7.8000000000009395,-0.19028018891510887,0.15419736121869854
8.000000000001005,-0.14165981568493918,0.1448239193882518
8.200000000000895,-0.09281577176578695,0.11111684244260085
8.400000000000784,-0.06317758995605997,0.05721126133330247
8.600000000000673,-0.043305891461539556,-0.00690996256845003
8.800000000000562,-0.032150806785199826,-0.06750294500031226
9.000000000000451,-0.0422048739582271,-0.13013616427714567
9.20000000000034,-0.07651279309780543,-0.18992027452088764
9.40000000000023,-0.12439600249377962,-0.23550562116547843
9.600000000000119,-0.17057992772878539,-0.2568692373385078
9.800000000000008,-0.2152045092511455,-0.2561042752444229
10.000999999999896,-0.25966012936120797,-0.24067003272722484
10.200999999999786,-0.30745857353706596,-0.21942624065158614
10.400999999999675,-0.34051747363413243,-0.18740855284703709
10.600999999999564,-0.359357731189332,-0.14801920853919875
10.800999999999453,-0.3715380590205802,-0.10135957171689394
11.000999999999342,-0.36896616250148756,-0.04882406116552932
11.200999999999231,-0.35511620551395834,-0.0013434639866640855
11.40099999999912,-0.3297084365175151,0.0359193930780169
11.60099999999901,-0.2915247565848726,0.06306611760798453
11.800999999998899,-0.24704802205357787,0.0857327266591209
12.000999999998788,-0.19392821848353187,0.09812007186856402
12.200999999998677,-0.14115878138148358,0.09400796333505389
12.400999999998566,-0.08963498154068135,0.08486928697403988
12.600999999998455,-0.05068772497658581,0.06874735316850737
12.800999999998345,-0.021028806223653135,0.0346396304484296
13.000999999998234,0.005095547140670322,-0.009831218255533932
13.200999999998123,0.01780873061659106,-0.05881659479695398
13.400999999998012,0.012954631314968648,-0.10762853879797668
13.600999999997901,-0.014462571636188694,-0.15279832872543278
13.80099999999779,-0.056181892045837845,-0.18937953285444242
14.00099999999768,-0.10775583001735708,-0.2140636028849974
14.200999999997569,-0.15738336005580092,-0.23116437606938564
14.400999999997458,-0.20670818307711977,-0.24846977907651158
14.600999999997347,-0.26164030098982693,-0.25766835676342265
14.800999999997236,-0.3149530306345559,-0.23817697415557318
15.000999999997125,-0.3652612760306742,-0.19544122373636796
15.200999999997014,-0.3954148601569701,-0.1437533838313734
15.400999999996904,-0.40225791840008046,-0.08398826546326893
15.600999999996793,-0.39439401374508404,-0.025083021941759914
15.800999999996682,-0.37840624508844156,0.03197376927375369
16.000999999996573,-0.3687235469496069,0.09142668826290754
16.200999999996817,-0.3426190836559181,0.14497698647723342
16.40099999999706,-0.29876194516007687,0.1838650781740976
16.600999999997306,-0.23939991627828475,0.20287936036995924
16.80099999999755,-0.16862412460195764,0.2091376013416658
17.000999999997795,-0.0988700392118624,0.2110626119683757
17.20099999999804,-0.03652490920635404,0.21244549836414797
17.400999999998284,0.0010795888118868625,0.1637451860990331
17.60099999999853,0.02873544968605345,0.09909815374770127
17.800999999998773,0.03210957721338745,0.023399339962292848
18.000999999999017,0.03688828792008043,-0.04832533432384371
18.20099999999926,0.019135058645543584,-0.11381656403685159
18.400999999999506,-0.014633479192977947,-0.16885697776723582
18.60099999999975,-0.06752935920631135,-0.20789486819841038
18.799999999999994,-0.12503812173514353,-0.22867056948171158
19.000000000000238,-0.1842235434378116,-0.23245305159901664
19.200000000000482,-0.2404761813742541,-0.21742840164053667
19.400000000000727,-0.29218932606455905,-0.1940117932355578
19.60000000000097,-0.3447496893395707,-0.16672275965218672
19.800000000001216,-0.3836971606861807,-0.12412629315601328
20.00000000000146,-0.4124818421573667,-0.074637329082708
