Time (s),X (m),Y (m)
0.001,0.0010100015126501532,-0.0006628221997479689
0.20000000000000015,8.630606109647708e-05,0.0023129964819607633
0.4000000000000003,0.001334841485932082,0.003749777125467881
0.6000000000000004,0.00025534982212756176,0.015520097478618607
0.8000000000000006,0.007817357608678795,0.013375417745429713
1.0000000000000007,0.008952138692901913,0.014832917746215967
1.2009999999999785,0.022058258390933824,0.00861657272887791
1.4009999999999565,0.02436563160190818,0.009059332645707274
1.6009999999999345,0.03398272393067132,0.015733698137584032
1.8009999999999124,0.05215338345310582,0.018426871364273425
2.0009999999998906,0.0639772719008911,0.02225528459616371
2.2009999999998686,0.07778048014987793,0.01530250182394589
2.4009999999998466,0.09101992408572519,0.022751123189477366
2.6009999999998246,0.10992294937998028,0.025825588936513866
2.8009999999998025,0.13179377155505442,0.02509230081788504
3.0009999999997805,0.15069239873336937,0.02823171859201935
3.2009999999997585,0.16148647692851456,0.03524687488086347
3.4009999999997365,0.16903637916726993,0.04077840272490352
3.6009999999997144,0.1806429271358001,0.03899090445009284
3.8009999999996924,0.19410640890273323,0.039321521577145566
4.000999999999671,0.2068721506372835,0.040354037715922046
4.200999999999738,0.22421452156573982,0.03627451449663117
4.400999999999804,0.24068296950758986,0.03412260524475171
4.600999999999871,0.26042227894342906,0.03262833036965553
4.800999999999938,0.2758310932667076,0.02774699588716807
5.000000000000004,0.29363622396818273,0.014808392310496852
5.200000000000071,0.31226007710617343,0.0012057702258081334
5.400000000000138,0.32724678688813724,-0.014200078533712338
5.600000000000205,0.34561769266319425,-0.026307971066964902
5.800000000000272,0.3604381232320786,-0.03521989993969499
6.000000000000338,0.3718358241289372,-0.0500922746365823
6.200000000000405,0.37871974478934295,-0.0608550112039892
6.400000000000472,0.3843510143593304,-0.08021914114281449
6.600000000000539,0.3908416904163335,-0.1013352015406347
6.800000000000606,0.3942905050047281,-0.12016107442582716
7.000000000000672,0.3891966634959909,-0.14039906619622952
7.200000000000739,0.38392474817564354,-0.1679036035794024
7.400000000000806,0.38018385672444865,-0.18836965706928957
7.600000000000873,0.3811399158766581,-0.2028577805213048
7.8000000000009395,0.383083918455814,-0.22002188337386921
8.000000000001005,0.3789788775272988,-0.23892942105506434
8.200000000000895,0.37557187500753864,-0.2622569463362542
8.400000000000784,0.37503465583933776,-0.2842743088786211
8.600000000000673,0.3684498825263727,-0.31760287404831244
8.800000000000562,0.3603806470843139,-0.34991085417491974
9.000000000000451,0.34846638900884774,-0.38606539012281177
9.20000000000034,0.33754732354895767,-0.4160084606783699
9.40000000000023,0.3346387798193945,-0.4420819732495603
9.600000000000119,0.3406550412747111,-0.47020643302814397
9.800000000000008,0.338876331563033,-0.5020775215356758
10.000999999999896,0.3380147770060398,-0.5249884447375592
10.200999999999786,0.33646412865514636,-0.5461945173119194
10.400999999999675,0.33404019987066524,-0.5697854612244525
10.600999999999564,0.32736422951404726,-0.5978841557924855
10.800999999999453,0.3164550483689053,-0.6287662199679015
11.000999999999342,0.3117037789737007,-0.6582082285076287
11.200999999999231,0.3065829012825116,-0.6823255858331784
11.40099999999912,0.30352780920599115,-0.7031399388517795
11.60099999999901,0.30263406426423073,-0.7209463196874629
11.800999999998899,0.29018225490915045,-0.7482646719871685
12.000999999998788,0.2789855661251104,-0.7729517604139952
12.200999999998677,0.2726339862164259,-0.7990623126293356
12.400999999998566,0.2562913510194374,-0.8222486991292316
12.600999999998455,0.23661362546476533,-0.8440737718346178
12.800999999998345,0.21818138665929127,-0.8617132585213714
13.000999999998234,0.20095700492169868,-0.8755082326136252
13.200999999998123,0.18238841751306664,-0.8825721566928297
13.400999999998012,0.16316193917779917,-0.8855928620649636
13.600999999997901,0.1431314144808489,-0.8916940396113827
13.80099999999779,0.12960755089919462,-0.8986176944410579
14.00099999999768,0.11325514746518943,-0.9047311853225095
14.200999999997569,0.0904775520604273,-0.9056339536829906
14.400999999997458,0.07009924480635012,-0.9061339217256131
14.600999999997347,0.05489991923739062,-0.9123389646697077
14.800999999997236,0.035338317262194746,-0.914358988556604
15.000999999997125,0.005135304386725335,-0.9084958979407032
15.200999999997014,-0.02409403649943457,-0.9023687751451037
15.400999999996904,-0.04705734591707284,-0.8982447672983845
15.600999999996793,-0.0620503694772872,-0.8903155217734844
15.800999999996682,-0.09061338431347996,-0.8823635954907618
16.000999999996573,-0.12009487105054524,-0.8662507643712326
16.200999999996817,-0.14620543322461169,-0.8534420030671506
16.40099999999706,-0.16991197113433648,-0.8503678408059511
16.600999999997306,-0.1950058791842808,-0.8423945486181204
16.80099999999755,-0.21983006028171526,-0.8247732871899968
17.000999999997795,-0.24770679716931165,-0.8107819810774383
17.20099999999804,-0.2700996408651421,-0.7975811504428114
17.400999999998284,-0.2912865869536532,-0.7751456607680215
17.60099999999853,-0.3118999452601745,-0.760462609576402
17.800999999998773,-0.33188431766301996,-0.7443843748283104
18.000999999999017,-0.34345417599220973,-0.728295206470568
18.20099999999926,-0.35374667524053005,-0.7100955513117402
18.400999999999506,-0.3633698356724266,-0.688694092862551
18.60099999999975,-0.3739882308082725,-0.6637678261307323
18.799999999999994,-0.3803370691393244,-0.6477243633587584
19.000000000000238,-0.39125083800992405,-0.6293433787517108
19.200000000000482,-0.3972274783980852,-0.6106281560055611
19.400000000000727,-0.3966282267059274,-0.5878913184662667
19.60000000000097,-0.4022203951767746,-0.5671553981818008
19.800000000001216,-0.399851901822894,-0.547497161476589
20.00000000000146,-0.4043594313394593,-0.532674114833703
