Time (s),X (m),Y (m)
0.001,0.0008829029745972832,-0.0007899207378008392
0.20000000000000015,0.00023406649565084088,0.0029311423728267186
0.4000000000000003,0.009806051405837674,0.014081960075605015
0.6000000000000004,0.023378492623519213,0.03760267012188018
0.8000000000000006,0.045852962663185524,0.0648656193196875
1.0000000000000007,0.0735672209493222,0.09740207222981526
1.2009999999999785,0.10327965365869592,0.08604676638321418
1.4009999999999565,0.1342844953738468,0.0563813266844495
1.6009999999999345,0.153925692487537,0.001742360252888727
1.8009999999999124,0.18562496734534153,-0.05229342336820882
2.0009999999998906,0.22134791216466765,-0.09496633225302716
2.2009999999998686,0.24706357339771232,-0.13871269432885308
2.4009999999998466,0.25542293624596135,-0.19263581560483953
2.6009999999998246,0.24990774980190197,-0.252848321106756
2.8009999999998025,0.23624881309528792,-0.3056621192352041
3.0009999999997805,0.22579115401048522,-0.3624013123739182
3.2009999999997585,0.21157998864072777,-0.4122848099143679
3.4009999999997365,0.1854944381940503,-0.4616731762702006
3.6009999999997144,0.1510777057340417,-0.5017246715436653
3.8009999999996924,0.11378168038268476,-0.5139051845219672
4.000999999999671,0.06906072653302754,-0.5065506658277646
4.200999999999738,0.025483420903574604,-0.4750833790389943
4.400999999999804,-0.004135378252103914,-0.4199000425588445
4.600999999999871,-0.011716792962293719,-0.36530760178596855
4.800999999999938,-0.01020236773404834,-0.30611951645390223
5.000000000000004,0.005957344608056908,-0.2344570884566651
5.200000000000071,0.02328828776825973,-0.16455184494252448
5.400000000000138,0.048966218910606,-0.09332713181087499
5.600000000000205,0.08115856210577774,-0.03097069537007056
5.800000000000272,0.12320436743900542,0.0056161635707864975
6.000000000000338,0.16918033091600643,0.04048624801584011
6.200000000000405,0.2336906904979978,0.050831129866517916
6.400000000000472,0.2930220215909422,0.0238333845640391
6.600000000000539,0.33679008797068705,-0.014464899665267926
6.800000000000606,0.3761307146986738,-0.05878804120075287
7.000000000000672,0.4006029935855172,-0.10732276172091865
7.200000000000739,0.4098353045035788,-0.15962359644270116
7.400000000000806,0.3871210223667854,-0.2132020083672492
7.600000000000873,0.3449077324400277,-0.2637344645356285
7.8000000000009395,0.2803671941559372,-0.291396139355083
8.000000000001005,0.20844546336275513,-0.31015964683227343
8.200000000000895,0.1448005184242152,-0.32408317175260554
8.400000000000784,0.08777274186921487,-0.315721133524359
8.600000000000673,0.041552696561356496,-0.2934943401274286
8.800000000000562,0.014206232090425942,-0.2662617346178674
9.000000000000451,0.022085458828026556,-0.23209893741960708
9.20000000000034,0.05790853186393085,-0.21009455251908377
9.40000000000023,0.09813212550872591,-0.21700187466150378
9.600000000000119,0.14225595137881894,-0.25365800453607606
9.800000000000008,0.17569582471778808,-0.2991514823056696
10.000999999999896,0.19328028454315166,-0.35081684773324545
10.200999999999786,0.20091668561745624,-0.4096222460741209
10.400999999999675,0.18798706345430624,-0.47105990561742855
10.600999999999564,0.1341277995319263,-0.5208421147592621
10.800999999999453,0.052094296113674436,-0.545973953898374
11.000999999999342,-0.021043391823174565,-0.5596864932455535
11.200999999999231,-0.08566161029389585,-0.5531011739485859
11.40099999999912,-0.13638298180222186,-0.5255515135314202
11.60099999999901,-0.15577995354786614,-0.48221864197302866
11.800999999998899,-0.1397140670177531,-0.4352036449641322
12.000999999998788,-0.10786534239208581,-0.39105456637267655
12.200999999998677,-0.06829195196806713,-0.35454498774960763
12.400999999998566,-0.027692860609742836,-0.3257655432087565
12.600999999998455,0.016912033169407144,-0.29967211327840854
12.800999999998345,0.06405647866676925,-0.2743378313115283
13.000999999998234,0.13823621360522817,-0.2584019817490554
13.200999999998123,0.2162411001235456,-0.24954485560810744
13.400999999998012,0.30072491940536955,-0.2500974662189388
13.600999999997901,0.3778248073127415,-0.2561156236717632
13.80099999999779,0.45609263590490273,-0.2629721399486961
14.00099999999768,0.5339354498064764,-0.30053090132235233
14.200999999997569,0.5965912548411457,-0.3522845542574266
14.400999999997458,0.6459135935116094,-0.4093649503363739
14.600999999997347,0.6906987866758131,-0.46207653042268576
14.800999999997236,0.7326445403738926,-0.509415366109869
15.000999999997125,0.7598264915002171,-0.5631932948775277
15.200999999997014,0.7559969591831935,-0.6297564261691843
15.400999999996904,0.7202184099298192,-0.6945215975564959
15.600999999996793,0.6735340572963497,-0.7541677791880026
15.800999999996682,0.6403672709125456,-0.7958827736316263
16.000999999996573,0.6042630054961592,-0.7880394299301664
16.200999999996817,0.5786674297481308,-0.7388484192558495
16.40099999999706,0.5534684016384932,-0.676245982542612
16.600999999997306,0.5366198157799631,-0.607438206676121
16.80099999999755,0.5377751092964347,-0.5305950474593624
17.000999999997795,0.5662546521167973,-0.45471759003302015
17.20099999999804,0.6069535646838554,-0.3940998542978503
17.400999999998284,0.6623131293019197,-0.36050384358776255
17.60099999999853,0.7270787309659842,-0.3580665693096002
17.800999999998773,0.7917509677715742,-0.3628339597975849
18.000999999999017,0.8498748847114171,-0.3941426428742639
18.20099999999926,0.892630270134717,-0.4444520327827522
18.400999999999506,0.9172025419796258,-0.49520569856290303
18.60099999999975,0.9104432005415775,-0.54464915802798
18.799999999999994,0.8753119502898173,-0.5777650931385545
19.000000000000238,0.8230860548478485,-0.5819799216274592
19.200000000000482,0.7605679323020992,-0.5583385854642328
19.400000000000727,0.7060478791827193,-0.5077571153297054
19.60000000000097,0.6749349714903561,-0.43626007524958643
19.800000000001216,0.6560566299806361,-0.37334786915369844
20.00000000000146,0.6631166279455362,-0.30801462944379593
