Time (s),X (m),Y (m)
0.001,0.0010100015126501532,-0.0006628221997479689
0.20000000000000015,-0.0006248907842564889,0.0018109131177754892
0.4000000000000003,0.0030210827798954412,0.010365253603219037
0.6000000000000004,0.010542733878170733,0.014924662648143834
0.8000000000000006,0.03262852289835269,0.010286267019739339
1.0000000000000007,0.0676537536325232,-0.004618508655676432
1.2009999999999785,0.10017821946010466,-0.00860279486003326
1.4009999999999565,0.13828128213188393,-0.018281541240020252
1.6009999999999345,0.17488291307209983,-0.03616195709326963
1.8009999999999124,0.21448146397379708,-0.058728617238363555
2.0009999999998906,0.25002834082300573,-0.08613077479904803
2.2009999999998686,0.2762802746205645,-0.11812567562336079
2.4009999999998466,0.30311543934766944,-0.14006885445684597
2.6009999999998246,0.32701274486267473,-0.16685506913096929
2.8009999999998025,0.34407743181591327,-0.20159478132693137
3.0009999999997805,0.34029498583470125,-0.23730877370694436
3.2009999999997585,0.3227385022447139,-0.2671686767213628
3.4009999999997365,0.29354068585730797,-0.28477628743183103
3.6009999999997144,0.2544321195633869,-0.3003170929105709
3.8009999999996924,0.2200853136271269,-0.31411958208647744
4.000999999999671,0.1844559920310619,-0.3271654396477861
4.200999999999738,0.13151109653621593,-0.323585426863547
4.400999999999804,0.08053294741330735,-0.31599144277258284
4.600999999999871,0.03195797678404626,-0.2997081141616271
4.800999999999938,-0.020607368178870555,-0.273766375892644
5.000000000000004,-0.06547157159003152,-0.24891794078737386
5.200000000000071,-0.08474927605451489,-0.2045954166220363
5.400000000000138,-0.09078158251824589,-0.15405965036755803
5.600000000000205,-0.07907132230925083,-0.09740666804943093
5.800000000000272,-0.055678904430464325,-0.04688137839948009
6.000000000000338,-0.03591842854764438,0.005100196873963759
6.200000000000405,-0.003006482236682597,0.04181231578090534
6.400000000000472,0.04454443597989499,0.06444123788770717
6.600000000000539,0.10809882294130792,0.07637098580189201
6.800000000000606,0.17133236602825241,0.08280987527872209
7.000000000000672,0.2294574873358667,0.0737573984897223
7.200000000000739,0.2857776776119247,0.047367910920096595
7.400000000000806,0.3322716928584059,0.003080225899429645
7.600000000000873,0.33709172464995246,-0.0558811649703621
7.8000000000009395,0.32752294793609904,-0.12047603167898595
8.000000000001005,0.2976787623517302,-0.18247515863039576
8.200000000000895,0.2668681303720772,-0.2356816704103381
8.400000000000784,0.23499292246463158,-0.27595773098740256
8.600000000000673,0.19756934917212274,-0.3016833843137479
8.800000000000562,0.15093529651056503,-0.31911626673360166
9.000000000000451,0.08557470166860975,-0.3244497884687696
9.20000000000034,0.02011778994122889,-0.3293438901011623
9.40000000000023,-0.047713872960399556,-0.32208209675738075
9.600000000000119,-0.11122643608307749,-0.28941193238119034
9.800000000000008,-0.16263561747821514,-0.2533509588088549
10.000999999999896,-0.19416440881483876,-0.21393293640782987
10.200999999999786,-0.20376526936609293,-0.16782370561075424
10.400999999999675,-0.20864061834461517,-0.1162134911818153
10.600999999999564,-0.18613245405535822,-0.06641226135935129
10.800999999999453,-0.13769284074890292,-0.024568463812292992
11.000999999999342,-0.09431997857892305,0.007733645151004863
11.200999999999231,-0.051657191654218254,0.03496433601562113
11.40099999999912,0.001569365097680642,0.045538754191181606
11.60099999999901,0.06704435563255748,0.04033653687259708
11.800999999998899,0.13792928791388445,0.022919152871318203
12.000999999998788,0.2063243087180318,-0.01664074981025524
12.200999999998677,0.263077930307779,-0.07141295485846669
12.400999999998566,0.2926332514828389,-0.129837155563961
12.600999999998455,0.28715507400035234,-0.19247607726016933
12.800999999998345,0.2772931058502362,-0.2583963259889225
13.000999999998234,0.25049033184503866,-0.3288882096923325
13.200999999998123,0.21514572827264472,-0.3945586583302915
13.400999999998012,0.17961751724727626,-0.44157790070619624
13.600999999997901,0.12848065748657114,-0.4646596008594166
13.80099999999779,0.07025254951619694,-0.4703660520170484
14.00099999999768,0.013439711327062795,-0.44926932051195184
14.200999999997569,-0.03183910856238963,-0.42300058301449234
14.400999999997458,-0.07484084314407698,-0.38081584958309045
14.600999999997347,-0.10802874956499388,-0.3356454327279213
14.800999999997236,-0.1175795549781199,-0.27964775867830927
15.000999999997125,-0.10415430713846796,-0.22141398675068752
15.200999999997014,-0.05343683685380639,-0.17016188070278693
15.400999999996904,0.0082911027648697,-0.14310501813081658
15.600999999996793,0.0695110634549909,-0.14812542971429052
15.800999999996682,0.12542580324700575,-0.1693729391348404
16.000999999996573,0.164548898303442,-0.21212317885207163
16.200999999996817,0.18555491361391135,-0.2600720700229185
16.40099999999706,0.19943952323139133,-0.3148470721480233
16.600999999997306,0.2027450145723815,-0.3728707936679389
16.80099999999755,0.2027295518881453,-0.42809527456232543
17.000999999997795,0.17774031578308747,-0.4795241251027794
17.20099999999804,0.14263178973750215,-0.5203658199993199
17.400999999998284,0.09983021002701711,-0.5438359079392433
17.60099999999853,0.042183143822117596,-0.5521918984132964
17.800999999998773,-0.026978522400928795,-0.540568028220772
18.000999999999017,-0.09500584329909176,-0.523486577367794
18.20099999999926,-0.14931954068020828,-0.4888625279390009
18.400999999999506,-0.18469330086308527,-0.4497730459636696
18.60099999999975,-0.19821411231820177,-0.4007975662454753
18.799999999999994,-0.1917776202791345,-0.34277621982084105
19.000000000000238,-0.18152180717002547,-0.2820401414593856
19.200000000000482,-0.17472108607967687,-0.21739895939480053
19.400000000000727,-0.16398344524752512,-0.14816754839627475
19.60000000000097,-0.14393255357376503,-0.08148292847170638
19.800000000001216,-0.09702855036174206,-0.029575824143469223
20.00000000000146,-0.030633416708267046,-0.002388989186068137
