Time (s),X (m),Y (m)
0.001,0.0007356649194092869,0.0008930179339548111
0.20000000000000015,0.005071957969918161,0.004639276466060003
0.4000000000000003,0.007048955043800407,0.004761927298186555
0.6000000000000004,0.009735392906701246,0.004486381302911462
0.8000000000000006,0.013091327774693523,0.0038047158523194027
1.0000000000000007,0.019466745781465972,0.005882868293034915
1.2009999999999785,0.0253581350399764,0.0030945884720941616
1.4009999999999565,0.0308632267758355,0.005715849415073687
1.6009999999999345,0.03652553957683065,0.00959812031067632
1.8009999999999124,0.04134013593061307,0.012221709950776437
2.0009999999998906,0.046242095016794466,0.00883931741782771
2.2009999999998686,0.05081966337636445,0.015591127479163233
2.4009999999998466,0.055899252371772165,0.018856665183520017
2.6009999999998246,0.06153073801547828,0.020053789011843487
2.8009999999998025,0.06588255750028824,0.024609268719409893
3.0009999999997805,0.06992766754900838,0.03213625704959778
3.2009999999997585,0.07293734612034941,0.03789293328433995
3.4009999999997365,0.07615227567654057,0.04421698567144325
3.6009999999997144,0.07864861847500637,0.0489163939539847
3.8009999999996924,0.0815921414508186,0.051292679658586825
4.000999999999671,0.084922375720044,0.053108055391805534
4.200999999999738,0.08674119451334726,0.057438425194787424
4.400999999999804,0.08936059721419859,0.06176389839236218
4.600999999999871,0.09133113905582743,0.06638629865050068
4.800999999999938,0.09380975221499738,0.06870135257300876
5.000000000000004,0.09436815223749881,0.07469868195776293
5.200000000000071,0.0964488323519141,0.07725969565998343
5.400000000000138,0.09861280235148917,0.08009647835452356
5.600000000000205,0.10047750615461398,0.08230328338188381
5.800000000000272,0.10109796979516343,0.08607317846880785
6.000000000000338,0.10216906641127058,0.09018473967083201
6.200000000000405,0.10438487188645824,0.09609813025790935
6.400000000000472,0.1041975906215882,0.10094473808754764
6.600000000000539,0.1028656990592254,0.1091193071276234
6.800000000000606,0.10385683751075679,0.11246733126555422
7.000000000000672,0.10564875894971046,0.11645825084806599
7.200000000000739,0.10687143365624278,0.12094729088705458
7.400000000000806,0.107074924524193,0.12589811914306873
7.600000000000873,0.10524943546365532,0.13295324418634316
7.8000000000009395,0.10300816707512411,0.140846745209144
8.000000000001005,0.0992979195585433,0.14857283589640452
8.200000000000895,0.0983300038182031,0.15522458888485277
8.400000000000784,0.09528874365468117,0.1622761257600343
8.600000000000673,0.09804281986268717,0.16725234632645525
8.800000000000562,0.09502644871860783,0.17426652694241537
9.000000000000451,0.09417875823893299,0.18037189282142904
9.20000000000034,0.08970344850943941,0.18695501104388487
9.40000000000023,0.09224068250687026,0.19272114263174356
9.600000000000119,0.0899789029110934,0.1990327492155888
9.800000000000008,0.08781641013134141,0.20640519141689323
10.000999999999896,0.08400893069689395,0.21335045055664142
10.200999999999786,0.08238712418385276,0.21952459671920813
10.400999999999675,0.07755905629448889,0.2251087218903298
10.600999999999564,0.07466804521097321,0.23115647432478073
10.800999999999453,0.07139683954664588,0.23610473024964462
11.000999999999342,0.06506492047838676,0.24002128790414443
11.200999999999231,0.06194561898537326,0.24360309770308614
11.40099999999912,0.06000006590488941,0.247060696297647
11.60099999999901,0.05644177162104709,0.2504400608880988
11.800999999998899,0.0538631025272627,0.2533239826848267
12.000999999998788,0.04985774979556259,0.25638129501334433
12.200999999998677,0.045711383261610464,0.25877846936100785
12.400999999998566,0.04196968885095262,0.260354566898544
12.600999999998455,0.03792017813954214,0.261026590745286
12.800999999998345,0.03427837423809956,0.2638444298524946
13.000999999998234,0.03083714075308828,0.26622186482760496
13.200999999998123,0.02747624068505505,0.26906464369414296
13.400999999998012,0.021125679154458527,0.2701398992937813
13.600999999997901,0.018536382427415576,0.2722705512120069
13.80099999999779,0.01240628339689122,0.27228894439865586
14.00099999999768,0.0067794370757677915,0.2724988370499623
14.200999999997569,0.001946064320813222,0.2737668470858951
14.400999999997458,-0.0018964033943392581,0.2754712077468527
14.600999999997347,-0.005081422398978263,0.27840250392972155
14.800999999997236,-0.00808745539963887,0.28071013564296887
15.000999999997125,-0.013245885071389355,0.2804845677062596
15.200999999997014,-0.018366477511109904,0.2800867960665983
15.400999999996904,-0.025809957739277377,0.2773262194790943
15.600999999996793,-0.03354847328661984,0.275435339284529
15.800999999996682,-0.03899888707256086,0.2768608927120002
16.000999999996573,-0.04387871631453016,0.27974457411927994
16.200999999996817,-0.049265703167285395,0.27981403178355724
16.40099999999706,-0.05532747018303008,0.2773756276263701
16.600999999997306,-0.061979909294921746,0.27346474407315374
16.80099999999755,-0.06880345939688186,0.27046036032793047
17.000999999997795,-0.07443591509702045,0.2713583446064022
17.20099999999804,-0.08185891621357784,0.26857516211955185
17.400999999998284,-0.08839260617830028,0.26396841355374545
17.60099999999853,-0.09577383327290429,0.2624475884657741
17.800999999998773,-0.10260732065330876,0.259067674373556
18.000999999999017,-0.10890989011942181,0.25510687349081423
18.20099999999926,-0.1146278607597224,0.2524431255883275
18.400999999999506,-0.11977050562876823,0.24807399823931944
18.60099999999975,-0.12468159853937068,0.24628833573632172
18.799999999999994,-0.12883418372644456,0.24222283425540533
19.000000000000238,-0.13316025994564054,0.23899374253437727
19.200000000000482,-0.13575048621722025,0.23523137646222164
19.400000000000727,-0.1381652501461099,0.2315601520699706
19.60000000000097,-0.14162432438697203,0.22842205841873955
19.800000000001216,-0.14263440110666303,0.22331439665373284
20.00000000000146,-0.14566331096174182,0.22106598756177873
