Time (s),X (m),Y (m)
0.001,-0.0004427414248986554,-0.0007899207378008392
0.20000000000000015,0.0018620630879458754,0.0009820902489098616
0.4000000000000003,0.0077099165055803985,0.004373172975105168
0.6000000000000004,0.014300205903689401,0.003658576811727922
0.8000000000000006,0.020054035268606215,0.0005178557781605014
1.0000000000000007,0.030014967425689494,-0.0010968497546823453
1.2009999999999785,0.03868512018932596,-0.001959630684171704
1.4009999999999565,0.04741124857789327,-0.004657573994163028
1.6009999999999345,0.05849271204747687,-0.00701388159610285
1.8009999999999124,0.06954597023397657,-0.00789829071499686
2.0009999999998906,0.08020315066989632,-0.009155737116764736
2.2009999999998686,0.09351486620220863,-0.005319768780496617
2.4009999999998466,0.10669124339258967,-0.003957552903297863
2.6009999999998246,0.12221741633156273,0.0027702368785699322
2.8009999999998025,0.13939847005482178,0.01083554405609573
3.0009999999997805,0.15242236188828534,0.023864541859431616
3.2009999999997585,0.1663991621126114,0.03620123569783132
3.4009999999997365,0.17882640677306347,0.044059850742611144
3.6009999999997144,0.1965941551261614,0.05880602620017386
3.8009999999996924,0.209965352919023,0.06147050181583321
4.000999999999671,0.2217943096123916,0.07157557434695425
4.200999999999738,0.23525518514275173,0.07865218677516526
4.400999999999804,0.2472978483897295,0.08617339661542366
4.600999999999871,0.2618829126393023,0.09655584639831175
4.800999999999938,0.2745948476372852,0.1038224004805645
5.000000000000004,0.28638648996724425,0.11411926046674002
5.200000000000071,0.29751652813126866,0.1329902700648239
5.400000000000138,0.3123377615332442,0.14443649770168662
5.600000000000205,0.3303652837200493,0.15477103487091023
5.800000000000272,0.3454740835187566,0.16367636167195124
6.000000000000338,0.3563326644593138,0.17529719679097922
6.200000000000405,0.3780371976850384,0.19076487471759315
6.400000000000472,0.39225400707210845,0.1972983180980277
6.600000000000539,0.3996793694886604,0.207933704786519
6.800000000000606,0.410070249728153,0.21526227145200383
7.000000000000672,0.4182330136172252,0.2324216095723001
7.200000000000739,0.4294769956201702,0.24706333396902702
7.400000000000806,0.44193284383280146,0.2623715357836333
7.600000000000873,0.4533461745246633,0.2722408836605986
7.8000000000009395,0.46414328982911673,0.2786892398431634
8.000000000001005,0.4717632127243167,0.2879499774007797
8.200000000000895,0.4818737863185246,0.30324560524952177
8.400000000000784,0.4991831856343285,0.3102059495511905
8.600000000000673,0.5140395882343921,0.3249394404473157
8.800000000000562,0.5223198790858591,0.3404132431977637
9.000000000000451,0.5249710610361199,0.35478217422549313
9.20000000000034,0.5320744385708344,0.36248761085958814
9.40000000000023,0.5403264881341546,0.37695484044019717
9.600000000000119,0.5476432237698051,0.3879744657603244
9.800000000000008,0.5518672722186849,0.4015881241878835
10.000999999999896,0.5526310676478696,0.42082920512980165
10.200999999999786,0.5579121228118747,0.4330891989378053
10.400999999999675,0.5522612214113413,0.44439920839961683
10.600999999999564,0.552780037375242,0.46532335520517054
10.800999999999453,0.5553656971959616,0.4841637473626881
11.000999999999342,0.5590288547995519,0.4987380878185762
11.200999999999231,0.5615022774449009,0.5142298234141952
11.40099999999912,0.5641209318510466,0.5280127119515646
11.60099999999901,0.565212833153524,0.5425024384147147
11.800999999998899,0.5610474339842584,0.5668815925621972
12.000999999998788,0.5612575164736309,0.5798229465355507
12.200999999998677,0.5688077447237927,0.5893582200632577
12.400999999998566,0.5687247455729932,0.607941491716445
12.600999999998455,0.5670594452387889,0.6251052586405319
12.800999999998345,0.5684677446157359,0.6427250756836124
13.000999999998234,0.5674963509585333,0.6608062978280317
13.200999999998123,0.5605022843210953,0.683454389048587
13.400999999998012,0.554485222707048,0.7009184302489458
13.600999999997901,0.5571603323462793,0.7175446796007919
13.80099999999779,0.552521308460621,0.7339327333743756
14.00099999999768,0.5519052101656372,0.7524936380452327
14.200999999997569,0.5473156234512947,0.7694235366551931
14.400999999997458,0.5374102498939501,0.7872203420932667
14.600999999997347,0.5271894465140315,0.80750145523823
14.800999999997236,0.5228990373959334,0.8298772359541534
15.000999999997125,0.5149202158952478,0.850720253997574
15.200999999997014,0.5030417205479687,0.8668544061224063
15.400999999996904,0.48870065743165336,0.8853733190076908
15.600999999996793,0.48976626715412347,0.9036820191955452
15.800999999996682,0.4768309349406187,0.9229549215949719
16.000999999996573,0.4621143212277995,0.940825439791286
16.200999999996817,0.44976585195780705,0.9599982015705937
16.40099999999706,0.43911921313436636,0.9769368083500082
16.600999999997306,0.43025818609855576,0.9899932303769939
16.80099999999755,0.4164026890163028,1.0052242620102214
17.000999999997795,0.4102098650117338,1.0184979751952121
17.20099999999804,0.3980979634825457,1.0294015524257734
17.400999999998284,0.38469217014793816,1.0388789709073905
17.60099999999853,0.3718342717387854,1.0491626856387934
17.800999999998773,0.3615984607779538,1.0650237434643368
18.000999999999017,0.3527052329402572,1.0744832365417565
18.20099999999926,0.3422215979865974,1.0868635736747798
18.400999999999506,0.330511974066288,1.1086917036027506
18.60099999999975,0.3192023161143095,1.122776667637759
18.799999999999994,0.2999222907779544,1.1333238716271217
19.000000000000238,0.2770909127816277,1.140489117844958
19.200000000000482,0.2629326158093673,1.146838798436508
19.400000000000727,0.25628204348192807,1.1572921411027821
19.60000000000097,0.23947710867872204,1.168765388174407
19.800000000001216,0.23023527245888847,1.1805109376183058
20.00000000000146,0.2135116939588726,1.1915338054050688
