Time (s),X (m),Y (m)
0.001,0.0005727611008870025,-0.0009689812320744441
0.20000000000000015,0.0003001535531073768,0.007367127828712957
0.4000000000000003,0.004877419520353643,0.008703542918463134
0.6000000000000004,0.02077651327119218,-0.008542184502867088
0.8000000000000006,0.04319295340629298,-0.04407012849953268
1.0000000000000007,0.07622527201320137,-0.09081747875556644
1.2009999999999785,0.1107038056188117,-0.14893875849158986
1.4009999999999565,0.13224704104542406,-0.21683320050187493
1.6009999999999345,0.1273776435023014,-0.280714828409098
1.8009999999999124,0.10395669714960547,-0.34374926231055347
2.0009999999998906,0.07168290511052691,-0.3973469029394149
2.2009999999998686,0.02839139983282796,-0.43076006708303405
2.4009999999998466,-0.027021148874648765,-0.4453052622449793
2.6009999999998246,-0.08869816314987262,-0.44515451800486044
2.8009999999998025,-0.11797046895981846,-0.4246837314796416
3.0009999999997805,-0.12538228125249354,-0.390250182788071
3.2009999999997585,-0.11576826545977052,-0.340215905677728
3.4009999999997365,-0.08592913281003203,-0.2845777002480029
3.6009999999997144,-0.0399063522587917,-0.2332403788304503
3.8009999999996924,0.016786653123469254,-0.18455110320081078
4.000999999999671,0.07874227605167446,-0.13801975810456332
4.200999999999738,0.13957767383458558,-0.1170672115808159
4.400999999999804,0.20234669480510134,-0.13531570025909842
4.600999999999871,0.26204570814905287,-0.19095117103327705
4.800999999999938,0.32160169587408743,-0.25366138288525597
5.000000000000004,0.3804246159822372,-0.3142191512214991
5.200000000000071,0.43920364287446967,-0.3837801112866489
5.400000000000138,0.49307443726543293,-0.453245079593764
5.600000000000205,0.5343901481944797,-0.5227700691801263
5.800000000000272,0.5608161217036456,-0.5984846606070823
6.000000000000338,0.5648449480662133,-0.6840025295857856
6.200000000000405,0.5603181759601508,-0.7679809224489678
6.400000000000472,0.532382883892579,-0.82754678915424
6.600000000000539,0.4898758855795359,-0.8467971242990148
6.800000000000606,0.4376739225967454,-0.8249390058691314
7.000000000000672,0.3844370918243673,-0.7696055617928201
7.200000000000739,0.3324777593697399,-0.6945866146337852
7.400000000000806,0.288728151646044,-0.6192178253846677
7.600000000000873,0.26996956124095906,-0.5436744320779295
7.8000000000009395,0.3010259668220929,-0.4683979204298049
8.000000000001005,0.3457620464346436,-0.3893602952832788
8.200000000000895,0.38931744461893186,-0.31615771445640484
8.400000000000784,0.45057973742678953,-0.2661166017571187
8.600000000000673,0.5145006421601919,-0.21229537682198157
8.800000000000562,0.5825866380803033,-0.1600054446719778
9.000000000000451,0.6511080828697287,-0.10360597367731693
9.20000000000034,0.7252501673029922,-0.05020537816190436
9.40000000000023,0.7915964494573455,-0.003922632841549356
9.600000000000119,0.8601101540905943,0.020207648493675935
9.800000000000008,0.9435479444748103,0.014777973811268583
10.000999999999896,1.030248329338378,-0.014574900140339455
10.200999999999786,1.1060408534557098,-0.05853694062548683
10.400999999999675,1.1213328040686876,-0.1139659377415936
10.600999999999564,1.0940119178284997,-0.17626451168440582
10.800999999999453,1.046778049463173,-0.24951319691696205
11.000999999999342,0.9942633296523039,-0.2749441424466583
11.200999999999231,0.9392143882756454,-0.2541942158050793
11.40099999999912,0.890480329556051,-0.20360691027778696
11.60099999999901,0.8528026934080889,-0.14384286950740757
11.800999999998899,0.8265601338426106,-0.08101339318962861
12.000999999998788,0.808966270932467,-0.014286793983248012
12.200999999998677,0.8264846731601941,0.05845309485643309
12.400999999998566,0.872682019569188,0.1232631530424504
12.600999999998455,0.9381319957282065,0.16239244832925387
12.800999999998345,1.01804315613425,0.17123554223156878
13.000999999998234,1.1072853012787527,0.14252383325351137
13.200999999998123,1.1998659163904424,0.10363383499547318
13.400999999998012,1.2842462909651227,0.05591422237145281
13.600999999997901,1.3448534264077134,-0.0078676936834774
13.80099999999779,1.3645471337564983,-0.0815344348004626
14.00099999999768,1.3560722931120683,-0.15963122074998767
14.200999999997569,1.3076141796334892,-0.23205354246338397
14.400999999997458,1.2547103289574657,-0.29346866812657274
14.600999999997347,1.194147990455137,-0.329410713138403
14.800999999997236,1.1289090767971375,-0.35533465486511884
15.000999999997125,1.0683738163098448,-0.33209639221282833
15.200999999997014,1.0051237422198944,-0.29346563404797976
15.400999999996904,0.9649119523127725,-0.23636327877092905
15.600999999996793,0.9487963162688786,-0.17559081697241835
15.800999999996682,0.940449981062585,-0.1026450445889675
16.000999999996573,0.9319577334028774,-0.02843316482211128
16.200999999996817,0.9289682348886729,0.04689239325007523
16.40099999999706,0.9513720608828288,0.12867125034748583
16.600999999997306,0.997948481569614,0.2065508676646255
16.80099999999755,1.0634518787468505,0.2722866379525994
17.000999999997795,1.1390956467694053,0.33563326578786495
17.20099999999804,1.222788957456863,0.3856954961587614
17.400999999998284,1.30475599508163,0.40191069599523843
17.60099999999853,1.3843207599197365,0.3967223366742967
17.800999999998773,1.4623402295969834,0.3753566771508172
18.000999999999017,1.542400616434688,0.3434664396554664
18.20099999999926,1.6153080259453256,0.2997146288514322
18.400999999999506,1.6607751500989316,0.2309574183128876
18.60099999999975,1.698759921668652,0.15345503579981748
18.799999999999994,1.697894278126093,0.07140746625258755
19.000000000000238,1.6458758994163005,-0.0013061630214608454
19.200000000000482,1.5898387156678868,-0.07315323873827428
19.400000000000727,1.5162965563817414,-0.13623144983821564
19.60000000000097,1.4481715956234102,-0.19303941261741436
19.800000000001216,1.3723710814898165,-0.23296610121194755
20.00000000000146,1.2954772132522188,-0.24629752486670428
