Time (s),X (m),Y (m)
0.001,-0.0002955033697106609,0.0008930179339548111
0.20000000000000015,0.0018999173885618744,-0.0010809121058450821
0.4000000000000003,0.006502437623469293,-0.004577786499626465
0.6000000000000004,0.01103441571162632,0.0035295143793062675
0.8000000000000006,0.021282650345769007,0.00161848935008693
1.0000000000000007,0.028945880096622526,-0.00315162173186637
1.2009999999999785,0.03846866550046614,0.004288625911736277
1.4009999999999565,0.04995964969058393,0.00806801335953592
1.6009999999999345,0.05870376064551835,0.012573708774019955
1.8009999999999124,0.06568649393351725,0.009698070690163901
2.0009999999998906,0.07757160416109889,0.004619519356372255
2.2009999999998686,0.09446106274007746,1.3609254337184275e-05
2.4009999999998466,0.11318955722914294,0.005741286643497448
2.6009999999998246,0.12556183350588146,0.0029462186586543294
2.8009999999998025,0.14173376717202563,0.004074811050384558
3.0009999999997805,0.1514055205813236,-0.011439442041254388
3.2009999999997585,0.16417785894248885,-0.02027111773658149
3.4009999999997365,0.1777994157696597,-0.028884622300030412
3.6009999999997144,0.18490121414014551,-0.042139247677345816
3.8009999999996924,0.19740345474508736,-0.05517323688300599
4.000999999999671,0.21257034619529064,-0.07146287956623718
4.200999999999738,0.2228325450632769,-0.07854338245398725
4.400999999999804,0.22648791154769146,-0.09000668724672256
4.600999999999871,0.2323226616483335,-0.0934387286954485
4.800999999999938,0.23950357109176484,-0.10350688508108766
5.000000000000004,0.253325698811577,-0.11185889924983176
5.200000000000071,0.2618961509660755,-0.12505182043954785
5.400000000000138,0.2688989966031447,-0.12995991868757586
5.600000000000205,0.2754082123427669,-0.13438945270450448
5.800000000000272,0.2820693180557515,-0.14404108055294537
6.000000000000338,0.2975598981848232,-0.15107051449475414
6.200000000000405,0.31472557184951633,-0.15385766371374907
6.400000000000472,0.3254521603726171,-0.1645204418713973
6.600000000000539,0.33559687679474554,-0.17709669446323337
6.800000000000606,0.34979864252514264,-0.192786653750136
7.000000000000672,0.3617417502716398,-0.20715557846772953
7.200000000000739,0.3716659165039235,-0.21467329632853432
7.400000000000806,0.38119996053103855,-0.22312460092443148
7.600000000000873,0.3929557320763983,-0.2268750904551226
7.8000000000009395,0.4017111787133166,-0.24006146193579772
8.000000000001005,0.4124409804684011,-0.25503700558131853
8.200000000000895,0.42456135966000647,-0.2663122711242607
8.400000000000784,0.43118151548258016,-0.28772238985312465
8.600000000000673,0.44000369951468665,-0.30191898087069124
8.800000000000562,0.4539989844611156,-0.3002324441405135
9.000000000000451,0.4670127349402675,-0.3133377656121812
9.20000000000034,0.4776788002944783,-0.3179265214278074
9.40000000000023,0.4882513053739995,-0.3206990857513076
9.600000000000119,0.49818926690049675,-0.32376813076737826
9.800000000000008,0.5133562445831715,-0.32807715180737085
10.000999999999896,0.5264895437210317,-0.3425537375353013
10.200999999999786,0.536462978448446,-0.35223815946919323
10.400999999999675,0.5489703919778558,-0.35878963330710073
10.600999999999564,0.5547938366411709,-0.38115277158407074
10.800999999999453,0.5640804988516104,-0.3955141831916198
11.000999999999342,0.573597383102299,-0.4157416999730849
11.200999999999231,0.5808179588320518,-0.4302829563325672
11.40099999999912,0.584771058532067,-0.44735354929615684
11.60099999999901,0.594446035510987,-0.4529688086804303
11.800999999998899,0.602358883806825,-0.46921954002008237
12.000999999998788,0.6152657555274764,-0.48018663230451863
12.200999999998677,0.6284946891926861,-0.4923583437813561
12.400999999998566,0.633294129995305,-0.5027784981774627
12.600999999998455,0.6417782271414708,-0.5163110273862951
12.800999999998345,0.6507259349625493,-0.5311345839142521
13.000999999998234,0.6579069804112956,-0.5454023408693095
13.200999999998123,0.6654480340948928,-0.5595717501671905
13.400999999998012,0.6731399646857902,-0.5763353724586463
13.600999999997901,0.682280940073347,-0.5862501813069795
13.80099999999779,0.6933539266694461,-0.5894617601863135
14.00099999999768,0.7036312680351987,-0.5962180646722279
14.200999999997569,0.711953078225669,-0.6091191782336368
14.400999999997458,0.7219782737265789,-0.62008258470909
14.600999999997347,0.7305816660198284,-0.6309499165363732
14.800999999997236,0.7401247528545737,-0.6503488811008743
15.000999999997125,0.7485911143240301,-0.6649218036945185
15.200999999997014,0.7565356014502252,-0.6829110286218081
15.400999999996904,0.7685788872272854,-0.6971109746598088
15.600999999996793,0.7799856983955201,-0.7066653603882646
15.800999999996682,0.7930468988097158,-0.7168875051896728
16.000999999996573,0.8019162194153604,-0.7348557698594411
16.200999999996817,0.8074038150197216,-0.7486941617393048
16.40099999999706,0.8130529343974868,-0.7628629626192348
16.600999999997306,0.8212249053427776,-0.7800862648863104
16.80099999999755,0.8232867680684772,-0.7964010993230954
17.000999999997795,0.8346399889621225,-0.8061682134951802
17.20099999999804,0.8376871532923383,-0.8294390887296019
17.400999999998284,0.8429900506527029,-0.8447282818574053
17.60099999999853,0.848191692696928,-0.8550749223841924
17.800999999998773,0.8616169952001904,-0.8660917673877834
18.000999999999017,0.8770230850761578,-0.8742341637596783
18.20099999999926,0.8795617162131838,-0.8882378348246299
18.400999999999506,0.8928688373494054,-0.8898786704230535
18.60099999999975,0.8980758066220841,-0.9008827908575225
18.799999999999994,0.9063795810272939,-0.9113678045169182
19.000000000000238,0.9110437549572509,-0.9253263635041595
19.200000000000482,0.9231674642151387,-0.9350568333287134
19.400000000000727,0.9324899557409144,-0.9433563942232311
19.60000000000097,0.9436251470151054,-0.9534554927479763
19.800000000001216,0.9580531298748554,-0.9627821922737858
20.00000000000146,0.9738276703780615,-0.9745886289999163
