Time (s),X (m),Y (m)
0.001,-0.0008071636076123137,8.987223813608099e-05
0.20000000000000015,0.005289933995862879,-0.0008750334771581883
0.4000000000000003,0.015871472401931486,-0.0022351317157883474
0.6000000000000004,0.0306877004465679,-0.006499016774145248
0.8000000000000006,0.043933855892874095,-0.005049155692629466
1.0000000000000007,0.050259676735163385,-0.00564275319409529
1.2009999999999785,0.04925135235493548,-0.006937722944303331
1.4009999999999565,0.050650512864292806,-0.010053761386395327
1.6009999999999345,0.06009937333835901,-0.013969260557143618
1.8009999999999124,0.08411203073927348,-0.026997415840423596
2.0009999999998906,0.10552778371919953,-0.034932346863701766
2.2009999999998686,0.12758927934603895,-0.04125603030180889
2.4009999999998466,0.15271468877519342,-0.043369817669465564
2.6009999999998246,0.17829256635647983,-0.051442648182286534
2.8009999999998025,0.19646055029907533,-0.06433644251098034
3.0009999999997805,0.20391532717851074,-0.07687069682979204
3.2009999999997585,0.2045880653886185,-0.091521226197413
3.4009999999997365,0.20131264033612098,-0.11818931459573177
3.6009999999997144,0.19701428068663948,-0.14162788921854125
3.8009999999996924,0.1827101412859187,-0.17362470140366543
4.000999999999671,0.16526453097206542,-0.2024532228450166
4.200999999999738,0.1473757181667821,-0.23079500095271388
4.400999999999804,0.1340580538061894,-0.25544440031615256
4.600999999999871,0.12437859614282047,-0.27377114730472013
4.800999999999938,0.1097583761726663,-0.30611150251958513
5.000000000000004,0.09141431742686516,-0.3382471380130119
5.200000000000071,0.07721583358785475,-0.37386020590586994
5.400000000000138,0.0611486070215397,-0.41587848943396155
5.600000000000205,0.04503643853242996,-0.4649756504015376
5.800000000000272,0.0273992927364083,-0.5143530978640651
6.000000000000338,0.005894145147250946,-0.5583483473620698
6.200000000000405,-0.011963841487804296,-0.6050427451921578
6.400000000000472,-0.03137683703999152,-0.6472030348075595
6.600000000000539,-0.04950332486369385,-0.6860266754800605
6.800000000000606,-0.06522552020400608,-0.7144456084684303
7.000000000000672,-0.08606981409020027,-0.7243697544813315
7.200000000000739,-0.13307832974916944,-0.7200786324393865
7.400000000000806,-0.1658440243926814,-0.714694587331534
7.600000000000873,-0.19753372967110025,-0.7036351831723888
7.8000000000009395,-0.22426437263208854,-0.691154353638832
8.000000000001005,-0.25056812057034394,-0.6748256504254851
8.200000000000895,-0.2908497405659134,-0.6596089436968361
8.400000000000784,-0.32548873882620155,-0.6449015446940137
8.600000000000673,-0.3443077839381695,-0.6292991044119745
8.800000000000562,-0.3755535269582331,-0.6084303825308593
9.000000000000451,-0.40472704248605385,-0.5868278433466583
9.20000000000034,-0.4499929083008284,-0.5582029957411697
9.40000000000023,-0.4984192430605977,-0.529636341759647
9.600000000000119,-0.548073439295388,-0.5036953875911534
9.800000000000008,-0.6018022223547599,-0.4725145895015115
10.000999999999896,-0.6508396592921832,-0.45089325682090436
10.200999999999786,-0.6958006082802518,-0.4283439510575101
10.400999999999675,-0.7460284295185534,-0.38909387949906515
10.600999999999564,-0.7905693895896,-0.35031685372560856
10.800999999999453,-0.8284770009614335,-0.30572720945175796
11.000999999999342,-0.8473025654598534,-0.2600334124911121
11.200999999999231,-0.8519132596648937,-0.22602421115646978
11.40099999999912,-0.8456825309333168,-0.18650649520261686
11.60099999999901,-0.8257092249710095,-0.13917228812345606
11.800999999998899,-0.7893452911477766,-0.08710124834862147
12.000999999998788,-0.7516304888667438,-0.032166210695474
12.200999999998677,-0.7247698139693527,0.01759724909723663
12.400999999998566,-0.6808617885544888,0.07000889488001515
12.600999999998455,-0.6383701083195413,0.12372166683232452
12.800999999998345,-0.6040097893830246,0.1683382634840799
13.000999999998234,-0.5778060645124319,0.19240270502292348
13.200999999998123,-0.5505643607070876,0.19684879180400602
13.400999999998012,-0.5193509643660993,0.19027890440356562
13.600999999997901,-0.4761273380713024,0.1721376322436616
13.80099999999779,-0.4297567657412572,0.1531040274121884
14.00099999999768,-0.38317863789032963,0.13409813176069627
14.200999999997569,-0.33858524025931963,0.10870651557557147
14.400999999997458,-0.29596128551448814,0.09505597853426746
14.600999999997347,-0.25381442364208356,0.08039088141008789
14.800999999997236,-0.21350752731948075,0.06056543222771167
15.000999999997125,-0.16646226516533066,0.03406703539264364
15.200999999997014,-0.11126669303257303,0.003647247030573022
15.400999999996904,-0.055834322969641303,-0.03672529233486352
15.600999999996793,-0.0038017838232665894,-0.07366596481553667
15.800999999996682,0.03792014375870437,-0.09849944694909535
16.000999999996573,0.07375343393138305,-0.12445294578107872
16.200999999996817,0.10224788377601686,-0.15490165668891626
16.40099999999706,0.10958317561855324,-0.18892486004350342
16.600999999997306,0.10425748340786072,-0.22787488311643803
16.80099999999755,0.08722010644431924,-0.2732280382350145
17.000999999997795,0.06402653796260564,-0.3223097367685056
17.20099999999804,0.03587439872594007,-0.37821864296262026
17.400999999998284,0.007777115154718955,-0.4298139465643135
17.60099999999853,-0.024580895885254816,-0.4838326291541998
17.800999999998773,-0.06029452568964339,-0.5376623197604876
18.000999999999017,-0.08438666623060713,-0.5783076691611828
18.20099999999926,-0.11391002324229157,-0.6083029286053582
18.400999999999506,-0.14858983994975866,-0.6244465918957957
18.60099999999975,-0.17573379574325135,-0.6260663769642973
18.799999999999994,-0.2047429739759431,-0.6240541364714947
19.000000000000238,-0.24122046129600225,-0.6160398889168189
19.200000000000482,-0.28197176356208553,-0.5992898562335854
19.400000000000727,-0.3376106713742923,-0.5653203419449663
19.60000000000097,-0.38272267827547,-0.5244304703845332
19.800000000001216,-0.40421443587230516,-0.4838698465154526
20.00000000000146,-0.40562839117591637,-0.43645235779923464
