Time (s),X (m),Y (m)
0.001,-0.00013259955118837574,-0.0009689812320744441
0.20000000000000015,0.006218096255164201,0.004328258839925918
0.4000000000000003,0.016509104633892224,0.0050786057024111006
0.6000000000000004,0.03805697053071571,0.009383896643906065
0.8000000000000006,0.06282781518206498,0.016026970721365857
1.0000000000000007,0.08932190726765518,0.017295161429348904
1.2009999999999785,0.11172947304876311,0.01220234809491617
1.4009999999999565,0.13479192837686108,0.0004366787359563156
1.6009999999999345,0.1642073719690562,0.0033776618608121565
1.8009999999999124,0.18302865733873006,-0.014352234322451004
2.0009999999998906,0.20416092700998284,-0.034103178124403145
2.2009999999998686,0.23172311032381596,-0.04988053106384502
2.4009999999998466,0.25793339042758895,-0.06892233385469473
2.6009999999998246,0.2893681148576305,-0.0919195196220391
2.8009999999998025,0.32810748772907694,-0.10763760912451754
3.0009999999997805,0.37389287298062607,-0.11753033977343894
3.2009999999997585,0.41983868310619166,-0.124129073904314
3.4009999999997365,0.4651104360190232,-0.12575525159347054
3.6009999999997144,0.5045733399294934,-0.13329406333425675
3.8009999999996924,0.5421357930068145,-0.13856580220700515
4.000999999999671,0.5810304739628818,-0.14245770830054644
4.200999999999738,0.611430105412698,-0.14962399611242583
4.400999999999804,0.6469803355661408,-0.16057019324987548
4.600999999999871,0.6900430411625066,-0.17545166259914555
4.800999999999938,0.754217626115799,-0.1818589727054737
5.000000000000004,0.8078779365984908,-0.18510443939187543
5.200000000000071,0.8715324362472829,-0.20140531276625714
5.400000000000138,0.9281419050917258,-0.23449443419675392
5.600000000000205,0.9692815136343544,-0.27717304292926254
5.800000000000272,1.0127112221380214,-0.31573422171773313
6.000000000000338,1.0474307835627994,-0.36107573234940205
6.200000000000405,1.0716624462625186,-0.4142212047029551
6.400000000000472,1.0931229758012004,-0.47346429729058837
6.600000000000539,1.1105754685371223,-0.530122454956838
6.800000000000606,1.135927667595445,-0.5796568038454526
7.000000000000672,1.1536668760055842,-0.6187525706345158
7.200000000000739,1.1874604380521172,-0.6526108416981942
7.400000000000806,1.2171539642230185,-0.6933169340627254
7.600000000000873,1.240002079458401,-0.7383163853543607
7.8000000000009395,1.2483682766846476,-0.7846076582255146
8.000000000001005,1.2610107627984926,-0.8271187285878525
8.200000000000895,1.2785762500472466,-0.8695828257538344
8.400000000000784,1.3066524415018528,-0.9218228366283093
8.600000000000673,1.326857024854704,-0.9746735863524357
8.800000000000562,1.3484594465342934,-1.0247702604619613
9.000000000000451,1.3699022120956417,-1.0766693069431095
9.20000000000034,1.3881804134923834,-1.127708913698599
9.40000000000023,1.404407551549069,-1.174948177581081
9.600000000000119,1.418705251952392,-1.2225736023332532
9.800000000000008,1.4369253244435911,-1.270072276972667
10.000999999999896,1.447698822568011,-1.3144328392217548
10.200999999999786,1.4574507934154184,-1.3623943213328005
10.400999999999675,1.4673708729232182,-1.4186080518587814
10.600999999999564,1.4812948597052686,-1.4941702793718885
10.800999999999453,1.4913271769154732,-1.5720078323053563
11.000999999999342,1.4984253700344674,-1.649760337107778
11.200999999999231,1.5054310860740903,-1.726825242933308
11.40099999999912,1.514017500957579,-1.800261598004341
11.60099999999901,1.5239335511564531,-1.873590760957796
11.800999999998899,1.5294979470778876,-1.9430764397287141
12.000999999998788,1.5328379209180483,-2.003874452028642
12.200999999998677,1.5351740087040748,-2.058653687242732
12.400999999998566,1.5270257597489534,-2.098579978669416
12.600999999998455,1.508810420387706,-2.1323763418180914
12.800999999998345,1.4735121076403772,-2.1676657248121827
13.000999999998234,1.4313373503491706,-2.205687986529472
13.200999999998123,1.393317199117722,-2.223158138793609
13.400999999998012,1.352124182956049,-2.2527664764830857
13.600999999997901,1.3148424945057473,-2.2812030673908636
13.80099999999779,1.2782023206690543,-2.3076960504254105
14.00099999999768,1.2364641694507326,-2.3538951783780946
14.200999999997569,1.1922545308552885,-2.404415143088905
14.400999999997458,1.1487523003551539,-2.454767323312916
14.600999999997347,1.1133469594907106,-2.5030530995655487
14.800999999997236,1.080237164991248,-2.5345787438524585
15.000999999997125,1.0369724442088146,-2.5490505109278327
15.200999999997014,0.9873352180190959,-2.5640168514350052
15.400999999996904,0.9282193103208549,-2.585527336303331
15.600999999996793,0.8643427685178362,-2.61103387025021
15.800999999996682,0.802202154400994,-2.629935279467801
16.000999999996573,0.7481466188746392,-2.654435770289287
16.200999999996817,0.7005297139223015,-2.7081747401023675
16.40099999999706,0.6508514027548521,-2.765114797324512
16.600999999997306,0.6043275370612543,-2.8082090729631513
16.80099999999755,0.5729835444376348,-2.8602401152413828
17.000999999997795,0.5528923491258039,-2.926945554138263
17.20099999999804,0.5359854304249626,-2.977835931620024
17.400999999998284,0.513622702781099,-3.0141783250225074
17.60099999999853,0.4840033477762168,-3.056530713535973
17.800999999998773,0.45140780506351696,-3.086685971435849
18.000999999999017,0.4105503544246163,-3.1115107389360004
18.20099999999926,0.35997677769937036,-3.128704150980949
18.400999999999506,0.3050486810747346,-3.153234622302209
18.60099999999975,0.24898056346970054,-3.1943394309484323
18.799999999999994,0.18987978638478129,-3.2229247298566817
19.000000000000238,0.13651636789127944,-3.253046495682131
19.200000000000482,0.08727888822679516,-3.2917025798285424
19.400000000000727,0.042381082675097485,-3.3349351262000213
19.60000000000097,-0.003916085150210951,-3.37933603873364
19.800000000001216,-0.059890331706147645,-3.409395834499628
20.00000000000146,-0.11847422403187755,-3.4329426999806008
