Time (s),X (m),Y (m)
0.001,0.0011890620069237587,0.00035268032603768894
0.20000000000000015,0.003500047891301295,0.0007361893366713537
0.4000000000000003,0.009908817547276405,0.0009229041235328813
0.6000000000000004,0.012035953778265088,-0.0010600729453077633
0.8000000000000006,0.019905479332890056,0.002859207382973623
1.0000000000000007,0.027820369969906306,0.0060699517469515055
1.2009999999999785,0.03413445978444642,0.011245684877515132
1.4009999999999565,0.0402888308754714,0.013270917380147976
1.6009999999999345,0.04383268173235625,0.013943126343670998
1.8009999999999124,0.05642354384371868,0.018437909226472718
2.0009999999998906,0.06993265041703085,0.024371878491048275
2.2009999999998686,0.07969470222900006,0.0285111410051255
2.4009999999998466,0.08618391710514424,0.027859664074822505
2.6009999999998246,0.09532056287949875,0.026032313411378304
2.8009999999998025,0.10950150105643516,0.02746467614611074
3.0009999999997805,0.12256136308491762,0.029081417216387927
3.2009999999997585,0.12492420434094686,0.031142507190626608
3.4009999999997365,0.13604546071755813,0.03080887205543818
3.6009999999997144,0.15030001057193013,0.029713703062863635
3.8009999999996924,0.16140369477169264,0.029665115465138857
4.000999999999671,0.17580918722145777,0.027852718457995886
4.200999999999738,0.18242060894423753,0.026729157855281203
4.400999999999804,0.18819704237433632,0.023245785018456436
4.600999999999871,0.19308244550088338,0.017518081140396876
4.800999999999938,0.2036514741376842,0.017340060972682158
5.000000000000004,0.2120425613882363,0.01823909753554942
5.200000000000071,0.229244124796436,0.01672826372383482
5.400000000000138,0.24657569813075936,0.01483651392614833
5.600000000000205,0.2606001796658106,0.005733237256252055
5.800000000000272,0.27411481907580054,-0.001085754445710362
6.000000000000338,0.28171088764701024,-0.005024981556811193
6.200000000000405,0.29439882671225387,-0.00803859233128627
6.400000000000472,0.30849549470840076,-0.013346513106548162
6.600000000000539,0.3156841498519732,-0.016282834276549515
6.800000000000606,0.3207709337743273,-0.021896939262165932
7.000000000000672,0.3315522442822251,-0.02452171109875543
7.200000000000739,0.3405052212907071,-0.030136836568804986
7.400000000000806,0.35419678112675335,-0.032203019263681666
7.600000000000873,0.360766513336428,-0.03778148825242681
7.8000000000009395,0.365588025728086,-0.040912477824876094
8.000000000001005,0.3855804107461255,-0.044324635128675606
8.200000000000895,0.39546235755959736,-0.052167390795857
8.400000000000784,0.39939221405485625,-0.0533829075071824
8.600000000000673,0.4074123667348598,-0.05669766329640736
8.800000000000562,0.41801167809542084,-0.05855949157360506
9.000000000000451,0.42903352557309343,-0.06050103290374145
9.20000000000034,0.43758379649922713,-0.06808545412348166
9.40000000000023,0.4519896573821842,-0.0772059055570007
9.600000000000119,0.45669519502998923,-0.08190052637621528
9.800000000000008,0.4654268199713428,-0.08699342696667739
10.000999999999896,0.4751668513324408,-0.09086129529188684
10.200999999999786,0.48690132044587914,-0.09503647946806512
10.400999999999675,0.4996057481180928,-0.09809160470947229
10.600999999999564,0.5165619853943869,-0.09966919768776777
10.800999999999453,0.5259566280341625,-0.10557301280509394
11.000999999999342,0.5349387603360568,-0.10959855069418734
11.200999999999231,0.5479940695161227,-0.113829585949568
11.40099999999912,0.5659755449144735,-0.12057743477581985
11.60099999999901,0.5794114019666753,-0.12734081704566239
11.800999999998899,0.5931903744587866,-0.13647643514132576
12.000999999998788,0.6077767978719186,-0.14501673212491809
12.200999999998677,0.6237540725813931,-0.15153134575580135
12.400999999998566,0.6446265481631325,-0.16158192628084786
12.600999999998455,0.6549111977974318,-0.17073056590576996
12.800999999998345,0.6659771121516979,-0.17545263075021372
13.000999999998234,0.6769974131896799,-0.1830786631981379
13.200999999998123,0.6961722771746943,-0.18612474002075655
13.400999999998012,0.7117700823121247,-0.19243504834674469
13.600999999997901,0.717094275508469,-0.20197777056246596
13.80099999999779,0.7318820912180553,-0.20776807236595485
14.00099999999768,0.7423028331189371,-0.21502944756852196
14.200999999997569,0.7569543595476825,-0.22399817764257068
14.400999999997458,0.7584800134362948,-0.22715604392365035
14.600999999997347,0.7718176031730207,-0.23667672039076043
14.800999999997236,0.7811494840982808,-0.24215026924676153
15.000999999997125,0.792838268719565,-0.24998648169720988
15.200999999997014,0.8005902034284694,-0.25980422913536155
15.400999999996904,0.8109121084960501,-0.26944286053660865
15.600999999996793,0.8262975141414026,-0.27763461637505066
15.800999999996682,0.8469433587375612,-0.28754726713152584
16.000999999996573,0.8532829821276997,-0.2952495009153579
16.200999999996817,0.8662815937734505,-0.3010880544702979
16.40099999999706,0.8792060987997522,-0.30729901154406297
16.600999999997306,0.8928697241013452,-0.31248538497094214
16.80099999999755,0.9098792886563368,-0.31654812580501684
17.000999999997795,0.9252245924963292,-0.3268713308383859
17.20099999999804,0.935670138032683,-0.33831274692897373
17.400999999998284,0.9430461824773074,-0.3479227266389288
17.60099999999853,0.9550949202061239,-0.353136038094094
17.800999999998773,0.9673793700153903,-0.36072366649965115
18.000999999999017,0.980859853887208,-0.3678629937310093
18.20099999999926,0.9969696625119695,-0.3759525053181654
18.400999999999506,1.0071554367757538,-0.38044796464787345
18.60099999999975,1.0206366998785095,-0.3853103979296809
18.799999999999994,1.029783744116297,-0.39052306713265983
19.000000000000238,1.0392583726447797,-0.39661068806307165
19.200000000000482,1.0477479676749182,-0.40443904519607854
19.400000000000727,1.0544870511040008,-0.40968340256204744
19.60000000000097,1.0683516817237433,-0.41664527170392557
19.800000000001216,1.079460504672695,-0.4226154552116364
20.00000000000146,1.0917691457377452,-0.431848701346551
