Time (s),X (m),Y (m)
0.001,0.0012473251573109415,-8.987223813608099e-05
0.20000000000000015,0.0010214213974226306,0.0007677804775222018
0.4000000000000003,0.010628312508305635,-0.0020118532380897867
0.6000000000000004,0.02231106464505593,-0.006956078590758036
0.8000000000000006,0.03141195134104719,-0.007688729044777259
1.0000000000000007,0.03825170838719038,-0.01425843824295682
1.2009999999999785,0.06061539335161911,-0.024991105763624077
1.4009999999999565,0.09385686836688201,-0.039105678715407904
1.6009999999999345,0.12616481007041816,-0.05551964987690339
1.8009999999999124,0.15139229029657583,-0.06921628523684462
2.0009999999998906,0.17420997944592684,-0.07921255281092521
2.2009999999998686,0.2021683487047655,-0.08982757165852669
2.4009999999998466,0.2393038537216117,-0.10470481293179758
2.6009999999998246,0.2898425924883032,-0.12583016217108847
2.8009999999998025,0.3444270946016958,-0.14953127296335966
3.0009999999997805,0.39931152096206757,-0.17920866972012156
3.2009999999997585,0.4549260456853106,-0.21687069825848468
3.4009999999997365,0.5079691635427893,-0.2621705058278041
3.6009999999997144,0.5498026558307512,-0.303933270910704
3.8009999999996924,0.5697392935632168,-0.34569636388865227
4.000999999999671,0.571550627284351,-0.3895426464377259
4.200999999999738,0.5679873339853413,-0.4331972288537379
4.400999999999804,0.5531224138433136,-0.48498137014559695
4.600999999999871,0.531643261939019,-0.5368504074954787
4.800999999999938,0.4991371241414839,-0.5808004377456967
5.000000000000004,0.45821895067247803,-0.6041812688747087
5.200000000000071,0.4160528111081245,-0.6104352128139342
5.400000000000138,0.3860882616174544,-0.6024401084377653
5.600000000000205,0.3514205595813492,-0.5827042151392948
5.800000000000272,0.32375023396347513,-0.5659345346808607
6.000000000000338,0.2923308606646436,-0.5520873550513856
6.200000000000405,0.25192333182750387,-0.5311515971390818
6.400000000000472,0.2062530580529224,-0.5060509955565771
6.600000000000539,0.1517327309077314,-0.4733479055140449
6.800000000000606,0.10387565726868545,-0.43482297452521823
7.000000000000672,0.08082554755195984,-0.39111287556747626
7.200000000000739,0.08725869853038866,-0.33812927087877703
7.400000000000806,0.1028528546698823,-0.28802535850864525
7.600000000000873,0.13644365346904508,-0.2423075141805777
7.8000000000009395,0.17528507943926275,-0.21976354529120948
8.000000000001005,0.2202218578927643,-0.21830892313726372
8.200000000000895,0.2646541638820284,-0.22986490988263178
8.400000000000784,0.3126199647022058,-0.25106784464993837
8.600000000000673,0.36116644268899223,-0.2747594590899021
8.800000000000562,0.40807015875134656,-0.31166371209681615
9.000000000000451,0.4391841743565501,-0.34931814651190346
9.20000000000034,0.4507602435365212,-0.38880245853011286
9.40000000000023,0.4379106681447482,-0.4382977059679128
9.600000000000119,0.4121422830536134,-0.48828459359324067
9.800000000000008,0.3784928818319971,-0.5361302814072999
10.000999999999896,0.3370175825122412,-0.5739679077916241
10.200999999999786,0.29587235495187736,-0.5951942650150861
10.400999999999675,0.24035951431202848,-0.6053779765863186
10.600999999999564,0.16902529824603402,-0.5982722539760554
10.800999999999453,0.10009418899688592,-0.5783402825436388
11.000999999999342,0.02577977015636887,-0.5483574256613691
11.200999999999231,-0.04437359151193656,-0.5119027236365221
11.40099999999912,-0.10994160221993254,-0.48043180651727535
11.60099999999901,-0.16918937032983286,-0.4444068166331705
11.800999999998899,-0.2111825193238622,-0.3923714033005165
12.000999999998788,-0.21574972494064787,-0.3306536593453313
12.200999999998677,-0.2016819453845474,-0.27137956569807353
12.400999999998566,-0.17485429928537885,-0.2124285477444401
12.600999999998455,-0.13574409089859074,-0.1561930175165817
12.800999999998345,-0.09304238538484585,-0.11220376412142052
13.000999999998234,-0.05130045928538184,-0.09283632041654805
13.200999999998123,-0.013324862170159532,-0.09179070831628146
13.400999999998012,0.031162331171668865,-0.10654762814412087
13.600999999997901,0.07899433845382997,-0.12261174698243431
13.80099999999779,0.1283755009954559,-0.14388261781026365
14.00099999999768,0.1815109423572068,-0.17781479306900205
14.200999999997569,0.2420969143392647,-0.2206754952423005
14.400999999997458,0.2969677673314589,-0.2589136469944747
14.600999999997347,0.32068873433854767,-0.31288491398774343
14.800999999997236,0.3067262363557232,-0.380539642689958
15.000999999997125,0.28194334123248926,-0.4405471095399943
15.200999999997014,0.2557285153594708,-0.500610506001111
15.400999999996904,0.2252343610211685,-0.5613382736495229
15.600999999996793,0.19282472735028233,-0.6222684845253637
15.800999999996682,0.15251224655823387,-0.6907093007718399
16.000999999996573,0.11764439821260449,-0.7534886755413714
16.200999999996817,0.06349283545994228,-0.805252720255802
16.40099999999706,0.007829494010871357,-0.8336358889645398
16.600999999997306,-0.04712620400008875,-0.8399357697971158
16.80099999999755,-0.10520933763939602,-0.8301428527763244
17.000999999997795,-0.151538652634543,-0.8145337024467397
17.20099999999804,-0.20397659439155708,-0.7922046522609962
17.400999999998284,-0.27026490972883277,-0.755191950863842
17.60099999999853,-0.32903732208197556,-0.7234509719837213
17.800999999998773,-0.38073033685538055,-0.6968449408447039
18.000999999999017,-0.43086060795290254,-0.6724665353746718
18.20099999999926,-0.4810813047322166,-0.6417372465721679
18.400999999999506,-0.5196362689528258,-0.6009226380277929
18.60099999999975,-0.5253030250966098,-0.5413569900991558
18.799999999999994,-0.5127979956439596,-0.4820483705549185
19.000000000000238,-0.49033824634319945,-0.4107476589444159
19.200000000000482,-0.45456913639887636,-0.3348490160374091
19.400000000000727,-0.4188241306936191,-0.2680862115355011
19.60000000000097,-0.3816074385776781,-0.22350274375684895
19.800000000001216,-0.344228225759588,-0.20665855826849744
20.00000000000146,-0.3027589812117956,-0.2111635796465537
