Time (s),X (m),Y (m)
0.001,0.0010100015126501532,0.0006628221997479689
0.20000000000000015,-0.0012437652263219488,-0.0022503478782313633
0.4000000000000003,0.004456577611268372,0.0002459592240578335
0.6000000000000004,0.01682314393303316,0.004142581708850995
0.8000000000000006,0.030649692803165235,0.0002241091165272206
1.0000000000000007,0.03617498163067806,-0.006834022264054948
1.2009999999999785,0.049255787658390775,-0.008182613814575431
1.4009999999999565,0.06321220676364032,-0.015624482545346747
1.6009999999999345,0.07586660903955682,-0.016317446126834466
1.8009999999999124,0.08801626080957776,-0.018841627575130214
2.0009999999998906,0.10655721868797666,-0.014202121338971837
2.2009999999998686,0.1296005734958878,-0.01955382475191567
2.4009999999998466,0.15434819097256375,-0.014126779911172971
2.6009999999998246,0.1690920452419868,-0.005299646047237127
2.8009999999998025,0.1793184329771316,-0.002385188513862119
3.0009999999997805,0.19536328634014383,0.004262584603339726
3.2009999999997585,0.21576155848465706,0.013332260947589379
3.4009999999997365,0.2354861857895987,0.027485917356368916
3.6009999999997144,0.2519765043513167,0.0325394430351011
3.8009999999996924,0.2732135790551705,0.037486100964442236
4.000999999999671,0.2905309019513936,0.04160996734573347
4.200999999999738,0.30247927534007873,0.047879174601773905
4.400999999999804,0.3180838583841806,0.058059489542782325
4.600999999999871,0.3310259002496318,0.06396818459788627
4.800999999999938,0.34747724468918334,0.0764094768850024
5.000000000000004,0.367151155681376,0.08910761627386259
5.200000000000071,0.3839277225474336,0.09139285409416857
5.400000000000138,0.40188062797017143,0.10942052484947344
5.600000000000205,0.422250301083257,0.1357833174962764
5.800000000000272,0.44358484085549105,0.15837683852308118
6.000000000000338,0.46449298158412405,0.18450465841059993
6.200000000000405,0.48727419908392355,0.20904186023936636
6.400000000000472,0.5050935878787381,0.22877151809565127
6.600000000000539,0.5248837500108365,0.24391521359956364
6.800000000000606,0.5424364652053484,0.2601364312660501
7.000000000000672,0.5639807699465512,0.2724001650457496
7.200000000000739,0.5832349202458934,0.28478485339199866
7.400000000000806,0.6053532008655276,0.3015990858853013
7.600000000000873,0.6246304036708146,0.32000956810693665
7.8000000000009395,0.6377753506603848,0.34209277445794284
8.000000000001005,0.6536560094016854,0.3699060363235209
8.200000000000895,0.6772692430025202,0.3850806442698686
8.400000000000784,0.6889885899035496,0.4017290705752069
8.600000000000673,0.7101148297809101,0.4212238373547936
8.800000000000562,0.7272718758962489,0.44442412868799447
9.000000000000451,0.7464373008673342,0.46221890584024095
9.20000000000034,0.7599387627345617,0.48980872150240556
9.40000000000023,0.7806188255616253,0.5142124209913552
9.600000000000119,0.8008420702088767,0.5336687734808849
9.800000000000008,0.8129613138769505,0.5535764975858533
10.000999999999896,0.8301765298772906,0.5701782149641694
10.200999999999786,0.8511095925264992,0.5810375919688733
10.400999999999675,0.8674222853831393,0.5977806620007534
10.600999999999564,0.8833217626425205,0.620801089024896
10.800999999999453,0.896779454501106,0.6330007718471198
11.000999999999342,0.9148636394460199,0.645926735685818
11.200999999999231,0.929337531960316,0.6655774623464963
11.40099999999912,0.9412813061940111,0.6849971881005722
11.60099999999901,0.9498108001177383,0.7041732343102918
11.800999999998899,0.9659954229710245,0.7254438515646225
12.000999999998788,0.9793704996155217,0.7454167286101884
12.200999999998677,0.9940715225172437,0.7578144972773567
12.400999999998566,1.0128677414807385,0.7743999377164128
12.600999999998455,1.0214741967394805,0.7988015227648186
12.800999999998345,1.0302349262391686,0.8261726533596081
13.000999999998234,1.0438092625592723,0.8464692747611484
13.200999999998123,1.060226490222868,0.8663546650715954
13.400999999998012,1.0758460021311398,0.8952396288515326
13.600999999997901,1.089193975184121,0.9263790526287566
13.80099999999779,1.1010639865607874,0.947083673080419
14.00099999999768,1.1144035989793069,0.9678802592099197
14.200999999997569,1.1274960422940534,0.9854094048937245
14.400999999997458,1.1422550556861184,1.0055949020348527
14.600999999997347,1.1569709738991065,1.0169324032363276
14.800999999997236,1.1659782662778067,1.0395364090295625
15.000999999997125,1.1747082958320625,1.07052960781178
15.200999999997014,1.1807386440253622,1.0996480159336486
15.400999999996904,1.1902420419764526,1.1177543605406568
15.600999999996793,1.2038965501213985,1.1379245213534115
15.800999999996682,1.2194698861687394,1.1677198281662065
16.000999999996573,1.2373039397156769,1.190839866664632
16.200999999996817,1.2520865659955707,1.2043425366906426
16.40099999999706,1.2676627574839163,1.2319730005289886
16.600999999997306,1.2746110300971607,1.2644548312845718
16.80099999999755,1.2782242739928413,1.297053507140525
17.000999999997795,1.2857516136977605,1.3208859468965524
17.20099999999804,1.2952542507199352,1.3415805085239618
17.400999999998284,1.3025379364295866,1.3594502070619081
17.60099999999853,1.3089425513446826,1.3789220107241373
17.800999999998773,1.3150500626288948,1.3990724571233761
18.000999999999017,1.3185604346330992,1.4302636467714323
18.20099999999926,1.3193082004711798,1.4553210457440076
18.400999999999506,1.3174696929164194,1.4757037229758232
18.60099999999975,1.313823441191452,1.4942059190884476
18.799999999999994,1.3099904488734133,1.509098442296662
19.000000000000238,1.3047334995784112,1.536522239131041
19.200000000000482,1.3082126203303348,1.5560905192651076
19.400000000000727,1.3050302314140565,1.5751628055209193
19.60000000000097,1.3069336791052335,1.5986672669029807
19.800000000001216,1.3062926501210415,1.6259318104022655
20.00000000000146,1.3105741485864086,1.6487529346122518
