Time (s),X (m),Y (m)
0.001,0.0010647643868879006,-0.0005914538325516239
0.20000000000000015,2.2416088960974214e-05,0.001043232230956017
0.4000000000000003,0.004309155211200448,-0.003860685102263257
0.6000000000000004,0.026209323566334205,-0.018127749336470184
0.8000000000000006,0.04854466983875375,-0.03021925150360365
1.0000000000000007,0.07222625616513878,-0.03675471334533339
1.2009999999999785,0.0977349994745573,-0.040271345418631074
1.4009999999999565,0.12397233737058135,-0.03665155071462702
1.6009999999999345,0.1444210291712016,-0.0489668960476349
1.8009999999999124,0.15921366882703766,-0.06750798243843627
2.0009999999998906,0.17067469987970343,-0.0861504437664346
2.2009999999998686,0.17890204049038957,-0.11155008953265722
2.4009999999998466,0.17162667463037426,-0.1466101839660264
2.6009999999998246,0.16307836898634614,-0.1851825538786759
2.8009999999998025,0.13823188000260572,-0.21234893141856975
3.0009999999997805,0.11568639439474206,-0.2303561113010358
3.2009999999997585,0.09640194883039532,-0.24726832390338743
3.4009999999997365,0.06414986659749478,-0.2608816047218902
3.6009999999997144,0.02253691212713483,-0.26789495333309793
3.8009999999996924,-0.031225827791458046,-0.2611261189851233
4.000999999999671,-0.07536238657607155,-0.25248962420076043
4.200999999999738,-0.10708184394733283,-0.2268876971692821
4.400999999999804,-0.1318351598580497,-0.20168027785532072
4.600999999999871,-0.1395609099251352,-0.1520675255031222
4.800999999999938,-0.139986341876758,-0.0945403451106995
5.000000000000004,-0.134387459093204,-0.04249833551314219
5.200000000000071,-0.10979745971850036,0.008548201305147777
5.400000000000138,-0.06451889173567435,0.05274839657048453
5.600000000000205,-0.010595535023698586,0.08129295414944175
5.800000000000272,0.04091103152031252,0.10369005022641863
6.000000000000338,0.07192406588018099,0.12492527211139952
6.200000000000405,0.10127485412781242,0.14198675840314137
6.400000000000472,0.14213837358944087,0.15044474060769844
6.600000000000539,0.177469333397401,0.1545051541151359
6.800000000000606,0.2211499830655554,0.1495809004075276
7.000000000000672,0.264629384530072,0.13988515628678055
7.200000000000739,0.31110074153622913,0.12718775524564382
7.400000000000806,0.3576085114214716,0.11904350929377583
7.600000000000873,0.3905417646489129,0.09433014716361963
7.8000000000009395,0.40909172182635417,0.05547517274341125
8.000000000001005,0.4241044894599195,0.017174649424471986
8.200000000000895,0.4309019200897485,-0.03396182735372489
8.400000000000784,0.4298205060036261,-0.08377060749185455
8.600000000000673,0.41761982623872224,-0.14466411674722485
8.800000000000562,0.4011405128749483,-0.2068756578762715
9.000000000000451,0.3675723280651228,-0.2717198636504402
9.20000000000034,0.34094223354225295,-0.3303867209354279
9.40000000000023,0.29537887067143576,-0.3758340176055061
9.600000000000119,0.24987290332363662,-0.4023863612166366
9.800000000000008,0.20120659082132167,-0.40350877578225525
10.000999999999896,0.14826860047122603,-0.3920194192612918
10.200999999999786,0.09224279592649066,-0.37814972801307406
10.400999999999675,0.043907963259755205,-0.35579782841681235
10.600999999999564,0.012482255923548203,-0.31641129761860054
10.800999999999453,-0.0032627246711849256,-0.2723480472917048
11.000999999999342,-0.005036189403166705,-0.22086252595348566
11.200999999999231,0.006470242593896882,-0.1537314904927636
11.40099999999912,0.008717954202581115,-0.09680447542109862
11.60099999999901,0.013356164107994707,-0.039380869424363245
11.800999999998899,0.031142395361904076,0.011500543286590214
12.000999999998788,0.051228496738368955,0.0634716284296083
12.200999999998677,0.09456947480870544,0.1053475983343879
12.400999999998566,0.15680979797546124,0.13275285777528958
12.600999999998455,0.21669377230140538,0.14633730277705637
12.800999999998345,0.26819933207082347,0.14850582980967278
13.000999999998234,0.3230706784556673,0.1391961822174604
13.200999999998123,0.38315965003799163,0.10833500066733298
13.400999999998012,0.44573707506505233,0.08116631071223718
13.600999999997901,0.49502182425441654,0.02166871891367879
13.80099999999779,0.519222716025026,-0.043498376855322055
14.00099999999768,0.5219946076045566,-0.10377868966754988
14.200999999997569,0.5123171983172174,-0.15841220995181213
14.400999999997458,0.4825096878408545,-0.21833540555110953
14.600999999997347,0.44385063008478304,-0.27709665483941015
14.800999999997236,0.38838511388250113,-0.3245738659537527
15.000999999997125,0.325739550667787,-0.34589711485840696
15.200999999997014,0.26757448990650823,-0.3488672026124426
15.400999999996904,0.20511483069271538,-0.34423120539618673
15.600999999996793,0.1446802636465323,-0.3382486882891075
15.800999999996682,0.08867799678849021,-0.3220912996396645
16.000999999996573,0.04763397995273275,-0.2947451696476347
16.200999999996817,0.02474806766945371,-0.2522362977472946
16.40099999999706,0.014789433806730281,-0.19960957801749807
16.600999999997306,0.020897406007993915,-0.13203633575578871
16.80099999999755,0.02970429380418544,-0.06855624635988207
17.000999999997795,0.04627072344928243,0.0007982037361279139
17.20099999999804,0.07215687318115283,0.07125882982826448
17.400999999998284,0.09759729345163727,0.13917365443476615
17.60099999999853,0.12762830646296833,0.21275517656734722
17.800999999998773,0.16216233450950132,0.27553646014117394
18.000999999999017,0.2117626400057948,0.3146163338173374
18.20099999999926,0.2645080193402727,0.34098764543211785
18.400999999999506,0.32194693125008605,0.3578675198854317
18.60099999999975,0.3872694582525589,0.3565069151716505
18.799999999999994,0.4521825423090472,0.33925195795036955
19.000000000000238,0.5157812351240487,0.3094765141574258
19.200000000000482,0.5694190697485378,0.2901791561880507
19.400000000000727,0.598936991797466,0.24614417808420408
19.60000000000097,0.6078197604385865,0.20011626943586222
19.800000000001216,0.5980283689167657,0.1503376192624129
20.00000000000146,0.5767707562512773,0.09969176354906882
