Time (s),X (m),Y (m)
0.001,-0.0007759513068619564,0.00026688599193002506
0.20000000000000015,-0.0029659227999273507,0.0008949002308649447
0.4000000000000003,0.0012591063259546561,-0.0006460423287952801
0.6000000000000004,0.003327555085504181,-0.002817915306082691
0.8000000000000006,0.004348302598902305,-0.000972198050827822
1.0000000000000007,0.01563101298044815,0.0003119683032688966
1.2009999999999785,0.021897348174903006,0.002611863530617339
1.4009999999999565,0.029526510007805942,-0.006944254583378069
1.6009999999999345,0.034673403407439886,-0.012589541975472053
1.8009999999999124,0.03560242793445774,-0.01611399890981153
2.0009999999998906,0.042076219010611204,-0.02149009125361723
2.2009999999998686,0.05093692289842886,-0.02576431980252654
2.4009999999998466,0.05681605884801371,-0.025852465546135597
2.6009999999998246,0.06411675008113156,-0.026521450817087847
2.8009999999998025,0.07139462469742928,-0.02623295738649982
3.0009999999997805,0.07926361205166085,-0.02530734226199137
3.2009999999997585,0.0874712227887629,-0.019888075763060443
3.4009999999997365,0.09756746217491911,-0.01588526315645067
3.6009999999997144,0.10482596732765602,-0.01330140968891705
3.8009999999996924,0.11703011630895033,-0.010593016550477258
4.000999999999671,0.1289096617445919,-0.008811178270953996
4.200999999999738,0.13873741417063115,-0.01006990708610753
4.400999999999804,0.14955267580649864,-0.009344414217030769
4.600999999999871,0.15942646138008082,-0.011794793736302111
4.800999999999938,0.16883077800190363,-0.015552994679821061
5.000000000000004,0.17713743067167492,-0.018292840686289582
5.200000000000071,0.1883084164829041,-0.020915921217641163
5.400000000000138,0.19653399252367904,-0.023093613744484414
5.600000000000205,0.20467670242818226,-0.02012093161816139
5.800000000000272,0.21697114259707526,-0.017643422769442363
6.000000000000338,0.22436887055511454,-0.014582268645535273
6.200000000000405,0.232636031036133,-0.012607596718025478
6.400000000000472,0.24440978867216615,-0.01480087264617102
6.600000000000539,0.2522464279575707,-0.015555833690142589
6.800000000000606,0.25962378285430243,-0.016006207358347686
7.000000000000672,0.2692635927975696,-0.013985549802798142
7.200000000000739,0.2793357452837966,-0.005902502660832256
7.400000000000806,0.2907331442541727,-0.0011935045013242585
7.600000000000873,0.3061780699995313,0.0010438068787809783
7.8000000000009395,0.32204550507765933,0.001145249090445264
8.000000000001005,0.3299210109202657,0.0031215765894821593
8.200000000000895,0.3405430584058711,0.0011257239874184958
8.400000000000784,0.34750839009168294,-0.0011907402793626654
8.600000000000673,0.35622321316826794,-0.0038852049699757405
8.800000000000562,0.371725274942069,-0.007601280997167452
9.000000000000451,0.3783712348525185,-0.00495444115566606
9.20000000000034,0.3886604824308919,-0.0030578378310547284
9.40000000000023,0.4003446862406984,-0.0022418525377513577
9.600000000000119,0.41372232613467214,-0.0043710357121685165
9.800000000000008,0.4269087251132787,-0.006959293166839247
10.000999999999896,0.4367936101552933,-0.01139172721800664
10.200999999999786,0.44541250723639086,-0.014021822662667108
10.400999999999675,0.451879037341004,-0.014752282595392616
10.600999999999564,0.4628699351065931,-0.015373810877561664
10.800999999999453,0.4746098927797868,-0.014017792707166776
11.000999999999342,0.48462607851187506,-0.01488749958155399
11.200999999999231,0.4957296115994069,-0.012959920522725698
11.40099999999912,0.5075156446271665,-0.010582596564073624
11.60099999999901,0.5184972180177384,-0.008043084180079684
11.800999999998899,0.5267740395800459,-0.00018755411772904511
12.000999999998788,0.538529628290607,0.002167207515190587
12.200999999998677,0.5532166846965957,0.010401925486613445
12.400999999998566,0.5647792151224152,0.01797593997496674
12.600999999998455,0.5720274730516132,0.02351032824601379
12.800999999998345,0.5801558154177465,0.02413354343788784
13.000999999998234,0.594601365196747,0.02432641271622214
13.200999999998123,0.605297483980765,0.023903059083660087
13.400999999998012,0.6182043013571669,0.022306114401576878
13.600999999997901,0.6301853186447275,0.018155446353829718
13.80099999999779,0.6446166528012119,0.014414186704999391
14.00099999999768,0.6629223481590919,0.011903650246468367
14.200999999997569,0.6742703467143913,0.012246429912914818
14.400999999997458,0.6846706802318113,0.01258274847109287
14.600999999997347,0.6984456472243487,0.011588288916632224
14.800999999997236,0.7062668471613136,0.00988737901284658
15.000999999997125,0.7200908248046298,0.006540661501297103
15.200999999997014,0.7299780544496364,0.0022370345764844216
15.400999999996904,0.7412654610620003,-0.0019237180673541303
15.600999999996793,0.7537308074605225,-0.004760945813143193
15.800999999996682,0.76533915845666,-0.0073017103677541105
16.000999999996573,0.7749848291772309,-0.011380097612260262
16.200999999996817,0.7849313662529142,-0.014564400915008494
16.40099999999706,0.7964472547553891,-0.01790912332330859
16.600999999997306,0.8036309899088852,-0.018848416308889504
16.80099999999755,0.8184063348062709,-0.02106307027417935
17.000999999997795,0.8254136893963888,-0.023570978292623807
17.20099999999804,0.835164716597863,-0.025538802370337232
17.400999999998284,0.847167250491609,-0.02921941426807693
17.60099999999853,0.8612092920389304,-0.03024205734360502
17.800999999998773,0.8738390380581086,-0.028928204665054698
18.000999999999017,0.8796459195253461,-0.029334553347471853
18.20099999999926,0.8877362309205351,-0.03228755359186853
18.400999999999506,0.9020981538653675,-0.034042871714203636
18.60099999999975,0.9098383842134863,-0.03449072353544417
18.799999999999994,0.9244241997073027,-0.036964418685607424
19.000000000000238,0.9338826063134984,-0.04195366942695752
19.200000000000482,0.9482600903739954,-0.0444107286165276
19.400000000000727,0.9562324369840746,-0.04631192605229929
19.60000000000097,0.9661264495024244,-0.04655399337081428
19.800000000001216,0.9793610483703445,-0.04861607401927102
20.00000000000146,0.989460558491659,-0.050426584309565106
