Time (s),X (m),Y (m)
0.001,-0.0005698399629515257,-0.0006628221997479689
0.20000000000000015,0.005225455898427281,0.001743029219248837
0.4000000000000003,0.011644382515060614,-0.008418155380866573
0.6000000000000004,0.03146247487447326,-0.010729519788529707
0.8000000000000006,0.07053883015021767,0.0008269555920996623
1.0000000000000007,0.10812564413511636,0.018775049625446814
1.2009999999999785,0.1412656227619946,0.024584137722207515
1.4009999999999565,0.17117832919075254,0.016671044605428516
1.6009999999999345,0.2075011898330557,-0.003973400778207165
1.8009999999999124,0.23201974405051184,-0.029493078892798917
2.0009999999998906,0.2477838846165365,-0.05287093130823359
2.2009999999998686,0.2570984060282353,-0.06898681117171006
2.4009999999998466,0.27221640839156735,-0.09763213689819432
2.6009999999998246,0.30248690003846973,-0.13265260144088284
2.8009999999998025,0.3442878049423631,-0.17514065969451464
3.0009999999997805,0.38303851722278826,-0.22459158303496987
3.2009999999997585,0.4193093732687622,-0.27672802876260305
3.4009999999997365,0.45327581113332416,-0.3277159116818774
3.6009999999997144,0.47906537762801515,-0.3780811247203543
3.8009999999996924,0.5153052393164318,-0.4319682779441217
4.000999999999671,0.5435318925928461,-0.481531157364245
4.200999999999738,0.5767885542080087,-0.536133519528842
4.400999999999804,0.6076275195648421,-0.5922560648145324
4.600999999999871,0.6304552954151326,-0.6530236508512842
4.800999999999938,0.6352965528545934,-0.7110655986969799
5.000000000000004,0.6276427255088606,-0.7708708381461832
5.200000000000071,0.6047262017050424,-0.8184028077622666
5.400000000000138,0.5711340701097543,-0.8440472293475328
5.600000000000205,0.5350603961616407,-0.8707509601140139
5.800000000000272,0.49755665050363934,-0.897498345459074
6.000000000000338,0.4492185404149374,-0.9263783718701528
6.200000000000405,0.3935797921534831,-0.9611467218608915
6.400000000000472,0.342733061455132,-0.9850273675654811
6.600000000000539,0.2962719957380765,-1.0034221677640205
6.800000000000606,0.25448809478339307,-1.0431876181825992
7.000000000000672,0.2114539518312622,-1.0875623961128418
7.200000000000739,0.15148499008707725,-1.1381054181522898
7.400000000000806,0.08195326416801609,-1.1945745698879373
7.600000000000873,0.0068665176283159235,-1.2453358010202376
7.8000000000009395,-0.07824370347459857,-1.288662589490843
8.000000000001005,-0.15836406482212842,-1.3093217711933047
8.200000000000895,-0.21149940980477594,-1.2934496779669384
8.400000000000784,-0.2601655331172519,-1.2544053282017762
8.600000000000673,-0.299655443440508,-1.2001177870006636
8.800000000000562,-0.3379410834047628,-1.144749873817031
9.000000000000451,-0.3827554988928349,-1.08937365673012
9.20000000000034,-0.42612139184393577,-1.03001327966791
9.40000000000023,-0.47231452616263536,-0.9691177554398538
9.600000000000119,-0.5314319797144996,-0.8990748459928958
9.800000000000008,-0.5978732937412802,-0.8276493543224802
10.000999999999896,-0.6692167733852946,-0.7561568270106203
10.200999999999786,-0.7379333786493517,-0.6830248008696779
10.400999999999675,-0.8153296777468295,-0.6017309448873795
10.600999999999564,-0.8996547158654341,-0.5127708028226632
10.800999999999453,-0.9664177136809843,-0.43434390318442323
11.000999999999342,-0.9934600834298247,-0.36291456667002825
11.200999999999231,-0.9851754284814598,-0.2953612170816811
11.40099999999912,-0.9690418060918161,-0.22742018323097413
11.60099999999901,-0.9664420476313375,-0.15883397748050693
11.800999999998899,-0.9738960477096276,-0.0901263458787015
12.000999999998788,-0.9828963124519539,-0.013223674996150393
12.200999999998677,-0.9678636959043468,0.0572708242143771
12.400999999998566,-0.9286145253634162,0.10564970975808614
12.600999999998455,-0.8764574397893354,0.15450566306126393
12.800999999998345,-0.8191092817497075,0.20974070603627287
13.000999999998234,-0.7617749338150026,0.26363251479488825
13.200999999998123,-0.6989225236123491,0.31954682710802157
13.400999999998012,-0.6358136593032342,0.3706806460095413
13.600999999997901,-0.5668098627397596,0.41443165567126483
13.80099999999779,-0.4895983391896499,0.4449847036984235
14.00099999999768,-0.42942871292843426,0.44287760419061795
14.200999999997569,-0.38065251494486274,0.41347113945940034
14.400999999997458,-0.3404721431702903,0.37095711823592303
14.600999999997347,-0.2930189964232989,0.31366217617421926
14.800999999997236,-0.23656511725105983,0.2429542811913815
15.000999999997125,-0.16652257219061722,0.16868957883554708
15.200999999997014,-0.1175107898448333,0.09811937372922028
15.400999999996904,-0.060247711649273124,0.02684030819314781
15.600999999996793,-0.001345613885573482,-0.044210784573074646
15.800999999996682,0.06871208027509566,-0.12111063816771611
16.000999999996573,0.14044353920425026,-0.19889326090003864
16.200999999996817,0.21690915730006335,-0.2796604494061461
16.40099999999706,0.28060832951099307,-0.3513343099226144
16.600999999997306,0.3402039167404947,-0.4224386830127925
16.80099999999755,0.4018966766312279,-0.5002759399030213
17.000999999997795,0.4613430640851711,-0.5787420279553438
17.20099999999804,0.5236000602962979,-0.6667193001250363
17.400999999998284,0.5871764228055095,-0.7492493667327812
17.60099999999853,0.6388304876184897,-0.8217918801052841
17.800999999998773,0.6712680848658423,-0.8972020394427711
18.000999999999017,0.6704649253611275,-0.9595062071967059
18.20099999999926,0.6441075504958873,-1.0187799032439049
18.400999999999506,0.6066448808199415,-1.0920683800648883
18.60099999999975,0.5622188276602903,-1.1698317763331723
18.799999999999994,0.5190189215843625,-1.237181806300706
19.000000000000238,0.47371126760139837,-1.3013767492513997
19.200000000000482,0.41862818169832317,-1.3832536157779007
19.400000000000727,0.35604978168836043,-1.4571986717363496
19.60000000000097,0.29434099472197717,-1.5162772233931086
19.800000000001216,0.23441555693393362,-1.561072587416678
20.00000000000146,0.16807476683587755,-1.6065979721694046
