Time (s),X (m),Y (m)
0.001,0.0003991412691229187,0.0010155025257856582
0.20000000000000015,0.0031741329092260604,0.005258786929286169
0.4000000000000003,0.0037313582939412387,0.004827067647573913
0.6000000000000004,0.007495068168995362,0.001405694278225347
0.8000000000000006,0.010002787670333026,0.008399269307903223
1.0000000000000007,0.015891307410839807,0.008617492913850335
1.2009999999999785,0.021276322754958832,0.0156444509911703
1.4009999999999565,0.0260531544160099,0.015423518148556335
1.6009999999999345,0.030300635456853867,0.021775221550365147
1.8009999999999124,0.034054514042668536,0.022338226578369584
2.0009999999998906,0.038408463592116956,0.025785913465962818
2.2009999999998686,0.043032751657790025,0.030331843198259954
2.4009999999998466,0.04705818554483096,0.03323917465049842
2.6009999999998246,0.051715594618000606,0.03278303052688522
2.8009999999998025,0.05612303733469383,0.03313898625176654
3.0009999999997805,0.06071131287244565,0.03310496100275952
3.2009999999997585,0.06602180230080357,0.03480045514764311
3.4009999999997365,0.06966360358496589,0.033746244777677036
3.6009999999997144,0.07256677774316013,0.038864281788950114
3.8009999999996924,0.07523665815646324,0.043038433030949876
4.000999999999671,0.08036583708662844,0.044134123814817565
4.200999999999738,0.08381301283696252,0.04705524202662401
4.400999999999804,0.08611418057709241,0.05211136849146804
4.600999999999871,0.08902716994991558,0.05328623274730829
4.800999999999938,0.09131365705616988,0.05713505894251982
5.000000000000004,0.09452581924526884,0.05908177961115991
5.200000000000071,0.09879179648123186,0.05958101076485873
5.400000000000138,0.10108253778241325,0.0671574967857172
5.600000000000205,0.10283459945179779,0.07327918038014793
5.800000000000272,0.10706182136020156,0.07463320487595206
6.000000000000338,0.11310527279065016,0.07556008613748764
6.200000000000405,0.11426642775004937,0.07959027642716592
6.400000000000472,0.11767472512783056,0.08162935103250515
6.600000000000539,0.1216965163180715,0.08515248241626397
6.800000000000606,0.12380408306787709,0.08866457140264991
7.000000000000672,0.13046378443574716,0.0905608404782833
7.200000000000739,0.13442180407036008,0.09462576548779586
7.400000000000806,0.13272985505113227,0.10136929070797449
7.600000000000873,0.1312874956496158,0.10871724992171598
7.8000000000009395,0.13206970759781386,0.1135151428347316
8.000000000001005,0.1343176515345053,0.11903452000347602
8.200000000000895,0.1374282495251423,0.1227967801038452
8.400000000000784,0.14244507411955712,0.12578166689836456
8.600000000000673,0.14519069081188593,0.1304532065222482
8.800000000000562,0.1452709102632166,0.1368606053732785
9.000000000000451,0.14275585814092936,0.1429103309345725
9.20000000000034,0.14262203083693847,0.14882817325278994
9.40000000000023,0.14271114128109819,0.15398986432201878
9.600000000000119,0.14184986263201704,0.1615115683230275
9.800000000000008,0.14287037750986897,0.166525273871906
10.000999999999896,0.14297915751329363,0.17396434780745454
10.200999999999786,0.14019567975606936,0.17997537038466596
10.400999999999675,0.14030352036529017,0.18594563948766207
10.600999999999564,0.14231554336117944,0.19210358923838922
10.800999999999453,0.1429078251971904,0.19853121158935666
11.000999999999342,0.1398328768787864,0.20402524821789023
11.200999999999231,0.14029736248389382,0.20938540311291673
11.40099999999912,0.1418408697471256,0.21440805843288652
11.60099999999901,0.14010113893876341,0.2203074894626298
11.800999999998899,0.13814552158387777,0.22700052261836498
12.000999999998788,0.13620984055738208,0.23229647046687527
12.200999999998677,0.1359854258152103,0.2380470759654204
12.400999999998566,0.13620973078508344,0.2433651262690326
12.600999999998455,0.13283277740293342,0.2487278959189989
12.800999999998345,0.12891271817428854,0.25426537205312133
13.000999999998234,0.12683225412572868,0.25874650629527884
13.200999999998123,0.1298859229021136,0.2647149960878689
13.400999999998012,0.12655995149309013,0.2696340170273985
13.600999999997901,0.12417704441226646,0.2740284018169617
13.80099999999779,0.12100869515927447,0.2772725631788032
14.00099999999768,0.12105309934015301,0.2822786246956936
14.200999999997569,0.12082407024768027,0.28936819936705893
14.400999999997458,0.11771476593369944,0.29490117666634375
14.600999999997347,0.11134974492994754,0.2998621960231581
14.800999999997236,0.10858690360037329,0.30316838250693623
15.000999999997125,0.1074892023976485,0.30679324148243625
15.200999999997014,0.1044260271050282,0.31113892968449447
15.400999999996904,0.10088541116786304,0.3156702524813322
15.600999999996793,0.09889007670619049,0.3199193081370673
15.800999999996682,0.09351917219156992,0.3234999157898757
16.000999999996573,0.09254146522354799,0.3288147648340894
16.200999999996817,0.09013910847079534,0.3359399268840799
16.40099999999706,0.08568966150810295,0.337947263399882
16.600999999997306,0.08397394174040332,0.3424128032754173
16.80099999999755,0.08102999794244077,0.34920804894479196
17.000999999997795,0.07294773597297184,0.35223474246355657
17.20099999999804,0.06733473819976005,0.3531888889878233
17.400999999998284,0.06328494539411511,0.356555996670542
17.60099999999853,0.05781357347374574,0.3575660395912995
17.800999999998773,0.05261605724635632,0.36005629333605815
18.000999999999017,0.05045915094029173,0.3659035384825304
18.20099999999926,0.04960628712359919,0.37408588753154187
18.400999999999506,0.044856345127880684,0.3780848979244443
18.60099999999975,0.039545655528330295,0.3808420018150997
18.799999999999994,0.03234767457087327,0.38092819459795235
19.000000000000238,0.027308601593052245,0.38443497464444387
19.200000000000482,0.023453277790655157,0.38876709911915447
19.400000000000727,0.01761678254451227,0.3879760100833381
19.60000000000097,0.012162087549449118,0.38862671253159986
19.800000000001216,0.005381138015167416,0.3845130013092603
20.00000000000146,-0.0005268308686102748,0.38407697175836814
