Time (s),X (m),Y (m)
0.001,-0.0005698399629515257,0.0006628221997479692
0.20000000000000015,0.005281726648713073,-0.002998413902333784
0.4000000000000003,0.007049139819011945,0.00031131639080286334
0.6000000000000004,0.011122387053067085,0.01002858653084909
0.8000000000000006,0.0233653130764174,0.007384761646706918
1.0000000000000007,0.03651548517325119,0.010949120864291274
1.2009999999999785,0.0534783725115482,0.008063716166841586
1.4009999999999565,0.06681493695891916,0.011088476876322
1.6009999999999345,0.0843962058116772,0.012631108523268528
1.8009999999999124,0.09812452513141164,0.0044575785733991955
2.0009999999998906,0.1145644878324092,0.010283642630501666
2.2009999999998686,0.13037174186984699,0.018537017907073464
2.4009999999998466,0.15440456019757376,0.008065857259957235
2.6009999999998246,0.18330159383944167,-0.0034343225329144245
2.8009999999998025,0.2073441745969666,-0.012078314540115312
3.0009999999997805,0.23365251365953754,-0.019680107119454504
3.2009999999997585,0.26048538635515156,-0.022457993562220016
3.4009999999997365,0.282676680084212,-0.02739584254331114
3.6009999999997144,0.3122936047893307,-0.045850341508385684
3.8009999999996924,0.3439163164676206,-0.06330932316176441
4.000999999999671,0.3741285749503693,-0.07401133430602955
4.200999999999738,0.399585028631129,-0.08468760150880797
4.400999999999804,0.4350802147802777,-0.0979292248748092
4.600999999999871,0.46385311768752613,-0.11012334951304964
4.800999999999938,0.48687120502937004,-0.11802790554745979
5.000000000000004,0.5150373218239191,-0.12750763808896026
5.200000000000071,0.5438665770187423,-0.1525726061271359
5.400000000000138,0.572258450118334,-0.17903403679171975
5.600000000000205,0.5933249279851253,-0.2084931954244393
5.800000000000272,0.6051758890067359,-0.248397259213308
6.000000000000338,0.6096652075927659,-0.289697556843356
6.200000000000405,0.603071216590837,-0.32756561404360846
6.400000000000472,0.5887270230490793,-0.36238891383121163
6.600000000000539,0.5699227237939449,-0.402398232330314
6.800000000000606,0.5386890146581899,-0.436081500521032
7.000000000000672,0.5076750148249963,-0.45985977348981877
7.200000000000739,0.48199186777171577,-0.4734970754024613
7.400000000000806,0.44893792716194153,-0.4726471829312688
7.600000000000873,0.4232781259848485,-0.4701653894061949
7.8000000000009395,0.3951168261685295,-0.46699787244047003
8.000000000001005,0.3695886470158994,-0.4626207192795203
8.200000000000895,0.33600677803799206,-0.45757567526945214
8.400000000000784,0.301153725437556,-0.45111129084333335
8.600000000000673,0.2648226263493431,-0.4417553513365925
8.800000000000562,0.22409480647998284,-0.42328525993685623
9.000000000000451,0.18128726759641103,-0.3993684732298041
9.20000000000034,0.14580637453582834,-0.37988203683625743
9.40000000000023,0.11622857533287982,-0.3565674752860371
9.600000000000119,0.09059064996178492,-0.3459558133471617
9.800000000000008,0.08032292327190617,-0.32319210217453775
10.000999999999896,0.07772037583136988,-0.29462895267220823
10.200999999999786,0.08124670903308841,-0.2600684573402632
10.400999999999675,0.08403681297342744,-0.22609020565874707
10.600999999999564,0.09203452430142527,-0.19230526822345048
10.800999999999453,0.11518000172539487,-0.15825303029032498
11.000999999999342,0.14217401329055954,-0.13285141598804615
11.200999999999231,0.17431386772934804,-0.11872433854539563
11.40099999999912,0.20383074184444594,-0.10791135008285709
11.60099999999901,0.23159605285012874,-0.09701846748551529
11.800999999998899,0.26357817347870816,-0.09022182656681695
12.000999999998788,0.300649694574107,-0.0899377827686273
12.200999999998677,0.33377063337321383,-0.08534995592192893
12.400999999998566,0.36880729265221346,-0.09145067830972965
12.600999999998455,0.4028191990958956,-0.09972594082109748
12.800999999998345,0.43761776159984844,-0.1050891416209322
13.000999999998234,0.4654784883165914,-0.11299066237152071
13.200999999998123,0.49013821912862054,-0.11764153959852189
13.400999999998012,0.5227292167365951,-0.13377772458076298
13.600999999997901,0.5586365272012325,-0.14370508820146433
13.80099999999779,0.593009100997247,-0.1588791385313381
14.00099999999768,0.6240946175202872,-0.1677534347558009
14.200999999997569,0.6495842596481487,-0.17676754496505198
14.400999999997458,0.6742535451149525,-0.19433423056526603
14.600999999997347,0.6912011859785886,-0.21621112061904788
14.800999999997236,0.7050070946318782,-0.23619467459439136
15.000999999997125,0.7076941888257059,-0.26683136471689617
15.200999999997014,0.7119536349768572,-0.2919400132717372
15.400999999996904,0.7084815636093736,-0.32159201652948605
15.600999999996793,0.707509343634492,-0.3528933809896479
15.800999999996682,0.6971815701703751,-0.3972141141439344
16.000999999996573,0.6988907318053391,-0.42983696141259625
16.200999999996817,0.702107051989459,-0.46204501289712785
16.40099999999706,0.6922376772577825,-0.49223490717403473
16.600999999997306,0.6824421034870214,-0.5224520024903386
16.80099999999755,0.6726892412524434,-0.5585274930664358
17.000999999997795,0.6513206754710786,-0.5998826662270155
17.20099999999804,0.6373296762564247,-0.6407350067845266
17.400999999998284,0.6280136367243859,-0.6754382770743899
17.60099999999853,0.6157655307431713,-0.7079420199756293
17.800999999998773,0.6005882701529806,-0.738059343720671
18.000999999999017,0.5643655565119339,-0.7539916943855188
18.20099999999926,0.5340266624842761,-0.7655755164731745
18.400999999999506,0.5113909523232826,-0.7718411310617571
18.60099999999975,0.4922648302468338,-0.7769445492180931
18.799999999999994,0.4758948117888225,-0.7866531278654165
19.000000000000238,0.4550988020523291,-0.7922862700946721
19.200000000000482,0.4270843634105687,-0.7892457834170824
19.400000000000727,0.39756134354464845,-0.7918876381389898
19.60000000000097,0.3580134758428489,-0.7912738570940939
19.800000000001216,0.32104536568675673,-0.7897733540885867
20.00000000000146,0.28995594269822506,-0.7889638740354242
