Time (s),X (m),Y (m)
0.001,0.0011546366250239817,0.000435790549910003
0.20000000000000015,-0.002241967302821582,-0.0005915106691223358
0.4000000000000003,0.006389896388406646,0.004207826100923152
0.6000000000000004,0.013960667013345078,0.013128944049432328
0.8000000000000006,0.02202465872195214,0.016399421912264633
1.0000000000000007,0.04034450547282091,0.015921697174895146
1.2009999999999785,0.05893612563548336,0.01623608043833105
1.4009999999999565,0.06651204762125335,0.02054010714962298
1.6009999999999345,0.08881900760327284,0.021417601957139792
1.8009999999999124,0.09713455338896614,0.01303601980804547
2.0009999999998906,0.10812799983245995,-0.003372894112418525
2.2009999999998686,0.13836217429565953,-0.02002235727060944
2.4009999999998466,0.1620795239965255,-0.03843586662355729
2.6009999999998246,0.18830842532936956,-0.05531845821232108
2.8009999999998025,0.2051863405481476,-0.07377148750363532
3.0009999999997805,0.22761958410805921,-0.09142559361587164
3.2009999999997585,0.26145889444315884,-0.1110654330135267
3.4009999999997365,0.2851928667584685,-0.12267815237182388
3.6009999999997144,0.3058737488202154,-0.14795941422075243
3.8009999999996924,0.33533065202076484,-0.16996276360571708
4.000999999999671,0.3585304927699166,-0.19454488108636306
4.200999999999738,0.37930741183503225,-0.21344707018968648
4.400999999999804,0.4134210956216808,-0.24025183381456564
4.600999999999871,0.43011209047377347,-0.2605605253239009
4.800999999999938,0.4448716962719478,-0.27637456504606395
5.000000000000004,0.4768772336433032,-0.29886151604248523
5.200000000000071,0.5044335607733414,-0.3242596533311131
5.400000000000138,0.5358092644295678,-0.35167817724360034
5.600000000000205,0.5631604333646711,-0.3809690264667365
5.800000000000272,0.6037296705205896,-0.418606454160529
6.000000000000338,0.6328774833695556,-0.4466255111493371
6.200000000000405,0.6460989270971482,-0.472650920633849
6.400000000000472,0.6511485250466724,-0.4908333837352233
6.600000000000539,0.6530529459714803,-0.5160548934794945
6.800000000000606,0.6452376400615891,-0.5468974914850034
7.000000000000672,0.633625007537797,-0.5803624334466799
7.200000000000739,0.6129592653589694,-0.6218636744822291
7.400000000000806,0.5841615757392253,-0.672327868073033
7.600000000000873,0.5572345539214968,-0.7151443092094397
7.8000000000009395,0.5292264027842583,-0.7554169456019356
8.000000000001005,0.4989104364627858,-0.792358065104861
8.200000000000895,0.4702332818989848,-0.8244922367411607
8.400000000000784,0.43870844760043065,-0.8610861469241854
8.600000000000673,0.410889523491903,-0.8916426216654532
8.800000000000562,0.3838282948085623,-0.9238602442971692
9.000000000000451,0.3611488142744327,-0.9640545074902533
9.20000000000034,0.33796817711190197,-0.983800024553112
9.40000000000023,0.3153183914551182,-1.0051087313713314
9.600000000000119,0.2913166792881724,-1.0186532296790032
9.800000000000008,0.2665622772806215,-1.0464780918050298
10.000999999999896,0.2432785318490004,-1.0894980062293065
10.200999999999786,0.21975711096030479,-1.1197401609343474
10.400999999999675,0.1963761661691052,-1.153527998492153
10.600999999999564,0.16585639956094128,-1.1952650711209936
10.800999999999453,0.13183863250407246,-1.2233547280524981
11.000999999999342,0.10132164689591068,-1.2507042889226105
11.200999999999231,0.07277635065396128,-1.280311827805096
11.40099999999912,0.0481203419413772,-1.3241272405362652
11.60099999999901,0.024695145499402545,-1.3665582088020354
11.800999999998899,-0.0013288244595599328,-1.4005395841433348
12.000999999998788,-0.027132350789770464,-1.4318915674484196
12.200999999998677,-0.04997164241072088,-1.4617008648958714
12.400999999998566,-0.07704273583662337,-1.5041764072908645
12.600999999998455,-0.1037986773734848,-1.5516750705794728
12.800999999998345,-0.130139119563123,-1.594539691175628
13.000999999998234,-0.158555730273206,-1.644212164013253
13.200999999998123,-0.1909905103130491,-1.6944358123031684
13.400999999998012,-0.22984969245353484,-1.740166937961854
13.600999999997901,-0.27037496005382267,-1.7893081217798763
13.80099999999779,-0.3126874936510107,-1.8344377480393714
14.00099999999768,-0.35691236835039775,-1.8877865096068174
14.200999999997569,-0.40140593753149384,-1.943699513463121
14.400999999997458,-0.44520158704521773,-1.9972534791576286
14.600999999997347,-0.48281880856956527,-2.0612559840968534
14.800999999997236,-0.5203719199395552,-2.118665570856563
15.000999999997125,-0.5526441315340589,-2.1618202102808612
15.200999999997014,-0.578808553715517,-2.197293059813951
15.400999999996904,-0.6034317885956152,-2.2347094608065388
15.600999999996793,-0.6291236773328309,-2.2669822906022645
15.800999999996682,-0.6517413393070459,-2.3088699417015324
16.000999999996573,-0.6713415532356826,-2.3553744900639804
16.200999999996817,-0.6937632151306089,-2.40255977536403
16.40099999999706,-0.7184876158465751,-2.440356844731954
16.600999999997306,-0.7399964821552335,-2.4856768748362783
16.80099999999755,-0.7601851901998792,-2.539385751446881
17.000999999997795,-0.7829996219554085,-2.591479357780313
17.20099999999804,-0.8116316753048999,-2.642821489944995
17.400999999998284,-0.8438206160759543,-2.68122863540576
17.60099999999853,-0.8713308588392111,-2.7224329144077974
17.800999999998773,-0.9008640483594549,-2.766227234740027
18.000999999999017,-0.9266498369498766,-2.802239834670351
18.20099999999926,-0.9493765995080544,-2.8221589990288094
18.400999999999506,-0.9634005541753518,-2.856897851204025
18.60099999999975,-0.975539081472289,-2.9079908807499364
18.799999999999994,-0.9924065519533019,-2.9509303318094453
19.000000000000238,-1.0143699699220745,-2.9829695429770826
19.200000000000482,-1.0445143267481944,-3.0173792889599533
19.400000000000727,-1.0794015647853779,-3.053716335213257
19.60000000000097,-1.107673210993893,-3.0900138300169977
19.800000000001216,-1.1333081496253568,-3.1389952450433585
20.00000000000146,-1.1707582508047583,-3.207221228495285
