Time (s),X (m),Y (m)
0.001,-0.00021570977506068912,0.0009345558501746678
0.20000000000000015,0.004895717456959709,-0.0001091207346124424
0.4000000000000003,0.0230090438694901,-0.018163563453859204
0.6000000000000004,0.054581438862545274,-0.03188834906750544
0.8000000000000006,0.09490196297306416,-0.052677562745881826
1.0000000000000007,0.14504417999768962,-0.050528758015614524
1.2009999999999785,0.1990880161095348,-0.0494058894041895
1.4009999999999565,0.25090856074705725,-0.04943317572284222
1.6009999999999345,0.30171756380346865,-0.06122589639594758
1.8009999999999124,0.3482525483411476,-0.08550160001948123
2.0009999999998906,0.3615946194342764,-0.13176969039554856
2.2009999999998686,0.3603004493477223,-0.1817581537587651
2.4009999999998466,0.3277421760617408,-0.2267622054314089
2.6009999999998246,0.2687678754672997,-0.25870119425564736
2.8009999999998025,0.20384751221899391,-0.28185836536819386
3.0009999999997805,0.13473173275136124,-0.27533865707614485
3.2009999999997585,0.0662877119968586,-0.24479987778020065
3.4009999999997365,0.001972958427403199,-0.21011072828411995
3.6009999999997144,-0.04798715169684926,-0.16925969875976102
3.8009999999996924,-0.06818337321335219,-0.1215947538911538
4.000999999999671,-0.05671940835655098,-0.06775627628971893
4.200999999999738,-0.014236847869096134,-0.01838244876430563
4.400999999999804,0.046231002360569824,0.018691513018713857
4.600999999999871,0.10825477127743385,0.047169966122762724
4.800999999999938,0.18112365079295134,0.043244601488283255
5.000000000000004,0.2535029893609823,0.03239030793778622
5.200000000000071,0.3085632031861221,-0.007539969515176569
5.400000000000138,0.34313112030739196,-0.06025917086694597
5.600000000000205,0.3459283655933657,-0.123333959332188
5.800000000000272,0.3298368161316593,-0.19366062055636113
6.000000000000338,0.28570920896963803,-0.2567509521273396
6.200000000000405,0.2270777363015942,-0.3025823760000322
6.400000000000472,0.1599343962158703,-0.31739651572283384
6.600000000000539,0.10141994899301492,-0.3029630258665689
6.800000000000606,0.050630910778868714,-0.2678881904197279
7.000000000000672,0.006389806381652034,-0.20727464274531188
7.200000000000739,-0.029231421591011383,-0.1251310093884001
7.400000000000806,-0.03416057945086538,-0.03662474688273007
7.600000000000873,-0.022195132216067576,0.04782330358153064
7.8000000000009395,0.021711372740177544,0.13083855348030626
8.000000000001005,0.08478807110371114,0.20682331104750512
8.200000000000895,0.16309748644752048,0.27130567089954155
8.400000000000784,0.2471410680872679,0.3152237256279274
8.600000000000673,0.3359836827409337,0.3241744149908711
8.800000000000562,0.42141808878629705,0.3071088620396542
9.000000000000451,0.5018258236152215,0.2606268905740696
9.20000000000034,0.5687674322119998,0.20149533915208748
9.40000000000023,0.6288011275477422,0.14199468036364646
9.600000000000119,0.6783120014124365,0.06674490250598324
9.800000000000008,0.7200502174484835,-0.008391247796846503
10.000999999999896,0.7523965099441532,-0.07892718343425033
10.200999999999786,0.7820058271616738,-0.15726051806717384
10.400999999999675,0.7848890423064101,-0.23860522895861622
10.600999999999564,0.7693871252435778,-0.3165577237269605
10.800999999999453,0.7302854111273143,-0.3767210232658503
11.000999999999342,0.685609152961955,-0.4353322997137934
11.200999999999231,0.6314948431564525,-0.46532605775993585
11.40099999999912,0.5716659293773831,-0.46281975001618314
11.60099999999901,0.5107443714350622,-0.4310501017838755
11.800999999998899,0.453439636776762,-0.3899306247389639
12.000999999998788,0.42354207318921167,-0.3371256817156561
12.200999999998677,0.430180325487311,-0.2742373121473995
12.400999999998566,0.456628007047263,-0.21170809431122006
12.600999999998455,0.494699972137004,-0.18310738021879697
12.800999999998345,0.5400908030838868,-0.19391345773855234
13.000999999998234,0.5819434225726222,-0.23168508351141356
13.200999999998123,0.6211791592611569,-0.2785338274081611
13.400999999998012,0.6544504911701408,-0.3478412929157223
13.600999999997901,0.689827253450154,-0.42062349568394325
13.80099999999779,0.7165787766340309,-0.5000194436596775
14.00099999999768,0.7399518121631038,-0.57929478936666
14.200999999997569,0.7491551075698065,-0.6603536622749678
14.400999999997458,0.7421395333851803,-0.737563163956122
14.600999999997347,0.705927872312011,-0.7908525789608912
14.800999999997236,0.6595648353184684,-0.8115675196680272
15.000999999997125,0.6070029341950207,-0.8037726232916099
15.200999999997014,0.5515116874201998,-0.7832446910438655
15.400999999996904,0.50091953164546,-0.7441489232983789
15.600999999996793,0.461124083160794,-0.6936483712073751
15.800999999996682,0.4188531062997284,-0.6353232425003947
16.000999999996573,0.3869837035211397,-0.5723278215817994
16.200999999996817,0.39620323460543466,-0.51069302415946
16.40099999999706,0.4344788115814083,-0.46147452358736496
16.600999999997306,0.4768360582255292,-0.4336512364034833
16.80099999999755,0.5261322283996331,-0.4360463346346759
17.000999999997795,0.5746986914252129,-0.4755247192613688
17.20099999999804,0.6167569495789113,-0.5458867576416635
17.400999999998284,0.6386755446615436,-0.6268104484457749
17.60099999999853,0.6529014464256452,-0.7048041722240019
17.800999999998773,0.6526679189524087,-0.7742472162172581
18.000999999999017,0.6147021727326831,-0.8236784866163794
18.20099999999926,0.5476433123631593,-0.837198734236131
18.400999999999506,0.481553718998865,-0.8062088541219039
18.60099999999975,0.428491406609565,-0.7543166631936142
18.799999999999994,0.4091265063181234,-0.6915112612467703
19.000000000000238,0.4103009957429013,-0.6291784000659544
19.200000000000482,0.4369158152167257,-0.5756205083831553
19.400000000000727,0.4843391642803303,-0.5208428866506195
19.60000000000097,0.5423484937976971,-0.4869525153267843
19.800000000001216,0.6074269472776825,-0.4903721236441119
20.00000000000146,0.6773657865359531,-0.5041600415174546
