Time (s),X (m),Y (m)
0.001,-0.0005698399629515257,-0.0006628221997479689
0.20000000000000015,0.006572556540230036,0.003310034256981962
0.4000000000000003,0.013038013891395518,0.007173887243416627
0.6000000000000004,0.021611796266135307,0.010287334978552633
0.8000000000000006,0.04493056040151432,0.01915076668860372
1.0000000000000007,0.06544557500933819,0.021542915337391264
1.2009999999999785,0.08968569598407544,0.02373510018653335
1.4009999999999565,0.11083594137131919,0.024476016455911725
1.6009999999999345,0.12377487020621743,0.013733891278836898
1.8009999999999124,0.13439243007194995,-0.005371642349523282
2.0009999999998906,0.14996292575481682,-0.029653315597327944
2.2009999999998686,0.18023270644939518,-0.05939150418344813
2.4009999999998466,0.20383556035278683,-0.09457401321777933
2.6009999999998246,0.229082476898022,-0.13314970253672848
2.8009999999998025,0.24642592226769539,-0.1694526273561673
3.0009999999997805,0.2718770711899768,-0.20719321388110687
3.2009999999997585,0.3080205912866134,-0.2480444322211958
3.4009999999997365,0.3451685557622528,-0.2922080840324431
3.6009999999997144,0.3816214061134696,-0.33790941752811815
3.8009999999996924,0.41602977876488695,-0.38092921739069646
4.000999999999671,0.4576068000045865,-0.4119919318239344
4.200999999999738,0.509045741352015,-0.4254632110564343
4.400999999999804,0.5470619813176625,-0.4407123347869204
4.600999999999871,0.5742333616965378,-0.46382862259681995
4.800999999999938,0.5987856733994118,-0.49525356576654894
5.000000000000004,0.6353412080948736,-0.5306291573890853
5.200000000000071,0.6731687395896574,-0.5727025909420703
5.400000000000138,0.7182235767902398,-0.6219913543100277
5.600000000000205,0.7739919969999718,-0.6750252646454202
5.800000000000272,0.829535336826743,-0.7232762553412415
6.000000000000338,0.8692173371360724,-0.7670124266738672
6.200000000000405,0.9006109005567355,-0.8057483592526539
6.400000000000472,0.9292595637797805,-0.8520943195862837
6.600000000000539,0.962907159010075,-0.904610581665407
6.800000000000606,1.0038377868062551,-0.964060291620893
7.000000000000672,1.0492322096856173,-1.0275916880619116
7.200000000000739,1.0902518760291466,-1.0880809665094024
7.400000000000806,1.1323326627461106,-1.1502599538612135
7.600000000000873,1.170507561570587,-1.209665282604074
7.8000000000009395,1.203134724484465,-1.2666736576782665
8.000000000001005,1.227990820227886,-1.3159073413827012
8.200000000000895,1.2433573900170536,-1.367869344654011
8.400000000000784,1.2394895216851618,-1.4105821317177654
8.600000000000673,1.2246460513283492,-1.4606637545492802
8.800000000000562,1.2104252923527508,-1.5235093248101703
9.000000000000451,1.2031810290982712,-1.5898285365506553
9.20000000000034,1.1931233229867226,-1.6646350354586243
9.40000000000023,1.183614240821339,-1.74086488767446
9.600000000000119,1.1750527330864524,-1.8118251827807308
9.800000000000008,1.1652668275322957,-1.8801012335687428
10.000999999999896,1.1506155980403674,-1.9407698340430974
10.200999999999786,1.1275721697498422,-2.00418879761552
10.400999999999675,1.094735628659688,-2.0695734636838106
10.600999999999564,1.0481687568443467,-2.1363730200123094
10.800999999999453,0.9902395475424791,-2.199507333888117
11.000999999999342,0.9318879948534887,-2.247875749212734
11.200999999999231,0.875117498585091,-2.285871480534458
11.40099999999912,0.8222825641315641,-2.3231841191982814
11.60099999999901,0.7695870023404923,-2.3711532825199737
11.800999999998899,0.7190065566638878,-2.404620734098646
12.000999999998788,0.6679445230875647,-2.437419749937143
12.200999999998677,0.6138740525292435,-2.487400240988676
12.400999999998566,0.5561495650789191,-2.546679982077651
12.600999999998455,0.49424058350940137,-2.6114977508082102
12.800999999998345,0.4345764900272706,-2.6754315646111855
13.000999999998234,0.3871191124656772,-2.750962933840151
13.200999999998123,0.3450167377549536,-2.819127522544082
13.400999999998012,0.2984287253577304,-2.881495216725299
13.600999999997901,0.2541199142348338,-2.951074769636086
13.80099999999779,0.20739572434912495,-3.016141224764468
14.00099999999768,0.1716166551429172,-3.0895181905646303
14.200999999997569,0.14754402921691098,-3.165178143906898
14.400999999997458,0.12756325481947295,-3.229153206998047
14.600999999997347,0.11114836351797015,-3.2995028907835118
14.800999999997236,0.09531726266768305,-3.3597018375291112
15.000999999997125,0.07212225637832424,-3.418264691670498
15.200999999997014,0.04044237417092995,-3.463889505753496
15.400999999996904,-0.0012104891929876835,-3.510101813890452
15.600999999996793,-0.05642172107908458,-3.556098533767408
15.800999999996682,-0.10721386400315973,-3.5864321555548715
16.000999999996573,-0.1627200175325627,-3.6257339008856015
16.200999999996817,-0.21807340153849916,-3.6748200735021217
16.40099999999706,-0.2656723734364053,-3.7252670859872974
16.600999999997306,-0.3178241823695416,-3.7728747310070063
16.80099999999755,-0.37816533968165345,-3.8188406485694815
17.000999999997795,-0.4443824503365449,-3.871615042751467
17.20099999999804,-0.5109483388940722,-3.924631819873116
17.400999999998284,-0.5795357279714116,-3.965168662711719
17.60099999999853,-0.6474903397830379,-4.005961896830668
17.800999999998773,-0.7185964261809424,-4.045090341637439
18.000999999999017,-0.8009629133137849,-4.082217720824621
18.20099999999926,-0.8857868622841626,-4.110051559720007
18.400999999999506,-0.9673232979042703,-4.123485614259937
18.60099999999975,-1.038913703535413,-4.109032191016602
18.799999999999994,-1.106256834384279,-4.076669006890385
19.000000000000238,-1.1748181500769574,-4.04546498317134
19.200000000000482,-1.2454645143769836,-4.015007650892595
19.400000000000727,-1.309289676727205,-3.9985864689288886
19.60000000000097,-1.3721251697094654,-3.9808915795465447
19.800000000001216,-1.4298415701720864,-3.9532137929035667
20.00000000000146,-1.4860216948222333,-3.919832890877343
