Time (s),X (m),Y (m)
0.001,-0.0002955033697106609,-0.00089301793395481
0.20000000000000015,0.002805684771601952,0.0024461637499449008
0.4000000000000003,0.01736557596283243,0.006389955905731686
0.6000000000000004,0.042526488355248616,0.011131440222338853
0.8000000000000006,0.08352788475918795,0.03286886197635092
1.0000000000000007,0.1303704746348778,0.05299070757660842
1.2009999999999785,0.1819653431496951,0.06907473750828125
1.4009999999999565,0.2303314537345791,0.07743700176929783
1.6009999999999345,0.266721228087445,0.07450248524701304
1.8009999999999124,0.31364601439940476,0.0611839421832924
2.0009999999998906,0.3686059585654173,0.037098220969163244
2.2009999999998686,0.42280674780665184,0.020346068434640197
2.4009999999998466,0.47945626113799134,0.005683737722468407
2.6009999999998246,0.5286858384566853,-0.01862818115004508
2.8009999999998025,0.5645393948371791,-0.052090626309959885
3.0009999999997805,0.5875863300659991,-0.08695362578531507
3.2009999999997585,0.5863938680697555,-0.12137786138194492
3.4009999999997365,0.5698397956648654,-0.1495262747109219
3.6009999999997144,0.540035880794147,-0.19484606643459934
3.8009999999996924,0.4964423408852661,-0.24390617066240622
4.000999999999671,0.44439256321408543,-0.29557684675621243
4.200999999999738,0.3871831135579471,-0.3517316813556638
4.400999999999804,0.3308721055487639,-0.415035539676928
4.600999999999871,0.2795786136764047,-0.4976321107144722
4.800999999999938,0.22387643304493005,-0.5894554495052902
5.000000000000004,0.16484284860340806,-0.6703245818708977
5.200000000000071,0.10713770716889792,-0.7424503052744564
5.400000000000138,0.04259114748409084,-0.7996149791828873
5.600000000000205,-0.030952047626285343,-0.8551913127909536
5.800000000000272,-0.10831672886510396,-0.9069712666326109
6.000000000000338,-0.182073156560541,-0.9614801645158213
6.200000000000405,-0.25557529744952845,-1.0149779560052508
6.400000000000472,-0.33303605249322854,-1.0685734879514397
6.600000000000539,-0.41145077418191195,-1.123809063596851
6.800000000000606,-0.5019805659342943,-1.1711440452850106
7.000000000000672,-0.5992667293055105,-1.2174315895211019
7.200000000000739,-0.6739535117391554,-1.2461651101205231
7.400000000000806,-0.7525411669857971,-1.2484265661267206
7.600000000000873,-0.8211837432049006,-1.2393722578733335
7.8000000000009395,-0.8805890821131257,-1.2083050141891483
8.000000000001005,-0.9342236604820121,-1.1555444362631844
8.200000000000895,-0.974227693680575,-1.0941740465476433
8.400000000000784,-0.9778279289768135,-1.0322552018659248
8.600000000000673,-0.9462064868973697,-0.9764319209758517
8.800000000000562,-0.8879826550376,-0.9264372361997032
9.000000000000451,-0.8180990847163814,-0.8858281035391018
9.20000000000034,-0.7349028783250801,-0.8535174640177396
9.40000000000023,-0.6494989615244209,-0.8292916473607027
9.600000000000119,-0.5657657731375215,-0.8129494452281643
9.800000000000008,-0.48754102371591945,-0.8119355578867995
10.000999999999896,-0.41498107767643394,-0.830770490838911
10.200999999999786,-0.3342596522245788,-0.8581682921006466
10.400999999999675,-0.2430686183132484,-0.8941438900484775
10.600999999999564,-0.15506399889899578,-0.9378353668525233
10.800999999999453,-0.07562828423451694,-0.9733870888980845
11.000999999999342,0.0041686740054614965,-1.0120129384252083
11.200999999999231,0.07775660176355553,-1.046225738291157
11.40099999999912,0.15404783961676746,-1.0689366285509712
11.60099999999901,0.234733258421717,-1.0918087314818663
11.800999999998899,0.3164009916684118,-1.1275694666027978
12.000999999998788,0.38761666180236465,-1.184132248099556
12.200999999998677,0.4488852570100139,-1.2567435443662875
12.400999999998566,0.5252204555945933,-1.3351748123240423
12.600999999998455,0.6034444302397486,-1.4041965650790595
12.800999999998345,0.6556792628819207,-1.4691093577754792
13.000999999998234,0.6969555429895017,-1.5415776852005003
13.200999999998123,0.7168373013438967,-1.6125087083741032
13.400999999998012,0.6984975933226883,-1.6716941156702638
13.600999999997901,0.6565464666538406,-1.7140396252578922
13.80099999999779,0.623237597659802,-1.7334450990115375
14.00099999999768,0.5818619025119424,-1.722639332932113
14.200999999997569,0.5303851071985622,-1.7114949077483006
14.400999999997458,0.4883069853043234,-1.6931569422703543
14.600999999997347,0.4465190445033684,-1.6515768058651623
14.800999999997236,0.4043067013014158,-1.5919022239526834
15.000999999997125,0.35560278495228614,-1.5116146350292783
15.200999999997014,0.31000205948994547,-1.4178818126955495
15.400999999996904,0.2676556701278591,-1.3268071620520794
15.600999999996793,0.23279183808185586,-1.2375792969388297
15.800999999996682,0.21608614655162095,-1.154778319473103
16.000999999996573,0.2190222706631794,-1.0983707836333296
16.200999999996817,0.24443705035907165,-1.065189388488311
16.40099999999706,0.26686007721089255,-1.0660410325736638
16.600999999997306,0.28422217781652126,-1.0918326081358314
16.80099999999755,0.3056405455494477,-1.1402845042122274
17.000999999997795,0.3516404151587975,-1.2032808762164013
17.20099999999804,0.42113097933147875,-1.2713050206220222
17.400999999998284,0.5105751119275928,-1.3426721497826657
17.60099999999853,0.5907669954777877,-1.4031563510402414
17.800999999998773,0.652144316110843,-1.4617800664727978
18.000999999999017,0.7073701895270952,-1.5272912903472757
18.20099999999926,0.7594366744706917,-1.5986376464840806
18.400999999999506,0.8158330495311303,-1.665995767685385
18.60099999999975,0.87438456677866,-1.7347022433716852
18.799999999999994,0.9258110883553283,-1.807382453930463
19.000000000000238,0.9833507584911976,-1.8894433830927446
19.200000000000482,1.0415313709120075,-1.974861814120624
19.400000000000727,1.1049520359182992,-2.0593969280619624
19.60000000000097,1.1670054063278144,-2.148725461844073
19.800000000001216,1.2217575688586324,-2.2401289451005324
20.00000000000146,1.2858149761453608,-2.347276771035042
