Time (s),X (m),Y (m)
0.001,0.0001302085367132322,-0.0010272443824616275
0.20000000000000015,0.0020550720591104915,0.0025035182604944786
0.4000000000000003,0.005174331826391864,-0.00603576616078148
0.6000000000000004,0.019430245523447385,-0.011600264103076761
0.8000000000000006,0.04598757172941406,-0.002534397035445637
1.0000000000000007,0.07888647137449277,-0.007382110979132401
1.2009999999999785,0.1149880530536861,-0.02523520104852984
1.4009999999999565,0.14825195650611783,-0.04816797057708156
1.6009999999999345,0.19046021979445782,-0.07126875163525295
1.8009999999999124,0.2454875701826233,-0.0896962374336942
2.0009999999998906,0.30488091735920636,-0.11311158073225677
2.2009999999998686,0.3481006838875636,-0.1624728832395042
2.4009999999998466,0.3679537545180607,-0.21661373666539044
2.6009999999998246,0.36821788512650044,-0.27958665606345107
2.8009999999998025,0.3526989115959867,-0.3390589994831022
3.0009999999997805,0.32086955147355706,-0.3692488039046895
3.2009999999997585,0.2772180171328209,-0.3862070025486198
3.4009999999997365,0.2306540343020081,-0.3867635732945072
3.6009999999997144,0.19921127133053,-0.37078893017354625
3.8009999999996924,0.19283425135359727,-0.3435609403621668
4.000999999999671,0.19971442738008846,-0.3041648859687175
4.200999999999738,0.22302034963023312,-0.2616817024738611
4.400999999999804,0.25105608940443574,-0.21366044455418326
4.600999999999871,0.28011066165978554,-0.1625918485420199
4.800999999999938,0.30942728531137853,-0.10623424696689991
5.000000000000004,0.3546087703436949,-0.06069547168879209
5.200000000000071,0.41279028323223216,-0.032835939916456745
5.400000000000138,0.4961773881315776,-0.024212527264756895
5.600000000000205,0.5649864489270701,-0.02964772508937665
5.800000000000272,0.6257554492550115,-0.05696339728636438
6.000000000000338,0.6631089849551323,-0.09310928231167412
6.200000000000405,0.6778101444157617,-0.13123213125268565
6.400000000000472,0.6629080823284028,-0.15743969848382017
6.600000000000539,0.6275007156478732,-0.1795922271528457
6.800000000000606,0.5839035359881862,-0.18393725684790155
7.000000000000672,0.5402172018648532,-0.17724646508946149
7.200000000000739,0.502194162367462,-0.15880208004266605
7.400000000000806,0.46729815781902095,-0.12560017034521836
7.600000000000873,0.46527850328340997,-0.08172689716862286
7.8000000000009395,0.4759373393806843,-0.03577030331826798
8.000000000001005,0.47822983210717357,0.026708593795893777
8.200000000000895,0.49454175992412236,0.07545882548041177
8.400000000000784,0.5283550480767871,0.11961007222696962
8.600000000000673,0.5798010050883763,0.15575573673552764
8.800000000000562,0.6413411100737296,0.18429140298340552
9.000000000000451,0.7019180887158406,0.1937742249177679
9.20000000000034,0.7290651020159915,0.17316664009128596
9.40000000000023,0.7347413133430053,0.12941144214179806
9.600000000000119,0.728638302134502,0.08976456153182343
9.800000000000008,0.7050012614279497,0.07603573565337636
10.000999999999896,0.6633990843823395,0.06384693138628762
10.200999999999786,0.6178935663827222,0.06865774943162727
10.400999999999675,0.575625067055816,0.08788632523546007
10.600999999999564,0.5516446463430059,0.12437703728183501
10.800999999999453,0.540959316013485,0.17413424829092866
11.000999999999342,0.5434054790927174,0.21153663264167244
11.200999999999231,0.5629769395102383,0.2224969524292098
11.40099999999912,0.6007608267397085,0.22221590791583884
11.60099999999901,0.6489711441270507,0.21584317772256223
11.800999999998899,0.702933431407434,0.1979006815584993
12.000999999998788,0.7612746717377072,0.16811053198138465
12.200999999998677,0.8056582590023684,0.1281664813761879
12.400999999998566,0.8361128892738952,0.07541540027818937
12.600999999998455,0.8571753578599164,0.016333541521044874
12.800999999998345,0.8557513759161307,-0.027648435723000176
13.000999999998234,0.8345187697983282,-0.060468782023018926
13.200999999998123,0.8050141977349679,-0.08384359289021193
13.400999999998012,0.7653470476374812,-0.09281637420398836
13.600999999997901,0.7196518448607542,-0.09839548596231966
13.80099999999779,0.6561390196590786,-0.10778816333201086
14.00099999999768,0.5900351256471033,-0.10547179208562413
14.200999999997569,0.5297490256098809,-0.09595388750309858
14.400999999997458,0.4828864194890108,-0.06889059851685307
14.600999999997347,0.44974442248371027,-0.026427127335921577
14.800999999997236,0.42068858055026065,0.033298752058173973
15.000999999997125,0.40650615827685643,0.1043777295813962
15.200999999997014,0.39736683897392727,0.17681664079095505
15.400999999996904,0.40286757718138977,0.2424776251902422
15.600999999996793,0.4194329495506444,0.2986097763841937
15.800999999996682,0.458061576109272,0.3249014593719907
16.000999999996573,0.5114197662159515,0.3301151136410685
16.200999999996817,0.572693451019604,0.3336305480949712
16.40099999999706,0.6382814204104847,0.3373986323544746
16.600999999997306,0.7067738491263602,0.32827701360426553
16.80099999999755,0.774576859682881,0.31539795825237354
17.000999999997795,0.8320812097966683,0.30393100097661774
17.20099999999804,0.8556587732161233,0.2826659561100783
17.400999999998284,0.8556100068572529,0.24483322945217656
17.60099999999853,0.8434145205731998,0.19032265927358405
17.800999999998773,0.8238736868540466,0.15623646651139086
18.000999999999017,0.7959795273623649,0.14489335018259009
18.20099999999926,0.7670486784144548,0.16135063023663954
18.400999999999506,0.7450945217102126,0.20228375274383215
18.60099999999975,0.7279943673701832,0.2582724854494545
18.799999999999994,0.7283398670174408,0.31258293562448036
19.000000000000238,0.747965194149486,0.344277778774999
19.200000000000482,0.7740459975060872,0.35248772743091417
19.400000000000727,0.8112878628610893,0.3448327708955987
19.60000000000097,0.8478106717123336,0.33064846832436
19.800000000001216,0.8646595549352314,0.31027420447443754
20.00000000000146,0.8646454690563362,0.27656229045757347
