Time (s),X (m),Y (m)
0.001,-0.00037137305770231177,-0.0008446836120385868
0.20000000000000015,0.0010616215284691487,0.0009841336076026914
0.4000000000000003,0.0016713707095932855,-0.0007418884834155642
0.6000000000000004,0.0038334236104016215,-0.0020044587016037592
0.8000000000000006,0.005397634071379905,-0.00399783404013096
1.0000000000000007,0.01296462455978076,0.007159487148071795
1.2009999999999785,0.017810891095122298,0.00805708723982821
1.4009999999999565,0.021156888238974814,0.00699721994098959
1.6009999999999345,0.02338780518371893,0.0036708146772354965
1.8009999999999124,0.02962750115656449,0.013844858584128233
2.0009999999998906,0.03608321832939288,0.02055726560896967
2.2009999999998686,0.04062996971295832,0.020458793578087192
2.4009999999998466,0.0433579992928755,0.013632728140661807
2.6009999999998246,0.04764521758416714,0.01809771550904866
2.8009999999998025,0.05119453536350948,0.01092754570187662
3.0009999999997805,0.05382894971396891,0.007724438953640212
3.2009999999997585,0.056993490835074725,0.00427593444329523
3.4009999999997365,0.06234413762735143,0.0073125004863949915
3.6009999999997144,0.06758718424330949,0.0009024233146313734
3.8009999999996924,0.07041751067222259,0.008424894953157689
4.000999999999671,0.07614074985133275,0.0038419908458929048
4.200999999999738,0.08030892438945025,0.007467223040112273
4.400999999999804,0.08290025736545148,0.009546051089175243
4.600999999999871,0.08674258558087755,0.014740880001950691
4.800999999999938,0.09045618080476754,0.01258054602026171
5.000000000000004,0.09254299582647516,0.015414493180617881
5.200000000000071,0.09863024228768603,0.015793458135549165
5.400000000000138,0.10524285416302769,0.011671509218169677
5.600000000000205,0.10647580103574135,0.018684807599952495
5.800000000000272,0.10953709750750189,0.02079616536003789
6.000000000000338,0.11447264875902549,0.021441974170869203
6.200000000000405,0.12105176660773953,0.01655544470382927
6.400000000000472,0.12767591816469803,0.015139229870470707
6.600000000000539,0.13529145232155546,0.009943549268548948
6.800000000000606,0.14063831432793894,0.008887032187831002
7.000000000000672,0.1451544741350723,0.012273591241449886
7.200000000000739,0.15313576392936937,0.010586974437446292
7.400000000000806,0.16039316252210972,0.00575565675982562
7.600000000000873,0.16635356111056981,0.00398943059643828
7.8000000000009395,0.1699640128509634,0.00934722108416716
8.000000000001005,0.17792706175996575,0.0075412852985567375
8.200000000000895,0.1853081264644707,0.005277305217977271
8.400000000000784,0.1917302143240917,0.0076827761299175425
8.600000000000673,0.199630936877621,0.0051447295586460945
8.800000000000562,0.2053758767569796,0.007711344395506461
9.000000000000451,0.21325329817945257,0.006837094176270748
9.20000000000034,0.22030709362872455,0.006281108277358963
9.40000000000023,0.2259396697027092,0.009777780130995487
9.600000000000119,0.23366465508472353,0.009511741968697498
9.800000000000008,0.2418715976083254,0.008068730942283013
10.000999999999896,0.24662995356337064,0.009923650541226476
10.200999999999786,0.2509086615032048,0.014959229994863422
10.400999999999675,0.2587417901504896,0.01541772242564568
10.600999999999564,0.26603288761736543,0.016836633051938145
10.800999999999453,0.2738298706122334,0.01771387305840918
11.000999999999342,0.28012645746379694,0.019513025557324416
11.200999999999231,0.2877841586715377,0.02038625528206904
11.40099999999912,0.2933009809862923,0.02362549250594258
11.60099999999901,0.29895147351875206,0.026649913929672683
11.800999999998899,0.30677098321064294,0.02806088612564906
12.000999999998788,0.3087916574911976,0.03273111751572656
12.200999999998677,0.3118620362259565,0.03820417661994244
12.400999999998566,0.3195055788959691,0.04043023074755693
12.600999999998455,0.3248921935049464,0.0439505171678882
12.800999999998345,0.3229469957040281,0.04992709883683494
13.000999999998234,0.32968234227393856,0.053855625171269135
13.200999999998123,0.33073475063430086,0.057938989199450446
13.400999999998012,0.32699463833203507,0.06417460366666813
13.600999999997901,0.3325819804689537,0.06988630726232338
13.80099999999779,0.33748291899767113,0.07558373622021095
14.00099999999768,0.3413180643236065,0.08250189587926343
14.200999999997569,0.33600738700230043,0.08717710263000536
14.400999999997458,0.33898251928817086,0.09375883865917503
14.600999999997347,0.33433809912703116,0.09797758151509596
14.800999999997236,0.3312613820819827,0.10214046941772341
15.000999999997125,0.3340308668744408,0.10945233800225547
15.200999999997014,0.32877179722438366,0.11166528864904801
15.400999999996904,0.3302178542123601,0.11782508802489362
15.600999999996793,0.319862045982946,0.11874353490963765
15.800999999996682,0.3202887563446476,0.1264284218273499
16.000999999996573,0.324117636724966,0.13424694180134703
16.200999999996817,0.32499534892873017,0.13763890100597578
16.40099999999706,0.32508840758924507,0.14366579925815423
16.600999999997306,0.3272856149667048,0.15186541424233208
16.80099999999755,0.3312371238446574,0.15867995400842946
17.000999999997795,0.33380103313728415,0.16485385530114968
17.20099999999804,0.336883816203289,0.17200529038815723
17.400999999998284,0.3380085668548721,0.17890647708244703
17.60099999999853,0.34151935928613647,0.18674882394913922
17.800999999998773,0.34159666279396483,0.19328744647791496
18.000999999999017,0.34427753668586253,0.20127484323413047
18.20099999999926,0.3439613708940096,0.20764893074506718
18.400999999999506,0.3439844818443549,0.2154975752945782
18.60099999999975,0.3447069367279105,0.22261454748269108
18.799999999999994,0.34566754279058753,0.23010121006928963
19.000000000000238,0.3466839524997384,0.2379527982231734
19.200000000000482,0.34680304556512526,0.24533516286994672
19.400000000000727,0.3466353912496264,0.2527143298191531
19.60000000000097,0.3465635361963831,0.26077293643161165
19.800000000001216,0.3472076523130539,0.26827400980758753
20.00000000000146,0.3463451099551227,0.27503745976485544
