Time (s),X (m),Y (m)
0.001,-0.0003713730577023104,0.0008446836120385872
0.20000000000000015,0.0049107885506515115,-0.005863611338477203
0.4000000000000003,0.014567216431097554,-0.012821731586762938
0.6000000000000004,0.026588124463357617,-0.017718808811301202
0.8000000000000006,0.04298677919147276,-0.02273155647885426
1.0000000000000007,0.06405458728309493,-0.04269475677006036
1.2009999999999785,0.08381572761387442,-0.059061542868705075
1.4009999999999565,0.10629867395939968,-0.07812809367259489
1.6009999999999345,0.1324717406845561,-0.09990748925863722
1.8009999999999124,0.1539152196992035,-0.11855108487301212
2.0009999999998906,0.17658038104613777,-0.14231251626587418
2.2009999999998686,0.20159499677700582,-0.1625414124251363
2.4009999999998466,0.2201567138701042,-0.18029868649945496
2.6009999999998246,0.23735552686508213,-0.20137034035519527
2.8009999999998025,0.25049096615793454,-0.21965533126971423
3.0009999999997805,0.26766804193223487,-0.22821327452992438
3.2009999999997585,0.27604799092090165,-0.25195640315510953
3.4009999999997365,0.2805278375822709,-0.2832612111360596
3.6009999999997144,0.2959245669492675,-0.3096062735822736
3.8009999999996924,0.3178740708885247,-0.3304590626461221
4.000999999999671,0.33456871608086053,-0.3509894991174247
4.200999999999738,0.35050117021864696,-0.37799500997659463
4.400999999999804,0.35977754976623055,-0.4133733784264849
4.600999999999871,0.36780475848285854,-0.4470326063604615
4.800999999999938,0.38586322664723344,-0.4767322382048015
5.000000000000004,0.40605998740330784,-0.4950303950105198
5.200000000000071,0.425772404847948,-0.5176556189521098
5.400000000000138,0.4384093110034444,-0.5397366915501296
5.600000000000205,0.45428273771841865,-0.5498787479648132
5.800000000000272,0.47056807556933816,-0.570291190991901
6.000000000000338,0.4887353658252708,-0.5860268285799183
6.200000000000405,0.5067275563761083,-0.6172034177020684
6.400000000000472,0.5264297997189329,-0.6484609992251651
6.600000000000539,0.5420996768249514,-0.683448167668892
6.800000000000606,0.5608555117744664,-0.7086185987284973
7.000000000000672,0.5777722588598322,-0.7274039449094133
7.200000000000739,0.5825925290433717,-0.7593987556230651
7.400000000000806,0.5871919496102153,-0.7956769421004986
7.600000000000873,0.5868665875723101,-0.8317538652485971
7.8000000000009395,0.5884841005226067,-0.8689694257472178
8.000000000001005,0.5918739103419962,-0.9095302930463838
8.200000000000895,0.5853897170471927,-0.9524114378039532
8.400000000000784,0.5767058307065753,-0.9878896841565961
8.600000000000673,0.5434812449817732,-1.0096538088154607
8.800000000000562,0.5096024863095767,-1.0294914252307896
9.000000000000451,0.48294637282018776,-1.047323020090648
9.20000000000034,0.4626704837986326,-1.0671169418439121
9.40000000000023,0.431874723788943,-1.0767820574792768
9.600000000000119,0.4086635780029923,-1.093924589880224
9.800000000000008,0.38020529704536965,-1.1018404496106513
10.000999999999896,0.3485018260247058,-1.1106575977146258
10.200999999999786,0.3132171845293645,-1.117099137468542
10.400999999999675,0.2770186919215101,-1.1243556195717996
10.600999999999564,0.2507920232223627,-1.1378631714974725
10.800999999999453,0.22064058967507907,-1.1496771126925491
11.000999999999342,0.19105938281391005,-1.1673027309881896
11.200999999999231,0.16688677346981204,-1.1764760152196019
11.40099999999912,0.13999016461720895,-1.1702204682542674
11.60099999999901,0.11117384056290774,-1.1564860427252257
11.800999999998899,0.08569475784071003,-1.1339249936475548
12.000999999998788,0.06201913885190571,-1.1219213106267198
12.200999999998677,0.04618880264301707,-1.0950832355409437
12.400999999998566,0.03788066101564678,-1.0627152938592792
12.600999999998455,0.03270675212183405,-1.0334581176655102
12.800999999998345,0.014631813869988327,-1.0137750572843465
13.000999999998234,-0.0025800270714081493,-0.9925738984483813
13.200999999998123,-0.01790745488608827,-0.9767322346153211
13.400999999998012,-0.032668090512776304,-0.9587965395726817
13.600999999997901,-0.036381231710423304,-0.9315006013558439
13.80099999999779,-0.042689586935750014,-0.8937748931785884
14.00099999999768,-0.05452002637488328,-0.8541024668835067
14.200999999997569,-0.06362763599872398,-0.8191668290442654
14.400999999997458,-0.06179231714746708,-0.7829055944176126
14.600999999997347,-0.06317448641031904,-0.7544792366508913
14.800999999997236,-0.039132059079237065,-0.7290049107082045
15.000999999997125,-0.015474271383703997,-0.7042832971679787
15.200999999997014,0.003475840425742932,-0.6808645554945016
15.400999999996904,0.027855090442654235,-0.6649970835976473
15.600999999996793,0.05570889327579137,-0.6496780145304213
15.800999999996682,0.09486055675150887,-0.6305947012994596
16.000999999996573,0.12372284288019705,-0.6137382112416289
16.200999999996817,0.15158661232463178,-0.5902011479524627
16.40099999999706,0.17702212524265526,-0.5717050487870708
16.600999999997306,0.20360449353691376,-0.56024568765375
16.80099999999755,0.23216019094553295,-0.5439631467491108
17.000999999997795,0.2712040244722348,-0.531260171909358
17.20099999999804,0.3068344104613573,-0.5204968556952908
17.400999999998284,0.338515462129173,-0.5082559927930105
17.60099999999853,0.3674270593820088,-0.49651947311037864
17.800999999998773,0.3969681235334765,-0.48877769503950236
18.000999999999017,0.4361798980138835,-0.48455618927080196
18.20099999999926,0.46936477840756696,-0.476672547967996
18.400999999999506,0.5030791854509487,-0.4875610778344872
18.60099999999975,0.536506115537091,-0.5131826419128751
18.799999999999994,0.5616621128900208,-0.5500728386584165
19.000000000000238,0.5858494178192863,-0.5820701005086544
19.200000000000482,0.6096766849120865,-0.6154435045875885
19.400000000000727,0.6322791682451885,-0.6455724026736209
19.60000000000097,0.6428714065854783,-0.6890758839050204
19.800000000001216,0.6502361405331941,-0.7295531610694347
20.00000000000146,0.6607324041219412,-0.7610565287700606
