Time (s),X (m),Y (m)
0.001,-0.00013259955118837574,-0.0009689812320744441
0.20000000000000015,0.006039527259769946,0.00510305908666549
0.4000000000000003,0.015720074927049695,0.0073337540144132315
0.6000000000000004,0.03535631436097768,0.020898416666036628
0.8000000000000006,0.06201661465673969,0.02504811532405081
1.0000000000000007,0.0965055664045281,0.04165671317466743
1.2009999999999785,0.12970168969707188,0.045120611837358916
1.4009999999999565,0.16607279780201756,0.04536791653242341
1.6009999999999345,0.20427154235696038,0.04103731605230207
1.8009999999999124,0.23873122587948561,0.03628701505672711
2.0009999999998906,0.26879163926730903,0.026364147391599032
2.2009999999998686,0.29111908131561615,0.002323099976117905
2.4009999999998466,0.3129106847012605,-0.018804144342872538
2.6009999999998246,0.3420233479605697,-0.035174332637374225
2.8009999999998025,0.358837701674819,-0.05674646492243602
3.0009999999997805,0.3676841819098093,-0.08127844562534964
3.2009999999997585,0.380836970609655,-0.10593203806207634
3.4009999999997365,0.39859198002200114,-0.1313304947764576
3.6009999999997144,0.4191926437328457,-0.16585104329661823
3.8009999999996924,0.43443096064406433,-0.20665595328558325
4.000999999999671,0.4426758502284799,-0.24417364976070935
4.200999999999738,0.45554558086678903,-0.28358053803866395
4.400999999999804,0.46229131882226826,-0.32324049491360773
4.600999999999871,0.4757871557515753,-0.3634509800670823
4.800999999999938,0.49000922275687886,-0.40851744511157484
5.000000000000004,0.4972208770576378,-0.45934784324875255
5.200000000000071,0.49924575698324997,-0.5135981392360255
5.400000000000138,0.49734822295604725,-0.5578684806212797
5.600000000000205,0.5037879955732546,-0.6048223366788851
5.800000000000272,0.519653682639142,-0.6551240593120954
6.000000000000338,0.5359305309274982,-0.7029629305900569
6.200000000000405,0.5457284695724667,-0.7486513329151211
6.400000000000472,0.5530354753645407,-0.794376293708316
6.600000000000539,0.5707830711386671,-0.8397996235103649
6.800000000000606,0.5834148044667316,-0.8847790116649916
7.000000000000672,0.5884615620023971,-0.9246689903581834
7.200000000000739,0.5946861478619951,-0.9665044056757863
7.400000000000806,0.6128852676787535,-1.0162966858008842
7.600000000000873,0.627090726901017,-1.0609130597359542
7.8000000000009395,0.6374190880671191,-1.108777300388663
8.000000000001005,0.6409278151995511,-1.1515191824680449
8.200000000000895,0.6467873103253847,-1.1983654869332283
8.400000000000784,0.651770390160045,-1.2478527347893076
8.600000000000673,0.661982365141617,-1.3011589075568724
8.800000000000562,0.6720175859462509,-1.3592256211039468
9.000000000000451,0.6794304075672295,-1.4063969124707294
9.20000000000034,0.6777970842370513,-1.453289415794693
9.40000000000023,0.670645044114122,-1.4930228654466469
9.600000000000119,0.6712308854415866,-1.534924265343557
9.800000000000008,0.6975432966614902,-1.5837797780387068
10.000999999999896,0.7166114721794934,-1.6351369711082508
10.200999999999786,0.7306393648446068,-1.6838710766094973
10.400999999999675,0.7578317808181656,-1.7280935204671264
10.600999999999564,0.7579571844397485,-1.7700547202084524
10.800999999999453,0.7826107156948492,-1.8119893667376923
11.000999999999342,0.820542156787446,-1.8586473215305157
11.200999999999231,0.8542047561789609,-1.9087721838403136
11.40099999999912,0.8775448393245225,-1.960069015175211
11.60099999999901,0.9133408478487196,-2.011491018392194
11.800999999998899,0.9445515605221876,-2.0604993272896728
12.000999999998788,0.9731390061178954,-2.107750461882458
12.200999999998677,1.012908766955562,-2.1512659312698648
12.400999999998566,1.041290033087887,-2.1906608545600554
12.600999999998455,1.0649002745611074,-2.230898342943769
12.800999999998345,1.076942850474407,-2.2708676350598185
13.000999999998234,1.1001871756570083,-2.311815306270136
13.200999999998123,1.108869423028577,-2.358789556424597
13.400999999998012,1.1307244958124647,-2.4058609282952617
13.600999999997901,1.1556937945486356,-2.4536050320915446
13.80099999999779,1.174404260217861,-2.5034876648007054
14.00099999999768,1.1910983383650693,-2.5501662935397738
14.200999999997569,1.2059492810501171,-2.59837803527545
14.400999999997458,1.2303595861394798,-2.640843694582355
14.600999999997347,1.2648099975126748,-2.685305566404942
14.800999999997236,1.285887191346183,-2.7340570574119214
15.000999999997125,1.3038053600353092,-2.7764162057464015
15.200999999997014,1.325782785521796,-2.823668142303277
15.400999999996904,1.3506197327128817,-2.8688771426447492
15.600999999996793,1.387687710477811,-2.9097958249201716
15.800999999996682,1.41034276117587,-2.9510032754573627
16.000999999996573,1.4475456252352668,-2.9889774220855765
16.200999999996817,1.4788443082609144,-3.0286879201293666
16.40099999999706,1.512265805484747,-3.0702619394298196
16.600999999997306,1.5410838262219415,-3.1111074391705076
16.80099999999755,1.5685497727572453,-3.1534462657324136
17.000999999997795,1.5954139973644303,-3.1971999875112034
17.20099999999804,1.6317552938154336,-3.2366981159144843
17.400999999998284,1.6578680967597113,-3.273153065686042
17.60099999999853,1.688728033806668,-3.3093602683984433
17.800999999998773,1.7236721259685113,-3.345632760602823
18.000999999999017,1.7459717072581478,-3.385832703285993
18.20099999999926,1.7644105613697874,-3.4291399626581227
18.400999999999506,1.7807850062541015,-3.4706596053799457
18.60099999999975,1.8050889146305944,-3.5067214202754795
18.799999999999994,1.8340852098370435,-3.5437030157497853
19.000000000000238,1.874930416184741,-3.580644973710624
19.200000000000482,1.9205974040220701,-3.6116667421799598
19.400000000000727,1.9562956092861905,-3.6398513310053655
19.60000000000097,1.9942109876177192,-3.6657950576928324
19.800000000001216,2.0394950329065145,-3.6868410583076776
20.00000000000146,2.0974266949150375,-3.7049123754963373
