Time (s),X (m),Y (m)
0.001,0.000949226864630559,-0.0007291460897812452
0.20000000000000015,0.00232467778715458,-0.0002297685465648143
0.4000000000000003,0.004813101281709703,0.00028367050202716374
0.6000000000000004,0.01670282234460091,-0.006491705059646873
0.8000000000000006,0.03140119920296918,-0.019211045429712498
1.0000000000000007,0.03962674730218218,-0.027734800129243124
1.2009999999999785,0.04887258523490431,-0.03138535224065949
1.4009999999999565,0.05506911415075571,-0.027654808853191663
1.6009999999999345,0.06467003963550746,-0.029456533759912838
1.8009999999999124,0.07833735797574479,-0.03639034288406042
2.0009999999998906,0.08935419787442837,-0.02913926589836349
2.2009999999998686,0.10581323852307198,-0.02798152260865878
2.4009999999998466,0.11291793448836802,-0.025347132241005228
2.6009999999998246,0.12559443887700925,-0.02483856345329243
2.8009999999998025,0.13952820821553347,-0.02898071915212891
3.0009999999997805,0.15203657385669359,-0.028520152388576706
3.2009999999997585,0.16211519290980422,-0.025873521713220847
3.4009999999997365,0.1728380214048988,-0.0227122959652412
3.6009999999997144,0.18149203074532827,-0.021108179873747857
3.8009999999996924,0.1869811186575429,-0.01981157057047489
4.000999999999671,0.20339360512348575,-0.02379460151348219
4.200999999999738,0.21379761408054426,-0.018776714042723602
4.400999999999804,0.2174497248992018,-0.010281825056132683
4.600999999999871,0.23122166305862163,-0.008638048121749987
4.800999999999938,0.2512203161729847,-0.010553430471904796
5.000000000000004,0.26536962538842984,-0.007899727017241209
5.200000000000071,0.28156150988108136,-0.006917666402289234
5.400000000000138,0.3008726274309205,-0.0030500427914012893
5.600000000000205,0.3167895880522436,-0.0007504568718515305
5.800000000000272,0.3362494583338295,-0.0057503305652425365
6.000000000000338,0.3464434009614066,-0.004406308166109711
6.200000000000405,0.3499065336784059,0.008558911910286486
6.400000000000472,0.3654853944277659,0.016766248116922247
6.600000000000539,0.37711974220427513,0.024168999765320966
6.800000000000606,0.3907010539346374,0.028154504454396278
7.000000000000672,0.4054077490762153,0.02911646594675014
7.200000000000739,0.4145519692137922,0.033625362352323204
7.400000000000806,0.42552979353112114,0.03942205668093371
7.600000000000873,0.4389754815428766,0.04417897300045095
7.8000000000009395,0.455637796012556,0.04925168796821736
8.000000000001005,0.4649418901672325,0.05314546049210692
8.200000000000895,0.47936754170582196,0.058447338157400934
8.400000000000784,0.4900878343041988,0.0648428915860493
8.600000000000673,0.5054244240286229,0.06859866172322855
8.800000000000562,0.5186631860187302,0.07550629047428338
9.000000000000451,0.5341002360817859,0.08140880913657231
9.20000000000034,0.5473238402891959,0.0888912272936278
9.40000000000023,0.5577067497927347,0.0944390584737503
9.600000000000119,0.5726809208720873,0.09699547300198659
9.800000000000008,0.589439336115156,0.09974961152212411
10.000999999999896,0.6020197701399708,0.10378885348526856
10.200999999999786,0.6101863332985984,0.11139196746802135
10.400999999999675,0.6285456551866397,0.11664657769910168
10.600999999999564,0.641567062197867,0.12050757787035386
10.800999999999453,0.6556351658013126,0.12380060693912111
11.000999999999342,0.6682794507798535,0.12852450499909374
11.200999999999231,0.6823736694346572,0.13241385216316648
11.40099999999912,0.69611926833005,0.1333957045833877
11.60099999999901,0.7091824870292397,0.13376838462617807
11.800999999998899,0.7175327898899462,0.13581774258918114
12.000999999998788,0.7299117277709505,0.13914024392343258
12.200999999998677,0.7423814273356286,0.14213969576095964
12.400999999998566,0.7504238086774505,0.1485433529047744
12.600999999998455,0.7694605061919108,0.1510153521309536
12.800999999998345,0.7837976866371291,0.1556749070507169
13.000999999998234,0.7956578521395039,0.15924051524687208
13.200999999998123,0.811210409795042,0.1625815312323938
13.400999999998012,0.8268431820217151,0.16219317162716265
13.600999999997901,0.8412297472184521,0.15794342277746556
13.80099999999779,0.8509916735375601,0.1619975606444914
14.00099999999768,0.8682560919729229,0.16438166466665538
14.200999999997569,0.883808280387659,0.16695730970040043
14.400999999997458,0.8952209084330356,0.16905265813329712
14.600999999997347,0.9114593071788977,0.17410997026061603
14.800999999997236,0.9278991935031132,0.17599229290405352
15.000999999997125,0.9457661043653487,0.17544019389700793
15.200999999997014,0.9599290075149628,0.17420780408447428
15.400999999996904,0.9762991036508865,0.1768961998667977
15.600999999996793,0.9882030041225615,0.18685591123751982
15.800999999996682,1.000087515959942,0.1911274347023107
16.000999999996573,1.0131390210366344,0.19229764326942195
16.200999999996817,1.0238397421365417,0.19507343567945637
16.40099999999706,1.0393703152520577,0.1988509453901075
16.600999999997306,1.051665332112264,0.20250196950777208
16.80099999999755,1.0605285924587482,0.20413119708135408
17.000999999997795,1.0685137987817312,0.20793240402950866
17.20099999999804,1.0809758223494512,0.2127366059302192
17.400999999998284,1.1028727700849303,0.21655717916052272
17.60099999999853,1.123881631417987,0.2177717781749301
17.800999999998773,1.138057639846019,0.21864698020834428
18.000999999999017,1.159137808451745,0.2166071898008354
18.20099999999926,1.180146495401607,0.2163457429777856
18.400999999999506,1.2001538323682153,0.21705019665128109
18.60099999999975,1.2138183183520086,0.21831837099294713
18.799999999999994,1.225765980698411,0.22367846177500272
19.000000000000238,1.2450213014849494,0.2258825906401241
19.200000000000482,1.2620449638852556,0.22821292950909394
19.400000000000727,1.2758565403890099,0.23242205973358637
19.60000000000097,1.2860457660877067,0.23585255865240903
19.800000000001216,1.3025909838154799,0.2381817197722123
20.00000000000146,1.3073055553837032,0.24969096930165788
