Time (s),X (m),Y (m)
0.001,0.0011546366250239817,0.000435790549910003
0.20000000000000015,-0.0029393654075459048,-0.0006474993878490144
0.4000000000000003,0.0065278369876825655,0.0019547602434992583
0.6000000000000004,0.017715747837699535,0.006009378318571471
0.8000000000000006,0.02387783846892646,0.0024310538564282828
1.0000000000000007,0.03441709699024714,0.0023017756180437436
1.2009999999999785,0.047693941475282296,0.011327958214927408
1.4009999999999565,0.05946109185755356,0.02433581428533895
1.6009999999999345,0.06384500020150145,0.0371829169229656
1.8009999999999124,0.0777176048013196,0.042967470169140334
2.0009999999998906,0.10864506792526947,0.05005258507571569
2.2009999999998686,0.12518014324035923,0.05544001065229827
2.4009999999998466,0.12884030348249148,0.05168460729549261
2.6009999999998246,0.1369928414526156,0.046600660093505344
2.8009999999998025,0.1509090945175771,0.052510550345986465
3.0009999999997805,0.16692284500653876,0.05224618867008426
3.2009999999997585,0.1919443603729213,0.051953781569428384
3.4009999999997365,0.21331982595410412,0.04385308573647417
3.6009999999997144,0.23914445829122,0.03357878615170378
3.8009999999996924,0.2549440280030935,0.0222517018463003
4.000999999999671,0.27745156907490703,0.0064462559811501365
4.200999999999738,0.3121725421144914,-0.008956312222033355
4.400999999999804,0.351498760301423,-0.024101271336195593
4.600999999999871,0.3775604265778977,-0.044838396694432944
4.800999999999938,0.40601882794734684,-0.06747370739037681
5.000000000000004,0.4414684686023195,-0.08492693170189576
5.200000000000071,0.4621704110876376,-0.10549629663040415
5.400000000000138,0.4780413451798678,-0.126063824756346
5.600000000000205,0.4931968421442715,-0.14989793538951696
5.800000000000272,0.5292975750870443,-0.17750795812158685
6.000000000000338,0.5638036546334942,-0.1959634098673322
6.200000000000405,0.5941002784328734,-0.21317888951890032
6.400000000000472,0.6204373757714267,-0.2332904510526567
6.600000000000539,0.6404881340487135,-0.25270628475296314
6.800000000000606,0.6695713254744504,-0.27645006578531267
7.000000000000672,0.6982937669128839,-0.30685454837606785
7.200000000000739,0.7270227710007247,-0.3430114565701575
7.400000000000806,0.7522831713156843,-0.37605061105268955
7.600000000000873,0.7781733780509603,-0.40342424480388284
7.8000000000009395,0.8075150641575558,-0.42601334065772883
8.000000000001005,0.8401678804983335,-0.4524039456490033
8.200000000000895,0.8783594686863839,-0.4753665238902179
8.400000000000784,0.9262583186300253,-0.4948669434016628
8.600000000000673,0.94646742218853,-0.5112695621063169
8.800000000000562,0.9699871848655071,-0.5292234157049117
9.000000000000451,0.9965942108768212,-0.5431566430180789
9.20000000000034,1.0255157514579811,-0.5557878410127413
9.40000000000023,1.0754877397127738,-0.5680472535734067
9.600000000000119,1.0973678389341812,-0.5844597621502117
9.800000000000008,1.1154377042820642,-0.6043259056882113
10.000999999999896,1.1373018088504403,-0.6214941901726315
10.200999999999786,1.1560483873343241,-0.6306285088182606
10.400999999999675,1.1859948446306474,-0.6452250427341969
10.600999999999564,1.2174083860869331,-0.6661328262233179
10.800999999999453,1.2612261062507875,-0.6856349516378567
11.000999999999342,1.3061559362020723,-0.7086665486018721
11.200999999999231,1.3390608480879969,-0.7350248733478911
11.40099999999912,1.3721503460790982,-0.7597276621141524
11.60099999999901,1.3982933218659266,-0.7866060824157887
11.800999999998899,1.4337147573052182,-0.8085836786952291
12.000999999998788,1.4680285465038332,-0.8191033914895051
12.200999999998677,1.5087425301395918,-0.8264141158862807
12.400999999998566,1.5506309016297322,-0.8372910697204015
12.600999999998455,1.5849332756780055,-0.8528117414875965
12.800999999998345,1.6160882386104778,-0.866437442548252
13.000999999998234,1.660154125898862,-0.8760075071884744
13.200999999998123,1.7095305898082565,-0.888616157274515
13.400999999998012,1.7534012632031606,-0.9100765459539825
13.600999999997901,1.791101448882184,-0.9331244927930611
13.80099999999779,1.838717036271592,-0.9596224896806985
14.00099999999768,1.8717572546681343,-0.9887618918053376
14.200999999997569,1.8980352538614873,-1.0176220509751173
14.400999999997458,1.9247076918807828,-1.0486162892342739
14.600999999997347,1.9621849927561965,-1.0778586316263525
14.800999999997236,2.005096368445838,-1.1094867876477148
15.000999999997125,2.0385685753288305,-1.1412485641420473
15.200999999997014,2.0729074255656688,-1.1772192552650784
15.400999999996904,2.096159303044307,-1.2096016227545126
15.600999999996793,2.1320768815754887,-1.2419467081124573
15.800999999996682,2.156659248938897,-1.2689151767350721
16.000999999996573,2.1858164239875277,-1.2934564425385895
16.200999999996817,2.2200045008076623,-1.3171455455258771
16.40099999999706,2.2469564358740417,-1.3369905239107
16.600999999997306,2.280365469207954,-1.3481785339549033
16.80099999999755,2.3186342183561526,-1.3585475052532383
17.000999999997795,2.362540720462336,-1.369734221685067
17.20099999999804,2.390409510322807,-1.3798775346330159
17.400999999998284,2.4198070987152906,-1.3889666895031836
17.60099999999853,2.449001927060481,-1.3896106916293371
17.800999999998773,2.4984136824328758,-1.3913313274931998
18.000999999999017,2.549263605283201,-1.4027852304521238
18.20099999999926,2.609532041485961,-1.420198223486303
18.400999999999506,2.6582043670422224,-1.4384931874331583
18.60099999999975,2.6806425679112937,-1.4570098558473206
18.799999999999994,2.712723805543716,-1.4748799212781059
19.000000000000238,2.7514780310140443,-1.4937329821852514
19.200000000000482,2.7947589981849057,-1.512184304113805
19.400000000000727,2.827495763189772,-1.5342650630109274
19.60000000000097,2.8625773061107775,-1.5528458373787752
19.800000000001216,2.9149591673430693,-1.5651042799899073
20.00000000000146,2.958974963873186,-1.572182293282263
