Time (s),X (m),Y (m)
0.001,-0.0005090653149319316,0.0007291460897812449
0.20000000000000015,0.003866854036321699,-0.0014625750345610498
0.4000000000000003,0.018335652579056973,-0.009881804801965823
0.6000000000000004,0.041251020246436315,-0.007374804107558278
0.8000000000000006,0.06846733253094144,-0.005140298609474691
1.0000000000000007,0.10076757534351427,0.0030184335652611283
1.2009999999999785,0.13825477851987633,0.016158525237626134
1.4009999999999565,0.17726456789461625,0.03195599405588794
1.6009999999999345,0.22249291535163726,0.02819758235880765
1.8009999999999124,0.2627759901936454,-0.0012080581385477851
2.0009999999998906,0.29702496620773045,-0.05862311706436159
2.2009999999998686,0.3289502735537155,-0.10001096382181865
2.4009999999998466,0.34952935023438503,-0.14581634883536446
2.6009999999998246,0.34930923729741875,-0.2026832314830748
2.8009999999998025,0.334692125673007,-0.26534617430139723
3.0009999999997805,0.3224273432196402,-0.32645093416332155
3.2009999999997585,0.29294919522164276,-0.37233816049516066
3.4009999999997365,0.24450966828169285,-0.39833017599013076
3.6009999999997144,0.19144461954973038,-0.4127975806935759
3.8009999999996924,0.14521618087966048,-0.41630485906113696
4.000999999999671,0.10198950266114697,-0.4103544898281897
4.200999999999738,0.05332593946153037,-0.4014719041547921
4.400999999999804,0.0033343869399500184,-0.3844643769419988
4.600999999999871,-0.039503313208676206,-0.3521974289565587
4.800999999999938,-0.05895424417202389,-0.29848599623643146
5.000000000000004,-0.06752554608493136,-0.24157102465230904
5.200000000000071,-0.07073129059257537,-0.1830419368076999
5.400000000000138,-0.07735180618614254,-0.12080842673371661
5.600000000000205,-0.08444559254591778,-0.05473894439735021
5.800000000000272,-0.08117779124663323,0.016756562679047744
6.000000000000338,-0.04589771303444812,0.08053280928048703
6.200000000000405,-0.010225637600947888,0.12305968162461307
6.400000000000472,0.03153751039563602,0.1445740543860233
6.600000000000539,0.07298281417604888,0.1368531685964773
6.800000000000606,0.10007669997099428,0.10243589453233289
7.000000000000672,0.11305882715009798,0.05301938398246299
7.200000000000739,0.12326660193976699,0.006008170822321971
7.400000000000806,0.14132783119818101,-0.04425073814858577
7.600000000000873,0.1463607685552394,-0.09806087337481581
7.8000000000009395,0.14916914310521617,-0.16026483345212333
8.000000000001005,0.12375877186353193,-0.2233802369937896
8.200000000000895,0.08989282983301009,-0.2811579769199207
8.400000000000784,0.04997667357242151,-0.3297729141664371
8.600000000000673,-0.0026501576528167145,-0.36015591496260063
8.800000000000562,-0.058114285492550107,-0.3838004264526322
9.000000000000451,-0.10854688798943692,-0.4033093661497595
9.20000000000034,-0.16122458920681976,-0.4045087695918495
9.40000000000023,-0.21994060323664996,-0.38530665813272286
9.600000000000119,-0.2659941720499608,-0.3580948181295528
9.800000000000008,-0.29391995290256756,-0.3202353524520645
10.000999999999896,-0.3084275371615927,-0.27863775509497735
10.200999999999786,-0.2900504723809079,-0.23344252257658124
10.400999999999675,-0.23664836155328456,-0.19606661532145211
10.600999999999564,-0.17766889903973734,-0.16745258359698836
10.800999999999453,-0.11588761613158872,-0.1560504615610574
11.000999999999342,-0.057535183539251196,-0.18784673280140046
11.200999999999231,-0.015031711628582797,-0.2387030175654167
11.40099999999912,0.005886748715763909,-0.30236609399698056
11.60099999999901,0.01250584582211433,-0.37967922652619995
11.800999999998899,0.011103992466398888,-0.4523868639833938
12.000999999998788,-0.008906078376240991,-0.5184018056533649
12.200999999998677,-0.04848310681174742,-0.5732842052064694
12.400999999998566,-0.1014540484753697,-0.5984237152469886
12.600999999998455,-0.15810300672619124,-0.6010489439552437
12.800999999998345,-0.21620120970296816,-0.5725632385094924
13.000999999998234,-0.26705840056734786,-0.5373062901577762
13.200999999998123,-0.29324112595056506,-0.4943320736788341
13.400999999998012,-0.2966725896895199,-0.4367276782210155
13.600999999997901,-0.2886152068711074,-0.3785939181130109
13.80099999999779,-0.2713591318229113,-0.3285467168630484
14.00099999999768,-0.23663216715961816,-0.2971679201324509
14.200999999997569,-0.18358371969924855,-0.2831811323043991
14.400999999997458,-0.12078019856891499,-0.276228918757887
14.600999999997347,-0.051915651797759345,-0.28233578843305696
14.800999999997236,0.027638668077444445,-0.2989374835129912
15.000999999997125,0.10171236811650108,-0.31894455963985624
15.200999999997014,0.15585053305568805,-0.3546588194935361
15.400999999996904,0.1774916853286787,-0.40343957413446924
15.600999999996793,0.18142752123817918,-0.46598099427815115
15.800999999996682,0.1792829317241598,-0.5314251938483444
16.000999999996573,0.15826813553119562,-0.6097629764426904
16.200999999996817,0.12926122878485014,-0.6841212549208253
16.40099999999706,0.08501255893651309,-0.7409257989559925
16.600999999997306,0.019383787708953687,-0.7705004009319846
16.80099999999755,-0.04577798822826391,-0.7811726916941413
17.000999999997795,-0.09141715239772065,-0.7630657152136214
17.20099999999804,-0.10757924240493849,-0.7206176579614992
17.400999999998284,-0.09482535879349517,-0.6669364051693382
17.60099999999853,-0.06752442665467573,-0.6189500987052059
17.800999999998773,-0.029982443369088164,-0.5774235356449775
18.000999999999017,0.024824848038979493,-0.5646821584622027
18.20099999999926,0.08303519090081272,-0.5761435666139091
18.400999999999506,0.14508179783316444,-0.5849311200362741
18.60099999999975,0.20171808504080127,-0.6188694400536618
18.799999999999994,0.23812275271965988,-0.6615009792292543
19.000000000000238,0.2625855193115671,-0.7179337368013587
19.200000000000482,0.27900408491238615,-0.789085255187388
19.400000000000727,0.2843691111810193,-0.8619130464263919
19.60000000000097,0.28174475796790793,-0.9385992948270674
19.800000000001216,0.27845169541648723,-1.0034316756249577
20.00000000000146,0.27163114817495326,-1.0641749215761716
