Time (s),X (m),Y (m)
0.001,0.0010100015126501532,0.0006628221997479689
0.20000000000000015,0.001188987631217939,-0.000540543227643867
0.4000000000000003,0.006981371600071542,0.005423245651472451
0.6000000000000004,0.014576003792699738,0.004935282740306499
0.8000000000000006,0.01980542075460136,0.004720388557253225
1.0000000000000007,0.022113110193468663,0.008982066925652486
1.2009999999999785,0.030813355250932113,0.006487958361566031
1.4009999999999565,0.036186031735264065,0.0036737286551931435
1.6009999999999345,0.04893888928506919,0.011777513475972919
1.8009999999999124,0.05894650899128573,0.009859729551173575
2.0009999999998906,0.07339024348674929,0.011389863141425404
2.2009999999998686,0.0830713995546876,0.010221233443909192
2.4009999999998466,0.0946371658002851,0.015075395027148327
2.6009999999998246,0.10483093833678223,0.017128281535138522
2.8009999999998025,0.1145930979860289,0.017773093242231898
3.0009999999997805,0.12132538582058848,0.016858053599020203
3.2009999999997585,0.1335733564718783,0.016267538394956357
3.4009999999997365,0.15064269160808033,0.018515395929411895
3.6009999999997144,0.16743361065809342,0.017172246143338767
3.8009999999996924,0.17583219399023894,0.022431347624480187
4.000999999999671,0.18885937460033453,0.024611371639952032
4.200999999999738,0.2008304687529504,0.028965979669439024
4.400999999999804,0.21426519918778011,0.03609075581891785
4.600999999999871,0.2263784688502693,0.04053028026458392
4.800999999999938,0.23932381254736326,0.05164291994076901
5.000000000000004,0.2559562339634897,0.05894346012080935
5.200000000000071,0.2648549298616323,0.06688249135441268
5.400000000000138,0.2685394950821304,0.07332009733876362
5.600000000000205,0.2788980128599843,0.08458779940153448
5.800000000000272,0.2939151069148926,0.09040628640202333
6.000000000000338,0.3023680999634686,0.09940328447272462
6.200000000000405,0.31107437839377405,0.1082825804285148
6.400000000000472,0.31855189037925247,0.11957171564966337
6.600000000000539,0.3302433453372837,0.12760969473413925
6.800000000000606,0.3406513347714665,0.13732838413623097
7.000000000000672,0.3523084772178172,0.1460157412949184
7.200000000000739,0.3670998831108994,0.1561401308048852
7.400000000000806,0.3747896947033022,0.1756767953212183
7.600000000000873,0.38588078587963315,0.17912319486464479
7.8000000000009395,0.39370042027204766,0.1920071879265769
8.000000000001005,0.40351123564889485,0.20507142550323304
8.200000000000895,0.40974529107155006,0.21313518612282426
8.400000000000784,0.42032267019180086,0.21989849410586298
8.600000000000673,0.43060157449181097,0.22957285621918566
8.800000000000562,0.43935452868664193,0.2383029055066452
9.000000000000451,0.44897996755609537,0.2545146549117512
9.20000000000034,0.45498631163602465,0.27395555743698446
9.40000000000023,0.4605671804051178,0.29014957584540974
9.600000000000119,0.4685020894901179,0.30195296478443096
9.800000000000008,0.46879258074529534,0.31646538489212306
10.000999999999896,0.4710753699958774,0.3305294777593189
10.200999999999786,0.4781699788542995,0.3432453271151226
10.400999999999675,0.48260972478813924,0.3550285957846965
10.600999999999564,0.49080848654889814,0.3697494200765147
10.800999999999453,0.4954154532636283,0.3916760890392926
11.000999999999342,0.499992379449976,0.40738425783039767
11.200999999999231,0.5082560669518195,0.41946034111907626
11.40099999999912,0.5136107190383943,0.43140006112657625
11.60099999999901,0.5168204647196607,0.43918513172132684
11.800999999998899,0.5211303832673666,0.44971838904394695
12.000999999998788,0.5258661603598271,0.46548380194717803
12.200999999998677,0.5321003733751353,0.4730590412405727
12.400999999998566,0.5343076723373299,0.48049475707255246
12.600999999998455,0.5388134186238199,0.4912891068360267
12.800999999998345,0.5412260115871045,0.5079986724709518
13.000999999998234,0.5417399036183468,0.5272041992311132
13.200999999998123,0.5455933352374227,0.5396004914691765
13.400999999998012,0.5529270475824237,0.5551218060528912
13.600999999997901,0.555589318967293,0.575652178865244
13.80099999999779,0.5604230068497805,0.5913162241766757
14.00099999999768,0.5643875532390097,0.6096413939012799
14.200999999997569,0.5675088355640654,0.6292818217264823
14.400999999997458,0.5726958563766462,0.645831440306927
14.600999999997347,0.5753247297706989,0.6630017847192449
14.800999999997236,0.5818886345122286,0.6774152367021505
15.000999999997125,0.583269270906564,0.6938945217059536
15.200999999997014,0.5840935101629974,0.7098981226103134
15.400999999996904,0.5863075115715016,0.7246656715378742
15.600999999996793,0.5910595861485917,0.7386315116912867
15.800999999996682,0.5907759453359387,0.7554817568665597
16.000999999996573,0.5920313601624533,0.7712143515067215
16.200999999996817,0.5935802041310302,0.7792868220124565
16.40099999999706,0.5948131357915052,0.795324804480842
16.600999999997306,0.5925844226331745,0.8202265695974886
16.80099999999755,0.5901449593175941,0.8420564024718575
17.000999999997795,0.59202302010789,0.8597281250236242
17.20099999999804,0.5950895018832482,0.8744403589455567
17.400999999998284,0.5972325760770618,0.8973993234356666
17.60099999999853,0.5945995674693407,0.9206232047346592
17.800999999998773,0.5905829930668971,0.9449092436348965
18.000999999999017,0.584158010344264,0.9709724139271175
18.20099999999926,0.5869354611370388,0.9862009309210004
18.400999999999506,0.587108476197961,1.0022179681212793
18.60099999999975,0.5803292219513376,1.0227017213908312
18.799999999999994,0.5797836521660621,1.043064736511761
19.000000000000238,0.5776202545331831,1.0566767598846853
19.200000000000482,0.573063467134551,1.0768164149508161
19.400000000000727,0.5714737387511717,1.0914294781579812
19.60000000000097,0.5663117094129266,1.1085165727810529
19.800000000001216,0.5687675380748113,1.122828336149555
20.00000000000146,0.565576091296971,1.141144540411466
