Time (s),X (m),Y (m)
0.001,4.1020280575708355e-05,-0.0010155025257856578
0.20000000000000015,0.003140785230929391,0.004392418153491168
0.4000000000000003,0.013646326477834307,0.008203275215686848
0.6000000000000004,0.03906818594641582,0.00957444926674134
0.8000000000000006,0.07054126881838246,0.003875539479378427
1.0000000000000007,0.10588327170723401,-0.006749308702111045
1.2009999999999785,0.1461879244231392,-0.004558011370501143
1.4009999999999565,0.1802511838045073,-0.010713244453626534
1.6009999999999345,0.22875191077100834,-0.012704362164394167
1.8009999999999124,0.26091241052520187,-0.026353637349678678
2.0009999999998906,0.3001597097567815,-0.048595010073895065
2.2009999999998686,0.33699239318928037,-0.0765857593889205
2.4009999999998466,0.36492142043608516,-0.11158068675983768
2.6009999999998246,0.40901097359673283,-0.1572647678529128
2.8009999999998025,0.4335542983673235,-0.20910650711246165
3.0009999999997805,0.4274402677625508,-0.24170748089667254
3.2009999999997585,0.4115941950829474,-0.27294489625855556
3.4009999999997365,0.3971172638609365,-0.30386659170850655
3.6009999999997144,0.3741971405621227,-0.3351050042065074
3.8009999999996924,0.34240451694830026,-0.35722794133543895
4.000999999999671,0.30621994025830623,-0.37636208272233335
4.200999999999738,0.26063457772306264,-0.3799979706180919
4.400999999999804,0.20528681795358517,-0.38205908355139684
4.600999999999871,0.1565752244442666,-0.38127351119336517
4.800999999999938,0.1347046966122169,-0.3644150896117823
5.000000000000004,0.1327620657472397,-0.3348597140285044
5.200000000000071,0.13679130322142405,-0.2952389537393571
5.400000000000138,0.1513627732525048,-0.26213450247998404
5.600000000000205,0.17992753344498208,-0.2231885107553109
5.800000000000272,0.21770256330670526,-0.19719804628206822
6.000000000000338,0.2713475183710982,-0.18734689848500716
6.200000000000405,0.33444575686157507,-0.1928833754643954
6.400000000000472,0.4002823097503191,-0.20313979090765358
6.600000000000539,0.44037133069690526,-0.2238075229039861
6.800000000000606,0.4803472432116158,-0.2512235329278091
7.000000000000672,0.5113538335594361,-0.282088162206516
7.200000000000739,0.5205466827478786,-0.31924546715498525
7.400000000000806,0.5199696198169482,-0.3715057025465391
7.600000000000873,0.5117170350858752,-0.4324901199678623
7.8000000000009395,0.5036488423690215,-0.48637146503404494
8.000000000001005,0.48706889405122505,-0.5214385395618016
8.200000000000895,0.46129287121411816,-0.5422145281808696
8.400000000000784,0.4164786014101338,-0.5571663266591947
8.600000000000673,0.3552341142838903,-0.5662128781803306
8.800000000000562,0.28965973545060325,-0.5666939107614574
9.000000000000451,0.22347402135261057,-0.5580902342081377
9.20000000000034,0.1602374751282418,-0.5323515579706867
9.40000000000023,0.11380317547675582,-0.4921009315631632
9.600000000000119,0.07647323084515746,-0.4374635467269216
9.800000000000008,0.06451086660088422,-0.38474127240592193
10.000999999999896,0.06827480406726769,-0.32813086425027127
10.200999999999786,0.07657938630905717,-0.2670041068575983
10.400999999999675,0.09561680245369804,-0.21889811473715987
10.600999999999564,0.12603705559894762,-0.17766173517425476
10.800999999999453,0.16930589824677292,-0.1516417473854518
11.000999999999342,0.22285205892200471,-0.13145149275561302
11.200999999999231,0.2864386368494488,-0.11048484280163835
11.40099999999912,0.3501659952369072,-0.08494231603527362
11.60099999999901,0.3864023146936631,-0.06600928206599677
11.800999999998899,0.39560585341700893,-0.0733596905782933
12.000999999998788,0.40134757707025404,-0.10527887301274684
12.200999999998677,0.40869070784192274,-0.15502575319330156
12.400999999998566,0.403011825433956,-0.20319553804988152
12.600999999998455,0.39327309634855484,-0.24988187458965636
12.800999999998345,0.3716956969139481,-0.27147480551440695
13.000999999998234,0.3329312136554588,-0.27277748292081183
13.200999999998123,0.2913696841787765,-0.29768308676080324
13.400999999998012,0.24820214798562718,-0.30631270220692675
13.600999999997901,0.1958191399296167,-0.30823940968103763
13.80099999999779,0.13657054162637977,-0.3319178204020007
14.00099999999768,0.07817620438837725,-0.3545025405991593
14.200999999997569,0.020380152875401902,-0.3671600508787801
14.400999999997458,-0.042496541000178745,-0.38898995003191483
14.600999999997347,-0.09930649141887378,-0.3954119889107136
14.800999999997236,-0.1578940691663263,-0.4012860758390136
15.000999999997125,-0.22262547140743827,-0.4073257297787196
15.200999999997014,-0.27630619181222815,-0.4036474566626404
15.400999999996904,-0.327782432359258,-0.3946009580699224
15.600999999996793,-0.35844136781043867,-0.3733962390585029
15.800999999996682,-0.36294361884025456,-0.33286017946246826
16.000999999996573,-0.3599855785456404,-0.28653982460100796
16.200999999996817,-0.35081103669435215,-0.25795774412321565
16.40099999999706,-0.3224111768141415,-0.24871171928179006
16.600999999997306,-0.27787151970595336,-0.2256244475018405
16.80099999999755,-0.22803199467327273,-0.20551929000328958
17.000999999997795,-0.16694773725155562,-0.1949452711666226
17.20099999999804,-0.10638651792260577,-0.19207054001341367
17.400999999998284,-0.04181750329401539,-0.19461785834440828
17.60099999999853,0.03313089032010506,-0.1945442908921653
17.800999999998773,0.10160743651013686,-0.19065620451241733
18.000999999999017,0.17432757683390387,-0.1815955992194897
18.20099999999926,0.25236369561812955,-0.16115179857783932
18.400999999999506,0.32528840799858993,-0.15119255806493245
18.60099999999975,0.38676902882035274,-0.15606130070301016
18.799999999999994,0.4429639546751672,-0.16827664901308886
19.000000000000238,0.48912021972069214,-0.1932340930697105
19.200000000000482,0.5425840332166612,-0.21538584112419046
19.400000000000727,0.5808095229195331,-0.2556324460102142
19.60000000000097,0.6261188636912157,-0.30553898570922305
19.800000000001216,0.6913356541214482,-0.3489076434144328
20.00000000000146,0.7377615960561549,-0.38370919266316317
