Time (s),X (m),Y (m)
0.001,0.00013020853671323254,0.0010272443824616275
0.20000000000000015,0.003558093802475638,-0.00783027121827483
0.4000000000000003,0.008964647222339457,-0.009572950852494955
0.6000000000000004,0.025209208382088722,-0.0211233932555377
0.8000000000000006,0.04968122725866245,-0.03859368294482603
1.0000000000000007,0.0766673447111733,-0.062399712598188925
1.2009999999999785,0.1128219541609883,-0.0899280988181292
1.4009999999999565,0.14744279369202998,-0.12166683450391941
1.6009999999999345,0.1600910404612268,-0.15512512640669493
1.8009999999999124,0.1605290262346865,-0.1948581081157592
2.0009999999998906,0.15205076675041873,-0.23982475155511782
2.2009999999998686,0.12879043963910883,-0.2736245502666004
2.4009999999998466,0.08844395906967874,-0.2804393549681425
2.6009999999998246,0.038470666333422485,-0.26857576945049466
2.8009999999998025,0.001775847280522256,-0.23683240969360245
3.0009999999997805,-0.008360352558047183,-0.19444803783743683
3.2009999999997585,-0.009803780279728927,-0.14601984079431374
3.4009999999997365,0.0020474489177987323,-0.09360968798317315
3.6009999999997144,0.025987123076513068,-0.03767751094492864
3.8009999999996924,0.05687480296313121,0.019284543629000013
4.000999999999671,0.08861514970666516,0.07313937738567239
4.200999999999738,0.1275714612555271,0.11726702587211284
4.400999999999804,0.17325663565976904,0.1347458654417966
4.600999999999871,0.23298743762986582,0.13370160257202582
4.800999999999938,0.2931557351706789,0.13123847703615948
5.000000000000004,0.34888794602134243,0.11626218642372146
5.200000000000071,0.38901363241015663,0.08746331940662729
5.400000000000138,0.4061973269997909,0.051262543959977855
5.600000000000205,0.4001585031465159,0.018158709613053926
5.800000000000272,0.37747041834999906,-0.004613034580194369
6.000000000000338,0.33118921024978126,-0.02038405530899649
6.200000000000405,0.2733915879374233,-0.01700352391314796
6.400000000000472,0.22712306168775945,0.00633091206100044
6.600000000000539,0.19371682607959256,0.04539689426556972
6.800000000000606,0.18037786555508806,0.09284179307759707
7.000000000000672,0.19017538906059986,0.13986696771237983
7.200000000000739,0.20791950802249468,0.19496236268080808
7.400000000000806,0.24197434850401267,0.23310933255960753
7.600000000000873,0.2836644776555783,0.2441544477636999
7.8000000000009395,0.33696403487112536,0.24128150952969804
8.000000000001005,0.39482699968410884,0.2282331895236609
8.200000000000895,0.45815284550060087,0.2014964585571349
8.400000000000784,0.49908895872043546,0.16735367425394285
8.600000000000673,0.5076804753878935,0.12024051523445625
8.800000000000562,0.5040343858320631,0.05458084780858437
9.000000000000451,0.4903485639181356,-0.0069076374939952105
9.20000000000034,0.46201681567483366,-0.059332252873920306
9.40000000000023,0.42016600749505245,-0.07639600813288694
9.600000000000119,0.3717703512034414,-0.07397119221939981
9.800000000000008,0.35347838246605945,-0.05622585902989712
10.000999999999896,0.369550572330981,-0.017884073756542468
10.200999999999786,0.39100627892596346,0.02753605063233719
10.400999999999675,0.42101821389767474,0.06157315663079037
10.600999999999564,0.4637758393641977,0.062065999825068455
10.800999999999453,0.5131664937190272,0.04374228220208876
11.000999999999342,0.5654857239295009,0.015417949453231961
11.200999999999231,0.6106736036734127,-0.016536932233537145
11.40099999999912,0.6242657883749196,-0.0576668699636349
11.60099999999901,0.6122390643008208,-0.1106516043949413
11.800999999998899,0.5868082983982504,-0.1683568588464548
12.000999999998788,0.5512865765957539,-0.21912094503982785
12.200999999998677,0.5034484316295953,-0.26324147417519833
12.400999999998566,0.44603938152810507,-0.29537985497124103
12.600999999998455,0.389562835124008,-0.31778580264138406
12.800999999998345,0.32770865201306765,-0.31964896389179365
13.000999999998234,0.2620852398024132,-0.3015268252969746
13.200999999998123,0.19655233012750561,-0.2748829197968884
13.400999999998012,0.16212514329645905,-0.23578581110504174
13.600999999997901,0.16858477534660793,-0.19536796380311594
13.80099999999779,0.1880124150797997,-0.15506679267961054
14.00099999999768,0.21660903862851777,-0.14658209044850604
14.200999999997569,0.24507363155207143,-0.15820311770637147
14.400999999997458,0.2646721589201979,-0.19197095533829228
14.600999999997347,0.27041092258549465,-0.24456059542603986
14.800999999997236,0.26255326817445424,-0.3048841737339442
15.000999999997125,0.24034105663194377,-0.3571066851361475
15.200999999997014,0.20608626300149901,-0.405179797713086
15.400999999996904,0.1658412045098161,-0.4108011276623173
15.600999999996793,0.13384329569939857,-0.38723611113150636
15.800999999996682,0.09510194423945996,-0.35203485837074633
16.000999999996573,0.05767709242852311,-0.2992306040588796
16.200999999996817,0.043660749616137154,-0.23338489382270824
16.40099999999706,0.04873203966643406,-0.17572793803084857
16.600999999997306,0.07601316976273181,-0.13254371780409
16.80099999999755,0.1245781136770664,-0.1104847430232702
17.000999999997795,0.18100219475913157,-0.12023906523151504
17.20099999999804,0.23445101782289557,-0.14537004075958926
17.400999999998284,0.29367512634661497,-0.18105197450479596
17.60099999999853,0.3263460610579424,-0.22598809161879158
17.800999999998773,0.33078970909151256,-0.2718835890503932
18.000999999999017,0.31578726093912735,-0.3043618195970677
18.20099999999926,0.283133373902158,-0.31337022103978174
18.400999999999506,0.23770593366520706,-0.31692202537779485
18.60099999999975,0.18739231273326687,-0.3103336515375586
18.799999999999994,0.14390180732494837,-0.2937911212449094
19.000000000000238,0.11973027679157794,-0.26531135703388037
19.200000000000482,0.10403955388634926,-0.22255413231867732
19.400000000000727,0.08577837183839923,-0.16163724593990844
19.60000000000097,0.08176131327109833,-0.09384235057873877
19.800000000001216,0.08868055015465723,-0.027749815766781576
20.00000000000146,0.10849888127435245,0.02170733340145414
