Time (s),X (m),Y (m)
0.001,0.0006558713247593165,-0.0009345558501746678
0.20000000000000015,0.0035029088792878395,-0.0033449739889321807
0.4000000000000003,0.008342871461997423,-0.008336080262860498
0.6000000000000004,0.017810492985729134,-0.011727415550508647
0.8000000000000006,0.03028387327323911,-0.02367511302584407
1.0000000000000007,0.03563864881694498,-0.02123108401257751
1.2009999999999785,0.04199672740739008,-0.01680938698114939
1.4009999999999565,0.05581838688896016,-0.015219623512822454
1.6009999999999345,0.06391731255538141,-0.015367254531547057
1.8009999999999124,0.0700708732780838,-0.017903592318057993
2.0009999999998906,0.07564368098243412,-0.013806824734848705
2.2009999999998686,0.08516973694469,-0.015515953242803877
2.4009999999998466,0.09020855148774301,-0.018438983137961242
2.6009999999998246,0.09860685056131598,-0.03057155768807146
2.8009999999998025,0.10715992427677368,-0.033054163536616485
3.0009999999997805,0.11540587808370141,-0.023792760617011386
3.2009999999997585,0.12711066540522298,-0.03208511787939022
3.4009999999997365,0.13603517309122692,-0.035068793664386554
3.6009999999997144,0.14441925480286028,-0.03986831850702408
3.8009999999996924,0.15236985814875603,-0.050351042210553844
4.000999999999671,0.15752727797743585,-0.05772216150554253
4.200999999999738,0.16048570702791132,-0.06381700957278226
4.400999999999804,0.1660770060321445,-0.06669106175481608
4.600999999999871,0.16989229696118988,-0.07425570314592297
4.800999999999938,0.1785032823535526,-0.07363986323627714
5.000000000000004,0.1870459417693318,-0.07867568184917946
5.200000000000071,0.19631645788459076,-0.08992664345879593
5.400000000000138,0.20277355580267253,-0.09617932792866517
5.600000000000205,0.20960179701086556,-0.10835662265656289
5.800000000000272,0.2151307086541318,-0.12338939898824806
6.000000000000338,0.22067001434489072,-0.1360077619248924
6.200000000000405,0.22628707927436573,-0.13542701641608648
6.400000000000472,0.23130127119746158,-0.13847378324151197
6.600000000000539,0.23826001547318146,-0.14938008731771793
6.800000000000606,0.244984211018461,-0.15743726343909925
7.000000000000672,0.2522896101407338,-0.15564241131166862
7.200000000000739,0.26345001139678415,-0.1578529784229523
7.400000000000806,0.2711225323769597,-0.16433494007302046
7.600000000000873,0.2810147350740971,-0.16574126587713103
7.8000000000009395,0.28531635248587595,-0.17290618045850378
8.000000000001005,0.28681978257689533,-0.18396221140444474
8.200000000000895,0.2921489514999672,-0.18499940999771458
8.400000000000784,0.2973980769929416,-0.1996049349987828
8.600000000000673,0.3047162887265623,-0.20938445056065724
8.800000000000562,0.30816748368447056,-0.22718575652339312
9.000000000000451,0.31034495560892633,-0.24140529609598177
9.20000000000034,0.312805806947426,-0.2504713104962921
9.40000000000023,0.3143714407428061,-0.2639678354465522
9.600000000000119,0.31344239992201545,-0.277955906775529
9.800000000000008,0.3142652870484831,-0.29677828876392015
10.000999999999896,0.3234875125282217,-0.302109429477164
10.200999999999786,0.32913935591692284,-0.30663769583663136
10.400999999999675,0.33150985019134865,-0.317071043849424
10.600999999999564,0.34053117404575567,-0.31987644188170633
10.800999999999453,0.3451161561735429,-0.32736318935636866
11.000999999999342,0.34886133776606615,-0.33558382695684574
11.200999999999231,0.3565446182400689,-0.3448651247407865
11.40099999999912,0.3672063062534715,-0.3464105591250866
11.60099999999901,0.37349512313706246,-0.3573642719520687
11.800999999998899,0.3789437678317617,-0.3672405780463623
12.000999999998788,0.3850358594128827,-0.3715523845495887
12.200999999998677,0.38977458468329323,-0.3818030924174871
12.400999999998566,0.3972165760447834,-0.3915671731495226
12.600999999998455,0.40439943619958824,-0.3924386589406234
12.800999999998345,0.40819603307070795,-0.40393538063792894
13.000999999998234,0.4103043821499841,-0.4152360989258412
13.200999999998123,0.4172299043653333,-0.41760527315984425
13.400999999998012,0.4236928353041019,-0.42323057983350115
13.600999999997901,0.4280497785924177,-0.4341112359348086
13.80099999999779,0.432514813926293,-0.44729200199750946
14.00099999999768,0.43866556380020366,-0.45672322083270206
14.200999999997569,0.44782098582740415,-0.4605239851991277
14.400999999997458,0.45308154142403034,-0.46069223269975984
14.600999999997347,0.45456071227310524,-0.47509812239191573
14.800999999997236,0.45681762120481095,-0.4825235427355093
15.000999999997125,0.4629622534806583,-0.49037688099962484
15.200999999997014,0.46690630320340687,-0.497710982924837
15.400999999996904,0.4721821901346992,-0.5050918398303323
15.600999999996793,0.4759388987560038,-0.5171149261688841
15.800999999996682,0.48522798446129095,-0.520809185327183
16.000999999996573,0.4955520830330675,-0.5275685793444203
16.200999999996817,0.5039686502620695,-0.53425027450936
16.40099999999706,0.5135194919036616,-0.5373844607825661
16.600999999997306,0.5178633590380989,-0.5499197357027297
16.80099999999755,0.5212368609094168,-0.5587945888862018
17.000999999997795,0.5274854280200258,-0.5622784839737345
17.20099999999804,0.5298141029192612,-0.571952791384441
17.400999999998284,0.5339756076539368,-0.5791424191817766
17.60099999999853,0.541479737628319,-0.5844416842034753
17.800999999998773,0.5462048369682954,-0.5991564392625224
18.000999999999017,0.5510448928300431,-0.60542234489275
18.20099999999926,0.5525667179726468,-0.6170020941603694
18.400999999999506,0.5602005790829871,-0.6215442143387057
18.60099999999975,0.5682802765704271,-0.6235749065513176
18.799999999999994,0.5763849022566718,-0.629597406809425
19.000000000000238,0.5835833136245272,-0.6371309820498278
19.200000000000482,0.5862796555104878,-0.6474405835138324
19.400000000000727,0.5877579123924438,-0.6657249323908933
19.60000000000097,0.5917995171119685,-0.6811872488104836
19.800000000001216,0.593845876699138,-0.6940012433172212
20.00000000000146,0.599122635863644,-0.7033844852406325
