Time (s),X (m),Y (m)
0.001,0.0008829029745972832,-0.0007899207378008392
0.20000000000000015,-0.0011212709931544577,0.0028382201383538846
0.4000000000000003,0.003020600462511879,0.0010524046832802553
0.6000000000000004,0.013932635430489485,0.0012269668534497396
0.8000000000000006,0.03547883971079043,0.0006305156265376374
1.0000000000000007,0.06046247741288011,0.005906109343750393
1.2009999999999785,0.09128543406469837,0.00779293175853891
1.4009999999999565,0.12003718306500624,0.0026006805658599637
1.6009999999999345,0.15216859378629727,-0.00538987670807195
1.8009999999999124,0.18403035943461288,-0.0287803961355167
2.0009999999998906,0.2112150575399373,-0.04756620650767604
2.2009999999998686,0.2365206845998035,-0.07988041959628818
2.4009999999998466,0.26428838141930233,-0.10925616729875258
2.6009999999998246,0.28933380176710755,-0.1425762932607828
2.8009999999998025,0.30314159367607,-0.18164049032427462
3.0009999999997805,0.3177063311006019,-0.2219491501570245
3.2009999999997585,0.33214583517105756,-0.26438819600406194
3.4009999999997365,0.3447735800294422,-0.3048494278471489
3.6009999999997144,0.34591164927676915,-0.3441639528512155
3.8009999999996924,0.320273325433446,-0.3786617235934569
4.000999999999671,0.30603823779556577,-0.40957941667751413
4.200999999999738,0.2874775384165191,-0.4369612159477845
4.400999999999804,0.25489299848141767,-0.4466926988240368
4.600999999999871,0.21477523761846487,-0.4583207963428996
4.800999999999938,0.17796446612564865,-0.4676136555105699
5.000000000000004,0.14194999999178215,-0.46037972540398026
5.200000000000071,0.09932562764862304,-0.44152448776580666
5.400000000000138,0.06123932756776764,-0.41601748487521883
5.600000000000205,0.025695723445117672,-0.38534767765460665
5.800000000000272,-0.004787873998103212,-0.345582095991059
6.000000000000338,-0.03212688530624668,-0.3022479125846566
6.200000000000405,-0.04350775470840001,-0.24884955543253534
6.400000000000472,-0.03379255731769509,-0.19762517364685805
6.600000000000539,-0.0021963773948698497,-0.1461016776641459
6.800000000000606,0.03488172864553773,-0.10192974912236434
7.000000000000672,0.06639114931534183,-0.0661896960191255
7.200000000000739,0.10839669992590346,-0.041376610705768695
7.400000000000806,0.14595468679346157,-0.02104679908231391
7.600000000000873,0.18897775495504107,-0.013660741459808562
7.8000000000009395,0.2382227560911873,-0.01605618177799027
8.000000000001005,0.2815338764985449,-0.01794830319290646
8.200000000000895,0.32603051413766015,-0.0198166624412419
8.400000000000784,0.3623337084999606,-0.047973208751169755
8.600000000000673,0.3952668072731221,-0.091378983165339
8.800000000000562,0.42085547684981944,-0.1401239274808589
9.000000000000451,0.4339579925458773,-0.18932461740036688
9.20000000000034,0.44906365253055297,-0.24187321843856405
9.40000000000023,0.4587927001579264,-0.2961565919547299
9.600000000000119,0.4569046089254092,-0.3504402448398663
9.800000000000008,0.4313179366854683,-0.4044532255159056
10.000999999999896,0.3940546540892703,-0.45176681417107134
10.200999999999786,0.3616744238789906,-0.4915840033075278
10.400999999999675,0.31966384491550665,-0.524297281885426
10.600999999999564,0.2687969063579982,-0.5522010975372066
10.800999999999453,0.21186319112332685,-0.568779269265839
11.000999999999342,0.1503299361040382,-0.5767358452507992
11.200999999999231,0.08822812996243869,-0.5797848921485897
11.40099999999912,0.02699154296183635,-0.5661494467007271
11.60099999999901,-0.03186241121780944,-0.5263294723921244
11.800999999998899,-0.0831686026131029,-0.485453026189378
12.000999999998788,-0.12284901493808881,-0.43497319486307484
12.200999999998677,-0.15402968307751166,-0.3777124886878153
12.400999999998566,-0.17718500576870042,-0.32162288220700036
12.600999999998455,-0.1871152083685366,-0.266559310423484
12.800999999998345,-0.16882072018704802,-0.20666215780225186
13.000999999998234,-0.1522239472954646,-0.14702303471444877
13.200999999998123,-0.12991383473279103,-0.08961847719052325
13.400999999998012,-0.0974301005313194,-0.04445572201605772
13.600999999997901,-0.053324780269844524,-0.018051266548046507
13.80099999999779,0.004218012858364772,0.0011204522163100101
14.00099999999768,0.06770857897734191,0.011416407418595271
14.200999999997569,0.130659341066559,0.018877064439182155
14.400999999997458,0.19534344041704194,0.025001697618034616
14.600999999997347,0.25790554166342794,0.03903063669996826
14.800999999997236,0.32734013476655,0.051135475426830355
15.000999999997125,0.38575252777244107,0.06660809748971817
15.200999999997014,0.4393778604406073,0.051930047347588236
15.400999999996904,0.49035056908887314,0.018167503004606244
15.600999999996793,0.5245097010198839,-0.03915793248767257
15.800999999996682,0.5551962661064866,-0.09218510073628018
16.000999999996573,0.5809600999516232,-0.15665605060965235
16.200999999996817,0.593346816944721,-0.22664731233181012
16.40099999999706,0.5963607410960262,-0.2962592328497695
16.600999999997306,0.591733625121552,-0.3622378648761684
16.80099999999755,0.5858750180361513,-0.4270794396319818
17.000999999997795,0.549077060558494,-0.4779230378004508
17.20099999999804,0.5073918043339174,-0.5169347363701433
17.400999999998284,0.45680733300042475,-0.5342284076311383
17.60099999999853,0.40989510795542766,-0.552271644005247
17.800999999998773,0.35681913793430453,-0.5657321120275927
18.000999999999017,0.30147688344182866,-0.5664379869019681
18.20099999999926,0.2451165010137708,-0.5587953610868462
18.400999999999506,0.185781805686013,-0.5471496313542773
18.60099999999975,0.126604730864373,-0.5422409635756895
18.799999999999994,0.06948148843886745,-0.5314015696746246
19.000000000000238,0.0038225331771046915,-0.5045040846724388
19.200000000000482,-0.06024961865098346,-0.481000032472119
19.400000000000727,-0.11323792957142552,-0.43822023188221615
19.60000000000097,-0.14874951908116293,-0.38436772879132125
19.800000000001216,-0.17592255541304708,-0.3254336050611668
20.00000000000146,-0.19699324691895215,-0.2627329185506592
