Time (s),X (m),Y (m)
0.001,-0.0005698399629515257,0.0006628221997479692
0.20000000000000015,0.004426498535741144,-0.0025502041527170724
0.4000000000000003,0.008411944732397812,-0.002585461737403736
0.6000000000000004,0.009936733092986186,-0.0001957844282023397
0.8000000000000006,0.01338902349908227,0.00032834366831538197
1.0000000000000007,0.017278059249870057,4.869945570659201e-05
1.2009999999999785,0.021594415862725213,-0.0002496559026340955
1.4009999999999565,0.026024075824601752,-0.0009324144677357376
1.6009999999999345,0.03068229904295556,-0.0014845781363986145
1.8009999999999124,0.035783093081505894,-0.001320974158440238
2.0009999999998906,0.041499241456432946,-0.0012030023420921963
2.2009999999998686,0.046922034004927025,-0.0015282836865367266
2.4009999999998466,0.05220073533768799,-0.0016259504610297599
2.6009999999998246,0.05783497580945615,-0.00209808115070286
2.8009999999998025,0.06397668299661532,-0.0026147752557189163
3.0009999999997805,0.06999910409476467,-0.0017972485886818517
3.2009999999997585,0.07513639139274662,-0.0016088503197716677
3.4009999999997365,0.0807448864837766,-0.0012278248048386007
3.6009999999997144,0.08635743649664754,-0.000991376011550835
3.8009999999996924,0.0928448140097631,-0.0007597207248167182
4.000999999999671,0.0985201849487863,-8.877753109352453e-05
4.200999999999738,0.10376815331703232,0.0009915130993025788
4.400999999999804,0.10934095332416913,0.0018675728737954065
4.600999999999871,0.11488561955246616,0.0027975032524548468
4.800999999999938,0.1204460356343147,0.0047531969745841125
5.000000000000004,0.12506818924298774,0.006701900761885351
5.200000000000071,0.1297438198048487,0.007827111832502478
5.400000000000138,0.13436243846287896,0.008843921914043788
5.600000000000205,0.13726451086120883,0.0104288919402073
5.800000000000272,0.14052527530090914,0.012268810516261497
6.000000000000338,0.14450662467310738,0.013113635649879586
6.200000000000405,0.14630203911738107,0.01572913524141231
6.400000000000472,0.14940843490987007,0.018621906793054567
6.600000000000539,0.1528088795766262,0.02082764795838647
6.800000000000606,0.15442378031693285,0.02352480853929176
7.000000000000672,0.1565489475991893,0.02736993341509585
7.200000000000739,0.1594446616105144,0.030481738591753117
7.400000000000806,0.16147820558831685,0.03307855761528607
7.600000000000873,0.1618205927133068,0.03698876499808101
7.8000000000009395,0.1652570629870498,0.03937158435134539
8.000000000001005,0.1669283994392551,0.042265143982275884
8.200000000000895,0.1688070036137397,0.04387357472163534
8.400000000000784,0.1702498459554114,0.047253446191262295
8.600000000000673,0.17157453646033388,0.049038031266908345
8.800000000000562,0.1737693758898553,0.05322802757275006
9.000000000000451,0.17439034408571535,0.057763225562079204
9.20000000000034,0.17445583322642708,0.0627810418946369
9.40000000000023,0.17649092291648727,0.06708527815061702
9.600000000000119,0.17600449183136685,0.07173947419005643
9.800000000000008,0.1774588186393541,0.07663520654006166
10.000999999999896,0.17892342393846003,0.08114556045826687
10.200999999999786,0.17870637104820997,0.08478912409332491
10.400999999999675,0.1800167709784737,0.0867312534183259
10.600999999999564,0.18023296422260512,0.0922112961499489
10.800999999999453,0.18013401360492032,0.09746756948362088
11.000999999999342,0.1802459151785096,0.10237372293187835
11.200999999999231,0.17986808178211577,0.10682459587389212
11.40099999999912,0.17942244724694667,0.11092562745838205
11.60099999999901,0.17888707158628148,0.11499455527731338
11.800999999998899,0.17804598316863227,0.1186174414311142
12.000999999998788,0.1769323224928718,0.12282895249457855
12.200999999998677,0.1763424586600063,0.12559994320958012
12.400999999998566,0.17538908852972387,0.1280038649379007
12.600999999998455,0.17451488368886045,0.13146397445646762
12.800999999998345,0.17326498069814356,0.13525548452777789
13.000999999998234,0.17326937169551201,0.1376661280922002
13.200999999998123,0.17287580992795584,0.14012026127739652
13.400999999998012,0.1722063471851865,0.142443362903309
13.600999999997901,0.17074226169248433,0.14537226486321206
13.80099999999779,0.16959310840731703,0.14828516738705436
14.00099999999768,0.16803799780637318,0.15050263341070974
14.200999999997569,0.1660933550296315,0.1527401358648358
14.400999999997458,0.16498796875764077,0.15465849397781073
14.600999999997347,0.16334052224861628,0.15692902020588112
14.800999999997236,0.16210759755815665,0.15895897727671807
15.000999999997125,0.15997442176478102,0.1617965386075521
15.200999999997014,0.1583737302600856,0.16430334551006218
15.400999999996904,0.15607645464819084,0.16639762561725974
15.600999999996793,0.15326424288286342,0.16829590292517174
15.800999999996682,0.14947670838421687,0.17033002433724523
16.000999999996573,0.14672137151495943,0.17237462554727817
16.200999999996817,0.14284551581502755,0.17395158655439152
16.40099999999706,0.13920665988491054,0.17558349267453194
16.600999999997306,0.1360934230526651,0.17724310348181516
16.80099999999755,0.13228884079779782,0.17860060296034735
17.000999999997795,0.12714728099023845,0.17995976109430908
17.20099999999804,0.12287338368969683,0.18186692698676707
17.400999999998284,0.11931994123178462,0.1833396781107407
17.60099999999853,0.11453421933904398,0.18470250996170237
17.800999999998773,0.11092228378795026,0.18576225381959222
18.000999999999017,0.10680152259530298,0.18696948555311416
18.20099999999926,0.1011972406976695,0.18826267243048855
18.400999999999506,0.09454413217634966,0.1891114327938503
18.60099999999975,0.08861184512860223,0.19029757643145773
18.799999999999994,0.08288449216401998,0.19100419866913473
19.000000000000238,0.07608789211219513,0.19146557782294307
19.200000000000482,0.06891511132958404,0.19208214714791122
19.400000000000727,0.06392123734263178,0.19251062148668902
19.60000000000097,0.05710433208845895,0.19288877822782596
19.800000000001216,0.05205780059704639,0.19317145636731287
20.00000000000146,0.04692330710169413,0.19334056248962342
