Time (s),X (m),Y (m)
0.001,0.0002200807748493132,-0.0010311682891199468
0.20000000000000015,0.0037744064378985543,0.0017507836200868622
0.4000000000000003,0.011826695072224455,-0.004885722823474879
0.6000000000000004,0.01980793422442525,-0.018678688548570428
0.8000000000000006,0.034517339451413866,-0.05068698411594243
1.0000000000000007,0.05045364570319848,-0.08177809032183683
1.2009999999999785,0.06956843528357134,-0.11146783881482382
1.4009999999999565,0.10161136864282919,-0.11991738238866848
1.6009999999999345,0.13729207997205575,-0.1391276719455876
1.8009999999999124,0.17954839373057382,-0.1713751684372979
2.0009999999998906,0.21721798724642002,-0.21003565185961576
2.2009999999998686,0.25699127513703207,-0.23646161655136544
2.4009999999998466,0.29650276382094315,-0.25823568114803386
2.6009999999998246,0.3218940205554193,-0.29213635727313997
2.8009999999998025,0.3495304531095209,-0.3274979892888903
3.0009999999997805,0.38914940129640535,-0.35985263725698036
3.2009999999997585,0.4222279122797934,-0.38886097546196535
3.4009999999997365,0.45764570250338404,-0.4252063711808276
3.6009999999997144,0.4681444645693428,-0.4736362055375128
3.8009999999996924,0.474813678909902,-0.5192721416938284
4.000999999999671,0.48118395561965527,-0.5611478986511159
4.200999999999738,0.4651429262255472,-0.6021665232015648
4.400999999999804,0.4549590745904783,-0.6447082909650607
4.600999999999871,0.4608049828345931,-0.683404554557015
4.800999999999938,0.44970003142704096,-0.7232671589505724
5.000000000000004,0.4319736480434501,-0.7622201468478642
5.200000000000071,0.427879504731789,-0.8077587481650845
5.400000000000138,0.40995565095589037,-0.8428283093182949
5.600000000000205,0.39426284255129324,-0.8976118445451499
5.800000000000272,0.36357389112828187,-0.9498194107876599
6.000000000000338,0.323364871664249,-0.9904088095600069
6.200000000000405,0.2784770196421864,-1.0186089497801576
6.400000000000472,0.23262944646799105,-1.0500884654292986
6.600000000000539,0.18599928603480811,-1.071609821691659
6.800000000000606,0.14604053676801085,-1.074708824194257
7.000000000000672,0.10632280399085393,-1.058189937034183
7.200000000000739,0.06469834145943332,-1.0395210671676676
7.400000000000806,0.017436537286323404,-1.0198619666400237
7.600000000000873,-0.027093818342162294,-0.9946516789469844
7.8000000000009395,-0.06999583043137261,-0.9654058771615351
8.000000000001005,-0.10900503888319965,-0.9351926860052903
8.200000000000895,-0.15200382812148364,-0.9083205401849219
8.400000000000784,-0.18471696864073078,-0.8809213417637802
8.600000000000673,-0.20907631978025243,-0.8397695312923236
8.800000000000562,-0.2140742141248848,-0.791779755354043
9.000000000000451,-0.2052404537643728,-0.7426127421928082
9.20000000000034,-0.20312612650380718,-0.6862766178998242
9.40000000000023,-0.1923687784636006,-0.6390273995850161
9.600000000000119,-0.17245984588319374,-0.5943999419328505
9.800000000000008,-0.13974807177397172,-0.5732963383288765
10.000999999999896,-0.09988890005255784,-0.5759767048458461
10.200999999999786,-0.05454096441642668,-0.5751492991903465
10.400999999999675,-0.0024555160371561168,-0.5704392097278185
10.600999999999564,0.05031808925710893,-0.5817472050087145
10.800999999999453,0.10563517366880779,-0.5882503856981839
11.000999999999342,0.15109841237682053,-0.60367168740918
11.200999999999231,0.1890622174788755,-0.6302359914543202
11.40099999999912,0.19865222028553917,-0.6569712637850365
11.60099999999901,0.17875216293935065,-0.6911357261904285
11.800999999998899,0.15008839795804407,-0.7229933861002922
12.000999999998788,0.1195143262210833,-0.7510376577163216
12.200999999998677,0.08224115470441874,-0.7512609637309748
12.400999999998566,0.042094814509977346,-0.7380969701060704
12.600999999998455,0.009583563236854964,-0.7164163205405186
12.800999999998345,-0.011443921401156259,-0.6908458071842857
13.000999999998234,-0.029827272188365065,-0.6606195344610958
13.200999999998123,-0.03587118547468386,-0.6225606465670281
13.400999999998012,-0.02728444358050464,-0.5861155575687951
13.600999999997901,-0.0026738902437858365,-0.5554774120925253
13.80099999999779,0.027543526293835593,-0.5228223264908578
14.00099999999768,0.057071799212975644,-0.5001540416009763
14.200999999997569,0.09594411922017389,-0.48886040851095414
14.400999999997458,0.13659207383772543,-0.4984871552188762
14.600999999997347,0.16870142745346928,-0.5152917951366749
14.800999999997236,0.20116961507049855,-0.5452600454496539
15.000999999997125,0.21268227605681514,-0.584178229466473
15.200999999997014,0.20896044878186643,-0.6282530003268295
15.400999999996904,0.18961489505409249,-0.6757433466923167
15.600999999996793,0.18018567364404584,-0.7293605810373109
15.800999999996682,0.1720568399857658,-0.7830163073282526
16.000999999996573,0.16493093947156307,-0.8333524401154011
16.200999999996817,0.14532442062995543,-0.876538467614162
16.40099999999706,0.11919952833163983,-0.923097651683043
16.600999999997306,0.09016385042530876,-0.9733439981519137
16.80099999999755,0.061759802210063476,-1.033244403706625
17.000999999997795,0.029493503141092656,-1.0743505167295524
17.20099999999804,-0.022079394887339204,-1.0999705298312261
17.400999999998284,-0.06260787496235962,-1.0987425176403782
17.60099999999853,-0.10027720897853112,-1.081278230175748
17.800999999998773,-0.14284659332893887,-1.0459747758981357
18.000999999999017,-0.15723746628714128,-1.0064617863778946
18.20099999999926,-0.13606461274670842,-0.9637450730308056
18.400999999999506,-0.1286319001883843,-0.922580330374067
18.60099999999975,-0.1432064738861879,-0.8735881006290241
18.799999999999994,-0.14043905524090997,-0.8190687485822169
19.000000000000238,-0.14838060541939957,-0.7480151403466428
19.200000000000482,-0.13971567309254876,-0.6870103424486934
19.400000000000727,-0.1155205286334934,-0.6445202509032066
19.60000000000097,-0.08696298905761458,-0.597879161502674
19.800000000001216,-0.048068522339826746,-0.5514922336637368
20.00000000000146,-0.0036566191717916537,-0.5066269076351649
