Time (s),X (m),Y (m)
0.001,0.0012473251573109415,-8.987223813608099e-05
0.20000000000000015,-0.0018314109653141798,0.001042116932271767
0.4000000000000003,-0.0009268871816746247,0.0034226952158072275
0.6000000000000004,0.00753305853182657,0.00034285005454805397
0.8000000000000006,0.02206832853229081,-0.0005037095682566088
1.0000000000000007,0.03935126057447013,-0.007939561149775499
1.2009999999999785,0.05241983458270443,-0.019134865594149755
1.4009999999999565,0.06958366729647468,-0.022970009291230397
1.6009999999999345,0.10239270292269212,-0.0447142342656775
1.8009999999999124,0.1457144077791362,-0.08349439311776807
2.0009999999998906,0.18542468801991083,-0.1149022326432242
2.2009999999998686,0.23327923881118048,-0.1433504950908962
2.4009999999998466,0.2857035023224507,-0.16939429459923552
2.6009999999998246,0.32914333605864604,-0.18198357645278537
2.8009999999998025,0.3624059720614026,-0.19432835191403938
3.0009999999997805,0.3909318376483364,-0.21382000420138011
3.2009999999997585,0.4159767401010301,-0.22903437558383383
3.4009999999997365,0.4539690521643969,-0.2509595136293558
3.6009999999997144,0.49435281354635074,-0.28378780103169604
3.8009999999996924,0.5368283854436056,-0.32966296882055834
4.000999999999671,0.566715541652543,-0.38678343756890277
4.200999999999738,0.5777225386365883,-0.44488414178521063
4.400999999999804,0.5634235260552275,-0.5040204388506941
4.600999999999871,0.5460339069852317,-0.5618845703960241
4.800999999999938,0.5211106425801979,-0.6179756236849824
5.000000000000004,0.4966061212757552,-0.6685129850033527
5.200000000000071,0.47030088833573974,-0.7211714562183225
5.400000000000138,0.4435302703741941,-0.7738946669706367
5.600000000000205,0.404693491055778,-0.8213544241269434
5.800000000000272,0.35158679709529067,-0.8405002769924005
6.000000000000338,0.287914901279868,-0.8313375349409993
6.200000000000405,0.23090244154790035,-0.8118592914706222
6.400000000000472,0.17464241992121038,-0.7845418318403361
6.600000000000539,0.11182809518019038,-0.7501495418439335
6.800000000000606,0.051470458384928,-0.7142478436931636
7.000000000000672,-0.0056418716105112775,-0.6768194042523561
7.200000000000739,-0.059006764727737665,-0.6402194277711459
7.400000000000806,-0.12103001890032208,-0.5935880935008342
7.600000000000873,-0.18049610380219566,-0.5592157533996335
7.8000000000009395,-0.22199274363495172,-0.5203648975025232
8.000000000001005,-0.2415564067347505,-0.48718929382915566
8.200000000000895,-0.2409409516882226,-0.44580022041555556
8.400000000000784,-0.22179215152614562,-0.3960171745924662
8.600000000000673,-0.1929886117279449,-0.3384263178458584
8.800000000000562,-0.16143335649699428,-0.2838376992901208
9.000000000000451,-0.12912519131640143,-0.24531661961645032
9.20000000000034,-0.08617844484895112,-0.224874317093109
9.40000000000023,-0.02544269974906034,-0.22346564599988006
9.600000000000119,0.03848897728469947,-0.2408030032956983
9.800000000000008,0.09669152295980021,-0.26789457297666813
10.000999999999896,0.1410478067500289,-0.30455908789437863
10.200999999999786,0.16401118516639226,-0.3489901307343189
10.400999999999675,0.17104630226652281,-0.3942069342283143
10.600999999999564,0.16660691817838116,-0.43960431466014466
10.800999999999453,0.14696786858413188,-0.49057994527728116
11.000999999999342,0.11805670926173094,-0.5462050773053045
11.200999999999231,0.08591900780893456,-0.6076210233054815
11.40099999999912,0.052069249471578774,-0.6646484303763261
11.60099999999901,0.01847170110453445,-0.7080624335970668
11.800999999998899,-0.01706321845568008,-0.7298367626185506
12.000999999998788,-0.05305266393423314,-0.7354940049527774
12.200999999998677,-0.10039207301985761,-0.7235578023954602
12.400999999998566,-0.14712774297030706,-0.7026138748485148
12.600999999998455,-0.19363177073158555,-0.6770980483523896
12.800999999998345,-0.24573821468998092,-0.6462159140633312
13.000999999998234,-0.28926561925982547,-0.614052333726401
13.200999999998123,-0.3108275365899864,-0.5828467249510376
13.400999999998012,-0.3114862296070757,-0.5431002941341132
13.600999999997901,-0.30041001201653816,-0.4988865982544175
13.80099999999779,-0.28333499586707617,-0.453060602318613
14.00099999999768,-0.2598806922460664,-0.3987654028769953
14.200999999997569,-0.2400610201911432,-0.3446984822122919
14.400999999997458,-0.20709015668749117,-0.2866344399549114
14.600999999997347,-0.1634828420332717,-0.23084339178034738
14.800999999997236,-0.10243711541788346,-0.1838172764016011
15.000999999997125,-0.04303550627936287,-0.1604490257143081
15.200999999997014,0.011596630943006836,-0.1612263600506012
15.400999999996904,0.07419308284167501,-0.18772564181891185
15.600999999996793,0.14075208986680035,-0.2302465469718253
15.800999999996682,0.2083093977821916,-0.2772864213524573
16.000999999996573,0.27224105683958866,-0.3185262751985575
16.200999999996817,0.3156384745926399,-0.3755266370820173
16.40099999999706,0.3289360240766774,-0.43320144598406773
16.600999999997306,0.31496861939621945,-0.49474011618471614
16.80099999999755,0.2909245681202285,-0.554769178023591
17.000999999997795,0.2666719156195392,-0.6126644674196358
17.20099999999804,0.23580701462790138,-0.6754348081138811
17.400999999998284,0.19672009189208814,-0.7488584159989108
17.60099999999853,0.15743118382419244,-0.8211895431650044
17.800999999998773,0.12017145744981106,-0.8925454747018018
18.000999999999017,0.07358929923643273,-0.9659732598919909
18.20099999999926,0.01372551266331624,-1.0376239577226634
18.400999999999506,-0.05060480665644686,-1.0969080506712585
18.60099999999975,-0.10573378679356742,-1.1286883781325034
18.799999999999994,-0.15848433736205425,-1.1376826505330055
19.000000000000238,-0.2218900113058699,-1.1225145988964278
19.200000000000482,-0.28047003202752785,-1.1004968311682837
19.400000000000727,-0.33495676509675004,-1.0619642986375797
19.60000000000097,-0.37539079255401503,-1.0128747544555976
19.800000000001216,-0.38820289591205787,-0.9637012317785418
20.00000000000146,-0.37747676944122976,-0.9144436947030821
