Time (s),X (m),Y (m)
0.001,-4.680521708071185e-05,-0.0009960320817112695
0.20000000000000015,0.0010618500120617108,-0.0007349938811346213
0.4000000000000003,0.003212625793165451,-0.004009398255103039
0.6000000000000004,0.00882365126782061,0.0002108623598140464
0.8000000000000006,0.021871943194145926,0.013442128031487515
1.0000000000000007,0.0288016006334472,0.015337465985360664
1.2009999999999785,0.03589249105002716,0.027011035530541502
1.4009999999999565,0.041804838909087295,0.03060172098569809
1.6009999999999345,0.050844830466218925,0.02712183074587391
1.8009999999999124,0.06139901479687978,0.03182167534130038
2.0009999999998906,0.07235544333258699,0.03689271084499732
2.2009999999998686,0.08168713862286696,0.04063882444180287
2.4009999999998466,0.09438850177883237,0.043570834692332465
2.6009999999998246,0.10633860860054131,0.04269971420810008
2.8009999999998025,0.1151798627500196,0.03532618437070907
3.0009999999997805,0.12980389006331597,0.0450163183310132
3.2009999999997585,0.14287737275510556,0.046329253503494004
3.4009999999997365,0.1538443323557052,0.04856441044077963
3.6009999999997144,0.1647361403665156,0.0503029800063144
3.8009999999996924,0.1782253889480335,0.05465933080793887
4.000999999999671,0.19063886849623637,0.055803585280738165
4.200999999999738,0.20549143608046427,0.06582462183193148
4.400999999999804,0.2192896285399292,0.06687498756306814
4.600999999999871,0.233540016902356,0.0714475508516685
4.800999999999938,0.24311883901454673,0.07674742173635178
5.000000000000004,0.25248202319943275,0.07859946730953102
5.200000000000071,0.26495884237006684,0.08743924555391518
5.400000000000138,0.27992579625878794,0.09003417182071982
5.600000000000205,0.2938652039231045,0.0954255531660588
5.800000000000272,0.30953471093830476,0.09948022796263575
6.000000000000338,0.32418880640369235,0.10990228588624484
6.200000000000405,0.3394610511945293,0.11906987183075689
6.400000000000472,0.35241965198247255,0.12180594825978738
6.600000000000539,0.3647443706349648,0.1343221989253889
6.800000000000606,0.38166207765124327,0.13752295713958979
7.000000000000672,0.3971101669472758,0.1377521924415781
7.200000000000739,0.40981758591310746,0.14139086416565633
7.400000000000806,0.42629076256677556,0.14840188494542333
7.600000000000873,0.44310291915684286,0.15295204665926956
7.8000000000009395,0.4584717918872035,0.1513529502516844
8.000000000001005,0.4701907162195818,0.1563579321809834
8.200000000000895,0.4786372113964987,0.15205272623619986
8.400000000000784,0.48929571902876173,0.15000080738001662
8.600000000000673,0.5073549904272765,0.16375778107146263
8.800000000000562,0.524564666471622,0.16979284041296852
9.000000000000451,0.539274544118527,0.17881389556560084
9.20000000000034,0.5563753892320836,0.19145385468146464
9.40000000000023,0.570729848306191,0.19267283710137792
9.600000000000119,0.5827854370904834,0.1884015057414334
9.800000000000008,0.5934426736636388,0.18686882435859467
10.000999999999896,0.6103726936582806,0.1933603813279567
10.200999999999786,0.6265417865599241,0.19312303045624346
10.400999999999675,0.6416592501876643,0.19790665869467045
10.600999999999564,0.6548467546568111,0.20828094754176985
10.800999999999453,0.6658436525862349,0.2187035763487321
11.000999999999342,0.6773097188757622,0.23041629269196903
11.200999999999231,0.6927743544255882,0.23777937813780842
11.40099999999912,0.7056898114516504,0.2467633491916216
11.60099999999901,0.7178454872137013,0.25661762033898544
11.800999999998899,0.7289895175289781,0.27145343573982744
12.000999999998788,0.7381510082993596,0.2855890569112228
12.200999999998677,0.7491648911713312,0.29641328802716765
12.400999999998566,0.7614420843726674,0.31530375979456937
12.600999999998455,0.7743742377636997,0.33269090377830435
12.800999999998345,0.7863559664030569,0.3406689463881807
13.000999999998234,0.7924757552132905,0.35485225239479834
13.200999999998123,0.7977296522500521,0.3683878494068106
13.400999999998012,0.8053975327571816,0.3855707528002569
13.600999999997901,0.813540595039544,0.3976608952830285
13.80099999999779,0.8257707828542448,0.4084751891309115
14.00099999999768,0.8324475038408456,0.4229098578398401
14.200999999997569,0.8416290169767153,0.4400412654080867
14.400999999997458,0.8465262876658739,0.45621708167374614
14.600999999997347,0.8563711409775479,0.4709668480124483
14.800999999997236,0.8633401736496686,0.4875578337221369
15.000999999997125,0.8601268905382519,0.5066769872185574
15.200999999997014,0.8642343964173955,0.5225761690265367
15.400999999996904,0.8650004670354154,0.5382491090419063
15.600999999996793,0.8714692623542467,0.5516114518856544
15.800999999996682,0.8694227977486102,0.567997732854907
16.000999999996573,0.8721103662574068,0.5831913572536477
16.200999999996817,0.8725125096523105,0.5979373079867815
16.40099999999706,0.8794544974367495,0.6108106052373199
16.600999999997306,0.8812628814420377,0.6208134398386915
16.80099999999755,0.8791783660362873,0.6345285756962143
17.000999999997795,0.8839344302702332,0.6462710716284947
17.20099999999804,0.8792678889062664,0.6647493074915664
17.400999999998284,0.8752992781097328,0.6842562213452813
17.60099999999853,0.8663486696501853,0.7021959026379108
17.800999999998773,0.8657410446058019,0.7167862596710504
18.000999999999017,0.8683106423082235,0.7282384823969518
18.20099999999926,0.8719584303400816,0.7385766525487686
18.400999999999506,0.8648822248252337,0.750237917790848
18.60099999999975,0.8587611754023136,0.7628273351139573
18.799999999999994,0.8503961232832954,0.7769156854992871
19.000000000000238,0.8388453622762215,0.7896142994202715
19.200000000000482,0.832145995599775,0.8036421073055449
19.400000000000727,0.8252031017885453,0.8159488038035366
19.60000000000097,0.8157041761016318,0.827746386549597
19.800000000001216,0.8090963971980211,0.8404705227759838
20.00000000000146,0.8079207077277728,0.8556584916457005
