Time (s),X (m),Y (m)
0.001,0.0011130987088041246,-0.000515584144559974
0.20000000000000015,-0.0020815267549685584,0.0035934354849760947
0.4000000000000003,-0.0016468700905132314,0.00611165232761569
0.6000000000000004,-0.0007636776489063578,0.011135288216436732
0.8000000000000006,0.007480168218131614,0.017075985126044958
1.0000000000000007,0.024803156196721483,0.008229319644290951
1.2009999999999785,0.048444647314076245,-0.005520471498161057
1.4009999999999565,0.05861269328555448,-0.008892053279476618
1.6009999999999345,0.07758940814013639,-0.011792730238609828
1.8009999999999124,0.0952234777159234,-0.00983117504478262
2.0009999999998906,0.10519486634563423,-0.0004614019925734021
2.2009999999998686,0.12401997973151273,-0.004132721863568553
2.4009999999998466,0.14744369694635506,-0.011352882288001926
2.6009999999998246,0.17176303542425853,-0.02193083732307389
2.8009999999998025,0.19460514469203127,-0.03802944959178006
3.0009999999997805,0.21610630024041655,-0.0523544589331795
3.2009999999997585,0.2273339090937486,-0.06501842893010297
3.4009999999997365,0.2441420810496735,-0.07531418692292516
3.6009999999997144,0.25210106447926345,-0.10281036510443031
3.8009999999996924,0.25745377410730336,-0.14131853690497118
4.000999999999671,0.2529453903771034,-0.18354245647280118
4.200999999999738,0.25288445145872795,-0.21450241865217806
4.400999999999804,0.2527485727559789,-0.24039068945458605
4.600999999999871,0.24198451743409854,-0.2739100722273773
4.800999999999938,0.23180627977520113,-0.3055530539824977
5.000000000000004,0.21542140004417534,-0.3301270540426085
5.200000000000071,0.1897778625194373,-0.3606506295545352
5.400000000000138,0.16619226995717126,-0.3926742642336563
5.600000000000205,0.14514380856710152,-0.42238175108101905
5.800000000000272,0.10065595937027813,-0.42902213849455145
6.000000000000338,0.05085665167563545,-0.4209775408757025
6.200000000000405,0.006982032679918548,-0.40640767076247014
6.400000000000472,-0.028384278593899,-0.38920730233785167
6.600000000000539,-0.05702170004327982,-0.3798194216473523
6.800000000000606,-0.08471687191007343,-0.37197892366483665
7.000000000000672,-0.1147391084674855,-0.3691136346468263
7.200000000000739,-0.13993211945662412,-0.3751912575667994
7.400000000000806,-0.16766906972339407,-0.36582179540617665
7.600000000000873,-0.1890035389903885,-0.33961532973511577
7.8000000000009395,-0.202095524437756,-0.311220520512726
8.000000000001005,-0.21203819794932047,-0.2837141331390078
8.200000000000895,-0.2169717620428848,-0.2426000090658212
8.400000000000784,-0.2157818299520743,-0.21389312022033014
8.600000000000673,-0.20674457395427948,-0.17835000324300984
8.800000000000562,-0.20025158693653233,-0.14607833241261722
9.000000000000451,-0.18404796423961098,-0.11138382233573964
9.20000000000034,-0.1721168483631396,-0.08125213040274103
9.40000000000023,-0.15459821341584984,-0.04706629298402071
9.600000000000119,-0.1374961001819857,-0.016248437800751015
9.800000000000008,-0.11257894257477016,0.010195491447097648
10.000999999999896,-0.0881262439885521,0.029657678015897908
10.200999999999786,-0.06630421028318488,0.03870790905486775
10.400999999999675,-0.03994662573814309,0.034127074288145494
10.600999999999564,-0.014599090309401094,0.030670061733320507
10.800999999999453,0.00497359727145593,0.03391593576672484
11.000999999999342,0.036342459567516305,0.04677970437810752
11.200999999999231,0.07273013583441618,0.050239391133788454
11.40099999999912,0.11324129211884613,0.036278969488320614
11.60099999999901,0.1529807010634246,0.02591248990779291
11.800999999998899,0.18652128562735534,0.024050636436089273
12.000999999998788,0.21128002152682857,0.018018363498060044
12.200999999998677,0.23337694333326556,0.009721883779881946
12.400999999998566,0.26576180721112186,-0.004165015637202681
12.600999999998455,0.2994735912261447,-0.016669377804351494
12.800999999998345,0.3229786274108221,-0.020316139761256978
13.000999999998234,0.3621916347661399,-0.03263042389709766
13.200999999998123,0.4042843406016795,-0.05187509006625815
13.400999999998012,0.43788342779196543,-0.06369240188799992
13.600999999997901,0.4708829175620704,-0.07615059165470635
13.80099999999779,0.4988523085591706,-0.09866065416744361
14.00099999999768,0.5166744955966862,-0.12519565741288974
14.200999999997569,0.5167763075889803,-0.17249867514730363
14.400999999997458,0.5066150488309776,-0.21580577697151088
14.600999999997347,0.4888492169631428,-0.2643381001437234
14.800999999997236,0.46818898228353495,-0.31735557438044565
15.000999999997125,0.4553293952295373,-0.3641234955313339
15.200999999997014,0.4406499008095676,-0.40276395613506216
15.400999999996904,0.4250012552241017,-0.44715037846029776
15.600999999996793,0.3958108737707501,-0.49995198440333527
15.800999999996682,0.3620565659722525,-0.5309833849882012
16.000999999996573,0.335416596473223,-0.5364480338749936
16.200999999996817,0.2997619093838173,-0.5317764490313286
16.40099999999706,0.26742223923147196,-0.531932802895499
16.600999999997306,0.2377201577741211,-0.5329559011653973
16.80099999999755,0.20872597427837788,-0.5319826632747746
17.000999999997795,0.17468112876465205,-0.5248706204952047
17.20099999999804,0.13886349429501801,-0.5086808242286677
17.400999999998284,0.10503959989753053,-0.494220151074571
17.60099999999853,0.07099438598495358,-0.48002705431984344
17.800999999998773,0.04529301171482044,-0.4577567183217483
18.000999999999017,0.02084426331709544,-0.4225864883664232
18.20099999999926,0.010093487946823982,-0.3816987070918203
18.400999999999506,-0.001828375794549306,-0.3493219525661869
18.60099999999975,-0.0061074894278440066,-0.3263599669524302
18.799999999999994,-0.006466873567881536,-0.2959278405584802
19.000000000000238,0.0023272098554031014,-0.2562895514032386
19.200000000000482,0.012710739153052989,-0.21478263575243361
19.400000000000727,0.012738199402903683,-0.1837045936289921
19.60000000000097,0.019103752869774265,-0.14720312654701115
19.800000000001216,0.024867831440197715,-0.11597737167877864
20.00000000000146,0.03593731700036032,-0.0809996540552188
