Time (s),X (m),Y (m)
0.001,4.1020280575708355e-05,0.0010155025257856582
0.20000000000000015,0.0010476932006154211,0.001705071162676186
0.4000000000000003,0.00046246722323603235,0.009383863820059589
0.6000000000000004,0.0014770125609508162,0.008634248424995163
0.8000000000000006,0.002494338176162097,0.007961784227505838
1.0000000000000007,0.003390698831719439,0.007276900175228575
1.2009999999999785,0.005114522305043512,0.00556559634492921
1.4009999999999565,0.0067831849230174665,0.005464987872310011
1.6009999999999345,0.008928414466558529,0.005789306251354977
1.8009999999999124,0.010886489796914959,0.0035398047104420274
2.0009999999998906,0.0121592297512969,0.0021807098958933954
2.2009999999998686,0.0126073999755801,0.0009306544966827048
2.4009999999998466,0.01292647037694164,8.195269110237419e-05
2.6009999999998246,0.01333047361077482,-0.0012383585851445586
2.8009999999998025,0.013862122685166995,-0.0028134686024973874
3.0009999999997805,0.014373812501875449,-0.0043276441745642704
3.2009999999997585,0.01501626087709775,-0.005895863485551361
3.4009999999997365,0.015827663104446294,-0.007953063212048306
3.6009999999997144,0.016739460377241448,-0.010061859558953366
3.8009999999996924,0.017586639149860243,-0.011965729966004745
4.000999999999671,0.018638493433725877,-0.014036283133698941
4.200999999999738,0.019467221102152567,-0.0157725885185666
4.400999999999804,0.020633862731554712,-0.017843527159801104
4.600999999999871,0.02186581952934801,-0.01990926908785883
4.800999999999938,0.023177319136430147,-0.021957379827599776
5.000000000000004,0.024466179981123142,-0.023997029740183175
5.200000000000071,0.02596604984372002,-0.026164654167854285
5.400000000000138,0.02767429371831026,-0.028053970597890786
5.600000000000205,0.029450151196800518,-0.030561251086989472
5.800000000000272,0.03139220433424024,-0.03278676047251229
6.000000000000338,0.03327672396415448,-0.034860077769649195
6.200000000000405,0.03525479075319327,-0.036920276760133805
6.400000000000472,0.03735966669459271,-0.03939639799980121
6.600000000000539,0.039562571059866804,-0.04184053058247878
6.800000000000606,0.04184148841657848,-0.04414027511167272
7.000000000000672,0.04418321729703732,-0.046274861767813875
7.200000000000739,0.04638817537616211,-0.04811845107198228
7.400000000000806,0.04870622389939425,-0.05055577691827479
7.600000000000873,0.05103215582853005,-0.052463858084040985
7.8000000000009395,0.05338717809278448,-0.05460512788993903
8.000000000001005,0.05563817096099576,-0.05635091956732173
8.200000000000895,0.05790197392416982,-0.057951676211830734
8.400000000000784,0.06053375160630284,-0.059580835346403384
8.600000000000673,0.06307448880344964,-0.06152859839995577
8.800000000000562,0.06547448046404158,-0.06340132137845514
9.000000000000451,0.06767977985631021,-0.06503294084161361
9.20000000000034,0.07007483543317455,-0.06727279315334983
9.40000000000023,0.07258794106828612,-0.06918105879746685
9.600000000000119,0.07485423858097204,-0.0707445651897634
9.800000000000008,0.0769827425720195,-0.07219545192515636
10.000999999999896,0.07926220213908383,-0.07419619734471161
10.200999999999786,0.08154058563065159,-0.07557861052930068
10.400999999999675,0.08389130377864709,-0.07716800286247043
10.600999999999564,0.08609224302086516,-0.07821801715134777
10.800999999999453,0.08845469663545663,-0.07947578432150271
11.000999999999342,0.09122823774904286,-0.08034115758773484
11.200999999999231,0.09342172273150534,-0.0814852263298556
11.40099999999912,0.09542434199690843,-0.08253357272847876
11.60099999999901,0.09747179273036939,-0.08380982946438473
11.800999999998899,0.0995170750947566,-0.08535520624098833
12.000999999998788,0.10158086799737283,-0.08688417128489945
12.200999999998677,0.10346038270310458,-0.08823250349572322
12.400999999998566,0.10527419672588313,-0.0895270155506711
12.600999999998455,0.10730955555525314,-0.09094921145571945
12.800999999998345,0.10907019245409802,-0.09219380928463482
13.000999999998234,0.11078095278873923,-0.09333531567634828
13.200999999998123,0.11245019144053588,-0.0944482348565908
13.400999999998012,0.11419691908166876,-0.09558134567175103
13.600999999997901,0.11591561159828405,-0.0966803705616602
13.80099999999779,0.11764711999666606,-0.09775319341039373
14.00099999999768,0.11938347585039565,-0.09881416339484153
14.200999999997569,0.12115768372009511,-0.09989751313250197
14.400999999997458,0.12290899675791758,-0.10096290368263489
14.600999999997347,0.12461863588549703,-0.10195752633379764
14.800999999997236,0.126487315264679,-0.10304804851896049
15.000999999997125,0.12834675020491665,-0.1041106553427187
15.200999999997014,0.12996684641768588,-0.10501774918766588
15.400999999996904,0.1316719679810766,-0.10595953601405024
15.600999999996793,0.13336966624069216,-0.10685202812540386
15.800999999996682,0.13509438480063032,-0.10775724378051468
16.000999999996573,0.13671217024634258,-0.10858035070765468
16.200999999996817,0.13845811210258785,-0.10946961680724679
16.40099999999706,0.14017748448324194,-0.11032639781751705
16.600999999997306,0.1419778730644571,-0.11120624988183472
16.80099999999755,0.14355852044369719,-0.11196690901584928
17.000999999997795,0.14540403683839365,-0.1128384121491724
17.20099999999804,0.14711155839712065,-0.11359780196509275
17.400999999998284,0.14896492514044324,-0.11406319327788261
17.60099999999853,0.1505543552021026,-0.11405692861400206
17.800999999998773,0.15241334709715162,-0.11391823546626914
18.000999999999017,0.1540603152128485,-0.11390418709480156
18.20099999999926,0.15588378683642737,-0.11400572734034951
18.400999999999506,0.1576978289856237,-0.11385877510595506
18.60099999999975,0.15933472154134343,-0.11372248981727484
18.799999999999994,0.16094133026718793,-0.11363311012074453
19.000000000000238,0.16249349110914896,-0.11361601769577839
19.200000000000482,0.16445792998559866,-0.11356509339000667
19.400000000000727,0.1662147701161902,-0.11339691646755859
19.60000000000097,0.1678018641881198,-0.11322087914238518
19.800000000001216,0.16946667856975592,-0.1130802166517104
20.00000000000146,0.17123242902369204,-0.11305540961498209
