Time (s),X (m),Y (m)
0.001,-0.000795421750936344,-0.00017906049427360483
0.20000000000000015,0.008475530665241386,0.0016694722948361225
0.4000000000000003,0.023877164754872407,0.0060074248829474555
0.6000000000000004,0.04233412164186435,0.00813816690031375
0.8000000000000006,0.06777549626182988,0.004149965749617286
1.0000000000000007,0.09137524693497055,-0.0032399092531604293
1.2009999999999785,0.12454673748288686,-0.024777326423476305
1.4009999999999565,0.15354566322247593,-0.05840832073910707
1.6009999999999345,0.16904439333274093,-0.09059802601413595
1.8009999999999124,0.17636088507285497,-0.12240623505062354
2.0009999999998906,0.17918223186189391,-0.1426442322380132
2.2009999999998686,0.17070639137759577,-0.17030057256365533
2.4009999999998466,0.15955722189766428,-0.1847033571176636
2.6009999999998246,0.148047207314919,-0.20226415138920278
2.8009999999998025,0.1306235691456466,-0.2358796797860725
3.0009999999997805,0.11424113113968627,-0.26829831973927926
3.2009999999997585,0.08881327216929756,-0.3081066715038554
3.4009999999997365,0.05593490846767117,-0.3541686644130121
3.6009999999997144,0.019009759717948483,-0.4046614360926338
3.8009999999996924,-0.0188804176224189,-0.4601551408758932
4.000999999999671,-0.06448733809168708,-0.5146249727938661
4.200999999999738,-0.11486688398127531,-0.5776364021662589
4.400999999999804,-0.16105668817372532,-0.6378179191015685
4.600999999999871,-0.21531862374261493,-0.7054891396976593
4.800999999999938,-0.2788733914652187,-0.7783817616385478
5.000000000000004,-0.34274832617620515,-0.854229615820257
5.200000000000071,-0.40757938135359056,-0.9147950665050603
5.400000000000138,-0.4814572287219298,-0.9332241053452437
5.600000000000205,-0.5465491049126759,-0.9237238073552694
5.800000000000272,-0.593692817163865,-0.8933313733807606
6.000000000000338,-0.6137577448841578,-0.862289471131814
6.200000000000405,-0.6034117874134133,-0.8269766630196134
6.400000000000472,-0.5651414508249655,-0.7971354972711435
6.600000000000539,-0.5187336292993858,-0.7857870087948601
6.800000000000606,-0.4669402224845023,-0.7902299170349688
7.000000000000672,-0.40378109184897487,-0.8122115265742211
7.200000000000739,-0.3401070905232143,-0.8451398084211101
7.400000000000806,-0.2765164193366608,-0.8833633438278146
7.600000000000873,-0.21185763677554362,-0.9251090427185634
7.8000000000009395,-0.15010884568980626,-0.9725121945205629
8.000000000001005,-0.11084894765676054,-1.0187352845801705
8.200000000000895,-0.0846196489760224,-1.0627326236391876
8.400000000000784,-0.059484972530313436,-1.0980690811338858
8.600000000000673,-0.045990369396204045,-1.1409479967677854
8.800000000000562,-0.049965442125798704,-1.1931550771010306
9.000000000000451,-0.06950234731074353,-1.2518084933147053
9.20000000000034,-0.10987200066785406,-1.3148401350111236
9.40000000000023,-0.1647259389543476,-1.3795117200897888
9.600000000000119,-0.22322144228831703,-1.4424223983528826
9.800000000000008,-0.2893526769763979,-1.498954651185466
10.000999999999896,-0.3414446867959299,-1.5419076377405225
10.200999999999786,-0.3966643436626598,-1.553687176382241
10.400999999999675,-0.4524282213716619,-1.5372427487124714
10.600999999999564,-0.5093579228780433,-1.4910922365216301
10.800999999999453,-0.5646696372272593,-1.4352039600085578
11.000999999999342,-0.6123648881915775,-1.3829040530633459
11.200999999999231,-0.6491100883318174,-1.3351600044414758
11.40099999999912,-0.662105022126621,-1.2831548362898195
11.60099999999901,-0.6529583148795741,-1.2277773587560241
11.800999999998899,-0.6319403363814393,-1.1739137625186238
12.000999999998788,-0.603947513891827,-1.1402390023364544
12.200999999998677,-0.5723993773942154,-1.1342165128618376
12.400999999998566,-0.527481299303622,-1.1483019443992657
12.600999999998455,-0.47608293960481984,-1.1723395605287386
12.800999999998345,-0.42864492019273215,-1.204171413041058
13.000999999998234,-0.3782992940489513,-1.2439683648070274
13.200999999998123,-0.3147163766259736,-1.2965326897494676
13.400999999998012,-0.24996619293402583,-1.3564061119446387
13.600999999997901,-0.19500929721674104,-1.4262826420373342
13.80099999999779,-0.16778345734553665,-1.4896500522489078
14.00099999999768,-0.1708441674083875,-1.5449735515105063
14.200999999997569,-0.18664210168993758,-1.6067011991015998
14.400999999997458,-0.21032800352322412,-1.671104905050299
14.600999999997347,-0.2336934345336167,-1.7287200790811732
14.800999999997236,-0.2817596450967472,-1.7845785963408265
15.000999999997125,-0.3528574988642568,-1.836717726101003
15.200999999997014,-0.43089105560391583,-1.8845214281395204
15.400999999996904,-0.5112072314620891,-1.9202920113484914
15.600999999996793,-0.583593172273907,-1.9357896365043512
15.800999999996682,-0.6524883873810498,-1.9233779525257209
16.000999999996573,-0.7193651378671562,-1.8970034388212573
16.200999999996817,-0.7850630807696286,-1.8647442221063237
16.40099999999706,-0.8344521290403789,-1.8166739956459657
16.600999999997306,-0.8500901153730023,-1.7624427403488447
16.80099999999755,-0.8426831263354959,-1.7086196662165398
17.000999999997795,-0.8151733581597793,-1.6408923053473419
17.20099999999804,-0.7732220894383672,-1.5646936955927835
17.400999999998284,-0.7223065767614263,-1.4874986787646602
17.60099999999853,-0.6696097711698417,-1.4187665154029865
17.800999999998773,-0.6116867806305987,-1.3653264740171056
18.000999999999017,-0.5445949668800064,-1.3395747615163578
18.20099999999926,-0.4797774067500214,-1.3399111339017966
18.400999999999506,-0.4236578301469996,-1.3553069865574148
18.60099999999975,-0.3875591583691777,-1.3761213291501193
18.799999999999994,-0.3781957586816752,-1.4094914876136384
19.000000000000238,-0.3876170899342372,-1.4498979041878348
19.200000000000482,-0.40999338218290865,-1.4937878823181052
19.400000000000727,-0.44028276718632176,-1.5293584123645274
19.60000000000097,-0.47541720556696593,-1.536576612553799
19.800000000001216,-0.5109547174814916,-1.5226305175878394
20.00000000000146,-0.5557671020210533,-1.496801919475625
