Time (s),X (m),Y (m)
0.001,0.0008829029745972832,0.0007899207378008392
0.20000000000000015,0.0059359470586881,0.004435092942849022
0.4000000000000003,0.009874297631059226,0.003995970930203564
0.6000000000000004,0.009644018718500801,-0.00037035557772798497
0.8000000000000006,0.017312100156995875,0.0028903417360378035
1.0000000000000007,0.023106037692928683,0.005291817168189449
1.2009999999999785,0.02879659835826059,0.006683953259577037
1.4009999999999565,0.03376060937956377,0.008060770581918477
1.6009999999999345,0.04238932390333518,0.010905946719266145
1.8009999999999124,0.04839161887006975,0.014975672547420124
2.0009999999998906,0.05476966502628008,0.020619419339801576
2.2009999999998686,0.060533696786216916,0.02962523292400257
2.4009999999998466,0.06709395883880684,0.03290476184655729
2.6009999999998246,0.07396610599786684,0.041459894253693626
2.8009999999998025,0.0800095255232861,0.04568927809245463
3.0009999999997805,0.08863322131145493,0.0477261143937345
3.2009999999997585,0.09535839932976402,0.051890340074651146
3.4009999999997365,0.10074002634243141,0.05824321598453738
3.6009999999997144,0.10693890034766036,0.06201665412132333
3.8009999999996924,0.11461405882670116,0.06966294332911692
4.000999999999671,0.1206029832999371,0.07689753335588334
4.200999999999738,0.12535023822843333,0.08224137819832847
4.400999999999804,0.13266788330738863,0.0861939346036217
4.600999999999871,0.1361522547180386,0.09178174141893185
4.800999999999938,0.1384175697166512,0.09831586604883491
5.000000000000004,0.13953139406481935,0.1075370613077393
5.200000000000071,0.14167546389858554,0.11320546321840048
5.400000000000138,0.14222579027852955,0.11756900435383087
5.600000000000205,0.14113399679428643,0.12578460119434604
5.800000000000272,0.14314398086116253,0.13187231403360722
6.000000000000338,0.14407437024309216,0.1356045658259539
6.200000000000405,0.14482886140668252,0.14200825302318704
6.400000000000472,0.14468406999531802,0.148191530143489
6.600000000000539,0.14308669055176226,0.15551227789097083
6.800000000000606,0.1406712738296548,0.16463595718649102
7.000000000000672,0.13556311512645508,0.17416185469535625
7.200000000000739,0.13608675950801788,0.18170455891135492
7.400000000000806,0.13409719609061074,0.1886945742793643
7.600000000000873,0.12616598806768392,0.19809948521917525
7.8000000000009395,0.12532177211530132,0.20570411243900105
8.000000000001005,0.12200571284926821,0.2115319013046963
8.200000000000895,0.11584110772431756,0.21883703400525106
8.400000000000784,0.11364350099573978,0.22586481511747022
8.600000000000673,0.10513163359247996,0.2334464420927608
8.800000000000562,0.1010768097953004,0.24085859586758768
9.000000000000451,0.1002338499059693,0.2488247718971991
9.20000000000034,0.09693910065612517,0.25598677368381945
9.40000000000023,0.09058649376726903,0.2622758686643233
9.600000000000119,0.0912301180653312,0.26933926298458233
9.800000000000008,0.08629397259340804,0.27423023539723335
10.000999999999896,0.07909489836531819,0.27931398020482245
10.200999999999786,0.07250154399415969,0.28313619366925546
10.400999999999675,0.06979190722407365,0.2897206699527559
10.600999999999564,0.06269688984852007,0.2915882807035807
10.800999999999453,0.05660602318676553,0.29321014956422103
11.000999999999342,0.04957238733026489,0.29415811398317065
11.200999999999231,0.04203587685644841,0.2954905689191103
11.40099999999912,0.034414579416606216,0.2969972836218569
11.60099999999901,0.025974018684029907,0.297200155414585
11.800999999998899,0.017350595741495972,0.2958118411191637
12.000999999998788,0.008763387922646615,0.29544261573690855
12.200999999998677,0.0013099162465256158,0.2949177967053577
12.400999999998566,-0.006448526519344041,0.29350955667295997
12.600999999998455,-0.013359784275503824,0.2936272531246149
12.800999999998345,-0.01932156318335629,0.29396532710911993
13.000999999998234,-0.02890298408835276,0.29084872886362306
13.200999999998123,-0.037717097024389745,0.2875349923146433
13.400999999998012,-0.045771249549181256,0.2839077274775409
13.600999999997901,-0.05421604050931128,0.27856822737320663
13.80099999999779,-0.06156359423632472,0.2763091022823935
14.00099999999768,-0.0702283474852622,0.2700103804046005
14.200999999997569,-0.07702829648716511,0.26498695501092984
14.400999999997458,-0.08480543885075473,0.25935063865768737
14.600999999997347,-0.09218943799355371,0.25489689351824596
14.800999999997236,-0.09892064510510011,0.24871561122491945
15.000999999997125,-0.10668283337206397,0.24010818994074712
15.200999999997014,-0.11423968288628819,0.23727978911234804
15.400999999996904,-0.1186504291770181,0.230276193942643
15.600999999996793,-0.12238341115411087,0.22241876864571672
15.800999999996682,-0.12806939238068024,0.2173667468339902
16.000999999996573,-0.13142548696119266,0.2093672375098284
16.200999999996817,-0.13465950472566168,0.20318550912103972
16.40099999999706,-0.1387755400198573,0.1980349836681275
16.600999999997306,-0.14344968143804743,0.19334328594113612
16.80099999999755,-0.1420462389147915,0.18484417120686134
17.000999999997795,-0.14407154746573236,0.17916773632954683
17.20099999999804,-0.14382449774541625,0.17179240200901932
17.400999999998284,-0.14620662320826092,0.16621589506152562
17.60099999999853,-0.14683922095522955,0.16065051527942661
17.800999999998773,-0.14686921215937535,0.15374741808614967
18.000999999999017,-0.14527529781654236,0.1428644513173096
18.20099999999926,-0.14258311921362282,0.13352049587371742
18.400999999999506,-0.14000774853469444,0.12461801186894379
18.60099999999975,-0.13711667736815106,0.11526111116285256
18.799999999999994,-0.13316788632020735,0.1050309093782363
19.000000000000238,-0.13102801962382696,0.09682296084965024
19.200000000000482,-0.12876312870978854,0.08980202263726066
19.400000000000727,-0.120116291070123,0.08061915422361282
19.60000000000097,-0.11300242824471896,0.07187889256489227
19.800000000001216,-0.10537477573630641,0.06352101901702116
20.00000000000146,-0.1032080706900251,0.05530843332491093
