Time (s),X (m),Y (m)
0.001,0.0005727611008870025,-0.0009689812320744441
0.20000000000000015,0.0022655960544903718,-0.003317773664675169
0.4000000000000003,0.013212432948901887,-0.012248037269972195
0.6000000000000004,0.03553653228489284,-0.019738678334581698
0.8000000000000006,0.06730737291818296,-0.02548544434497849
1.0000000000000007,0.09842131898611466,-0.05022110213838949
1.2009999999999785,0.13109470599289522,-0.08883939051801513
1.4009999999999565,0.16484081885993832,-0.13194015839217962
1.6009999999999345,0.18016684968202665,-0.17895179385288543
1.8009999999999124,0.16070515457062712,-0.23279533065813293
2.0009999999998906,0.1341975885037602,-0.2931487783694428
2.2009999999998686,0.10382491958469438,-0.3639071218029607
2.4009999999998466,0.06917736028987725,-0.4377512452305903
2.6009999999998246,0.037716975066327665,-0.5099775818132364
2.8009999999998025,0.0052252733117804295,-0.5830566887021404
3.0009999999997805,-0.0299984391472835,-0.6575543326104137
3.2009999999997585,-0.06697189637535651,-0.7313283738341589
3.4009999999997365,-0.11858986914582166,-0.8002453768354092
3.6009999999997144,-0.16717528492956532,-0.8719434279618709
3.8009999999996924,-0.2009520494927157,-0.940674289013074
4.000999999999671,-0.2284328116304358,-1.0069057660643226
4.200999999999738,-0.2880067916153118,-1.0676298308606673
4.400999999999804,-0.3490109467908437,-1.13324786708375
4.600999999999871,-0.41287474900188564,-1.2025773159433306
4.800999999999938,-0.46588477596458555,-1.2752874078905785
5.000000000000004,-0.5301764917603621,-1.3405874364212103
5.200000000000071,-0.6077836699641033,-1.402160592109585
5.400000000000138,-0.6885484458626862,-1.4556294498788356
5.600000000000205,-0.778275784549752,-1.5003545902316509
5.800000000000272,-0.8709317310806463,-1.524063546010135
6.000000000000338,-0.9624301910080543,-1.5388270492327538
6.200000000000405,-1.0398764500083257,-1.5060798805662678
6.400000000000472,-1.103016396538508,-1.4461668521888167
6.600000000000539,-1.1524567803558305,-1.383532017043028
6.800000000000606,-1.1584382598570346,-1.3162263215986525
7.000000000000672,-1.1227350060387942,-1.2484038935093564
7.200000000000739,-1.0840684162878789,-1.1772537077330532
7.400000000000806,-1.0414484309432088,-1.1021788445725993
7.600000000000873,-0.9970797632337989,-1.0285600937857116
7.8000000000009395,-0.9539542611619396,-0.9555699035056526
8.000000000001005,-0.9083168288251998,-0.8815354730652377
8.200000000000895,-0.8499139989788768,-0.8085113613239641
8.400000000000784,-0.7842213152910887,-0.7395775576664104
8.600000000000673,-0.7171601379664723,-0.6747985364299969
8.800000000000562,-0.6390006067876943,-0.6289359059633858
9.000000000000451,-0.5561277291024713,-0.6030843322774757
9.20000000000034,-0.4711917199170824,-0.6111531615302945
9.40000000000023,-0.3936665186217405,-0.639866363792811
9.600000000000119,-0.3216308330966551,-0.6865506020649049
9.800000000000008,-0.2516516799253069,-0.7436253587100755
10.000999999999896,-0.17671423353784466,-0.8030693318325044
10.200999999999786,-0.12793665397956147,-0.8606931333179832
10.400999999999675,-0.10674612408670144,-0.9236726810376054
10.600999999999564,-0.09479950838677748,-0.997650576918939
10.800999999999453,-0.10241632382082347,-1.0767019910549243
11.000999999999342,-0.1328670909179644,-1.1522209280571942
11.200999999999231,-0.17217232552094489,-1.230631673250693
11.40099999999912,-0.224940972927148,-1.302378401566064
11.60099999999901,-0.29264565711472385,-1.3683936690284013
11.800999999998899,-0.35012955996418,-1.4383347934102437
12.000999999998788,-0.40354409020790977,-1.503625405655004
12.200999999998677,-0.4587593997790754,-1.560591040130843
12.400999999998566,-0.5181409786023937,-1.5921372187417375
12.600999999998455,-0.5829412650706063,-1.5714916109889836
12.800999999998345,-0.6485863005304864,-1.5299003160779756
13.000999999998234,-0.709880107964921,-1.478576475503497
13.200999999998123,-0.7638913896600286,-1.419977013918181
13.400999999998012,-0.8004122762887883,-1.353974915061331
13.600999999997901,-0.8171826894551755,-1.282619209358267
13.80099999999779,-0.7975299150637799,-1.214312869770489
14.00099999999768,-0.7525812551803199,-1.1523439525943493
14.200999999997569,-0.6865969392406086,-1.105123981903777
14.400999999997458,-0.6088074838646905,-1.0780577499384256
14.600999999997347,-0.5285687826896833,-1.0620328921266855
14.800999999997236,-0.4448848977845669,-1.0724741212625897
15.000999999997125,-0.36459578026527095,-1.1041610825913493
15.200999999997014,-0.28667299465885215,-1.1575466475768774
15.400999999996904,-0.2091146361370772,-1.2065613129259294
15.600999999996793,-0.12934115831517848,-1.2504981533208634
15.800999999996682,-0.053076136731059535,-1.2982036710290041
16.000999999996573,0.016059405913678458,-1.362131347139344
16.200999999996817,0.07632064148471301,-1.4391437973514383
16.40099999999706,0.13376528041662245,-1.514122293232179
16.600999999997306,0.16019827902505257,-1.5876697800345865
16.80099999999755,0.15531086074878012,-1.6648442971091277
17.000999999997795,0.15145337210672627,-1.7465936277666905
17.20099999999804,0.1297845465535752,-1.8216920187901349
17.400999999998284,0.07978566909532725,-1.8674810572291198
17.60099999999853,0.016790244488646626,-1.8818259514133346
17.800999999998773,-0.05278068927956235,-1.8591152119451981
18.000999999999017,-0.12879012517154087,-1.830994692058925
18.20099999999926,-0.21129108222074172,-1.7930185403677548
18.400999999999506,-0.28692571054080224,-1.7569013372837767
18.60099999999975,-0.35361741473639136,-1.7061571289910262
18.799999999999994,-0.40461639944519173,-1.636139930462392
19.000000000000238,-0.4480567034174064,-1.5651790541257562
19.200000000000482,-0.4827345711561911,-1.497082350005394
19.400000000000727,-0.5068682311098283,-1.4174826082054497
19.60000000000097,-0.5104740360735485,-1.3344351049672731
19.800000000001216,-0.48665425166441845,-1.252373346770408
20.00000000000146,-0.44874339463689267,-1.1720578721205368
