Time (s),X (m),Y (m)
0.001,-4.680521708071185e-05,-0.0009960320817112695
0.20000000000000015,0.0034992741637801927,0.00595617834312195
0.4000000000000003,0.017383611164102003,0.011154289369118664
0.6000000000000004,0.03984313336903763,0.015097408152632878
0.8000000000000006,0.08128024919448652,0.01449768536601305
1.0000000000000007,0.12577709755986333,0.009280195204786157
1.2009999999999785,0.16565163511319045,-0.0014981360471374792
1.4009999999999565,0.1763851598971139,-0.015554055822945112
1.6009999999999345,0.1761410764959874,-0.03595954456575153
1.8009999999999124,0.18280302318609679,-0.06487129282551048
2.0009999999998906,0.19974280046211837,-0.09746096240174605
2.2009999999998686,0.23159245465579625,-0.13480780696135744
2.4009999999998466,0.2758437662140232,-0.1781466066541321
2.6009999999998246,0.31182618005064966,-0.2281463915313184
2.8009999999998025,0.329825492728787,-0.2832571138098561
3.0009999999997805,0.3307696014565513,-0.33303363188103874
3.2009999999997585,0.31735079981855896,-0.3677838322516945
3.4009999999997365,0.28948773905329245,-0.38446702410097616
3.6009999999997144,0.25849049446261935,-0.4035983977529025
3.8009999999996924,0.22285901747300432,-0.4257767753467716
4.000999999999671,0.1719791234707117,-0.44606797452342767
4.200999999999738,0.11086029097463346,-0.4686344916638769
4.400999999999804,0.06955466108981416,-0.4772263331654517
4.600999999999871,0.01679428684899792,-0.47494165759461987
4.800999999999938,-0.017777356415835645,-0.45303538195883003
5.000000000000004,-0.04338603656471089,-0.41183606296037306
5.200000000000071,-0.07195657810903464,-0.3604088622184505
5.400000000000138,-0.09975688028227372,-0.30171073808666105
5.600000000000205,-0.13308187185850698,-0.2366336347083018
5.800000000000272,-0.15523228471746883,-0.16299566435995674
6.000000000000338,-0.16921394450050056,-0.08865863487200082
6.200000000000405,-0.17862273504186663,-0.01798601481324434
6.400000000000472,-0.18654334116067278,0.06422721159720923
6.600000000000539,-0.19975191198390543,0.14693700345797456
6.800000000000606,-0.2161816266315317,0.2268042494400955
7.000000000000672,-0.2195607102756678,0.28232840897232697
7.200000000000739,-0.20468618700344426,0.32280965530013006
7.400000000000806,-0.17607950737119596,0.36550127517793446
7.600000000000873,-0.1345694235932457,0.39713749602085
7.8000000000009395,-0.0873754379926432,0.41659676388254285
8.000000000001005,-0.03127590286843067,0.4312625039747902
8.200000000000895,0.03312211999529229,0.45121255264127136
8.400000000000784,0.08233408504777662,0.45707718223255456
8.600000000000673,0.13394416635235643,0.4535064359095234
8.800000000000562,0.17802337749944847,0.4396030908558809
9.000000000000451,0.21038372907825023,0.41374226271715253
9.20000000000034,0.2330780868135101,0.37151237658040615
9.40000000000023,0.23759882165326585,0.3282905314715891
9.600000000000119,0.23531936279010626,0.27820984150784533
9.800000000000008,0.24780365672734936,0.22207609300693212
10.000999999999896,0.278884266439787,0.14842098363751094
10.200999999999786,0.3070479955433348,0.06755226078999475
10.400999999999675,0.3234159730630126,-0.015499966696502793
10.600999999999564,0.3318160748826564,-0.09863176535135061
10.800999999999453,0.3381233970061918,-0.17982708280100163
11.000999999999342,0.3420063476436146,-0.2538757862899084
11.200999999999231,0.3374649940509761,-0.3157629720891318
11.40099999999912,0.337308428833368,-0.3870922861754139
11.60099999999901,0.33846208344564915,-0.4722477015500469
11.800999999998899,0.3324723976230262,-0.5362832477773454
12.000999999998788,0.3087785143404702,-0.5980907899664489
12.200999999998677,0.27609185939182784,-0.6406090352699367
12.400999999998566,0.22878015997971748,-0.6716019574264672
12.600999999998455,0.16681691256775305,-0.6997913541870355
12.800999999998345,0.09875271690009449,-0.7287361875247109
13.000999999998234,0.028692429703589338,-0.7584056465949646
13.200999999998123,-0.04492960297251888,-0.7795378887461794
13.400999999998012,-0.11987427525676973,-0.8108972765510594
13.600999999997901,-0.20512367291838368,-0.8434052317564222
13.80099999999779,-0.2830438876276201,-0.8871588521315863
14.00099999999768,-0.3565515314027728,-0.9405086882179681
14.200999999997569,-0.428748444827106,-0.9920328468218126
14.400999999997458,-0.5045176843799523,-1.0174454752028088
14.600999999997347,-0.5777553014159441,-1.0426405224288078
14.800999999997236,-0.6476772798779883,-1.0814797282139934
15.000999999997125,-0.7116982756105631,-1.1055352460753343
15.200999999997014,-0.7762909042424214,-1.1139804336248098
15.400999999996904,-0.8489740654271816,-1.1249142252723632
15.600999999996793,-0.9201072495213815,-1.135392926117968
15.800999999996682,-1.0006724661284154,-1.142846368521198
16.000999999996573,-1.0934885412901387,-1.1519539887141286
16.200999999996817,-1.1845001981796253,-1.158692826043959
16.40099999999706,-1.2689408223750147,-1.1578582541643399
16.600999999997306,-1.3562553249477638,-1.1644701815934861
16.80099999999755,-1.4460925034587522,-1.18172648715297
17.000999999997795,-1.5245038913994031,-1.1918103341892379
17.20099999999804,-1.58562127804136,-1.189538787689491
17.400999999998284,-1.6312257051538774,-1.1749342620870233
17.60099999999853,-1.6814513588416953,-1.1435687701924493
17.800999999998773,-1.7524268341962486,-1.103732881739451
18.000999999999017,-1.8072738297646667,-1.0610952740754742
18.20099999999926,-1.8549022827441966,-1.0025104991870304
18.400999999999506,-1.9050476808874683,-0.9401321496980989
18.60099999999975,-1.9664047555758462,-0.8735205029082138
18.799999999999994,-2.0176147626580136,-0.7988867552469652
19.000000000000238,-2.0593504474411244,-0.7172338132078885
19.200000000000482,-2.092888563905306,-0.6291498542144387
19.400000000000727,-2.1205898369135836,-0.5423169204244264
19.60000000000097,-2.1412568945488832,-0.4498848950907857
19.800000000001216,-2.14971702060937,-0.3603035222187904
20.00000000000146,-2.165079832086841,-0.27321589267164353
