Time (s),X (m),Y (m)
0.001,-0.0003713730577023104,0.0008446836120385872
0.20000000000000015,0.00673806219832868,-0.005038826172282443
0.4000000000000003,0.015971646298485017,0.0009569009240126972
0.6000000000000004,0.036706187059730166,-0.0032448910016827297
0.8000000000000006,0.06568110570862022,0.00614995841225121
1.0000000000000007,0.09694657246545621,0.016163182048683982
1.2009999999999785,0.12827164311646747,0.022446151990393508
1.4009999999999565,0.1647475636877205,0.00511143844253278
1.6009999999999345,0.2098431104885161,0.0011678536060417126
1.8009999999999124,0.25658846381509004,-0.008506520854433328
2.0009999999998906,0.29080337639099735,-0.03767177092463359
2.2009999999998686,0.2957658570493102,-0.0679053741038289
2.4009999999998466,0.2853015169428432,-0.10221789256210795
2.6009999999998246,0.29102004040297347,-0.1409711541900724
2.8009999999998025,0.2845203287528397,-0.17841929253176372
3.0009999999997805,0.2734826575604323,-0.21513657761648178
3.2009999999997585,0.25775014559202525,-0.2514502889539386
3.4009999999997365,0.2296925974123822,-0.28538062985908424
3.6009999999997144,0.1987713342868807,-0.3196188319641728
3.8009999999996924,0.17220326081946266,-0.34996101724517126
4.000999999999671,0.13637281995084669,-0.37635587992334524
4.200999999999738,0.09552787652521319,-0.40619081905547416
4.400999999999804,0.06361099218051847,-0.438506942805613
4.600999999999871,0.02569863089645379,-0.43271836948991754
4.800999999999938,-0.017281846015236416,-0.412791900661681
5.000000000000004,-0.06075343404215043,-0.38784518391211636
5.200000000000071,-0.1005899326312446,-0.3466173939344385
5.400000000000138,-0.1347127621985359,-0.2915421884741773
5.600000000000205,-0.16456409274402956,-0.24561120274415676
5.800000000000272,-0.16429171816837307,-0.1968018655139662
6.000000000000338,-0.1533067868864237,-0.14721901084062697
6.200000000000405,-0.1292869480401503,-0.10553608090097973
6.400000000000472,-0.08481914445907747,-0.07921627141185265
6.600000000000539,-0.02926718371522557,-0.06998693042281622
6.800000000000606,0.02667321265969964,-0.07787671271786077
7.000000000000672,0.08347078237829551,-0.07776370854064994
7.200000000000739,0.13713878801252252,-0.08506463646788552
7.400000000000806,0.18456124405523652,-0.09652599270561446
7.600000000000873,0.22761001888106552,-0.11623064350048963
7.8000000000009395,0.26559726171332093,-0.13851824877920701
8.000000000001005,0.29384081001902224,-0.16976213726368664
8.200000000000895,0.3191940870459031,-0.2101180629434971
8.400000000000784,0.32969744364851095,-0.24716273340482825
8.600000000000673,0.328843243233811,-0.29001120915982587
8.800000000000562,0.30045720850753477,-0.3284837825156547
9.000000000000451,0.24012887296117835,-0.356107962487329
9.20000000000034,0.17022294313598946,-0.37836783265399027
9.40000000000023,0.10490979165570069,-0.3925375454900597
9.600000000000119,0.04386858980909629,-0.3956948077194391
9.800000000000008,-0.016640748780808172,-0.39036478593677726
10.000999999999896,-0.06868200057428048,-0.3640940542696251
10.200999999999786,-0.11609716381610122,-0.3202646802515752
10.400999999999675,-0.1571239691753705,-0.2840459649668337
10.600999999999564,-0.18627884993041433,-0.24310230422645504
10.800999999999453,-0.19829913480741843,-0.19160988896177977
11.000999999999342,-0.20537545834868798,-0.13734824851226118
11.200999999999231,-0.18569683569524045,-0.08831277053819667
11.40099999999912,-0.1468903356113774,-0.04136089547423587
11.60099999999901,-0.10393742561582867,0.003970758323665243
11.800999999998899,-0.05993547217191226,0.047061307580658795
12.000999999998788,-0.029502195532080767,0.09207758043537316
12.200999999998677,0.007715426782438414,0.1330395863959953
12.400999999998566,0.05862083388323671,0.16033505881651103
12.600999999998455,0.11163778618757074,0.1869857657353054
12.800999999998345,0.16067199665334664,0.21273766014699003
13.000999999998234,0.21157191664215297,0.2257943900739802
13.200999999998123,0.2698641693137944,0.2092303141357315
13.400999999998012,0.32360588574085297,0.1851418077122958
13.600999999997901,0.3692824514520524,0.1361864324529795
13.80099999999779,0.4004424852048004,0.08396342025784022
14.00099999999768,0.43253302265929705,0.03736427201443885
14.200999999997569,0.4589964370601808,-0.024110373171979088
14.400999999997458,0.4801188595348877,-0.09129484610921385
14.600999999997347,0.4942677675269568,-0.1550135409334891
14.800999999997236,0.4968174682493291,-0.21883396703127628
15.000999999997125,0.47759377687209775,-0.2817927562571423
15.200999999997014,0.45272061578856704,-0.34319879492711847
15.400999999996904,0.4210087453662464,-0.40246361693738925
15.600999999996793,0.3923775024717361,-0.4548516611873525
15.800999999996682,0.351127788542825,-0.5002538699866682
16.000999999996573,0.3143893424263608,-0.5401226469119638
16.200999999996817,0.2704287350678991,-0.5651582972901613
16.40099999999706,0.21449358895225262,-0.5753411155287642
16.600999999997306,0.15655564918963188,-0.5648574642508689
16.80099999999755,0.09994906108289703,-0.5354202886856175
17.000999999997795,0.05482469060011584,-0.49005025836554567
17.20099999999804,0.018881530344835296,-0.4335144696584531
17.400999999998284,-0.008599581310967892,-0.3717812288115026
17.60099999999853,-0.03140533984753829,-0.30524402285820124
17.800999999998773,-0.054653649798924404,-0.23433926855463594
18.000999999999017,-0.06858601175626325,-0.16356117154738806
18.20099999999926,-0.06466187284053197,-0.0922832446900552
18.400999999999506,-0.03795258651365481,-0.028631188650105503
18.60099999999975,0.004795355787769968,0.02004242956500593
18.799999999999994,0.07194949361239204,0.05069425706282707
19.000000000000238,0.13472613034987485,0.0867953484376696
19.200000000000482,0.19439161548157902,0.1267741656864736
19.400000000000727,0.25774926912496804,0.15953531000860943
19.60000000000097,0.3295719364274883,0.18098376944500663
19.800000000001216,0.39816412110667915,0.19942549445243068
20.00000000000146,0.45875624683842403,0.21558682784698516
