Time (s),X (m),Y (m)
0.001,0.000949226864630559,-0.0007291460897812452
0.20000000000000015,-0.0009759263580663332,0.002229296862697083
0.4000000000000003,0.005993425872305919,-0.0036861568671176957
0.6000000000000004,0.026177761336747724,-0.007785287518265352
0.8000000000000006,0.04581456571129522,0.0014680069180952806
1.0000000000000007,0.06669274308769262,-0.007632695986421815
1.2009999999999785,0.08799546013202762,-0.019223849179269743
1.4009999999999565,0.10906022896886665,-0.05040255658639475
1.6009999999999345,0.13419754713374485,-0.06829913255567441
1.8009999999999124,0.1578369962264701,-0.08679998900937415
2.0009999999998906,0.1737245391295492,-0.11422453495129858
2.2009999999998686,0.16906301695787926,-0.15886457570517665
2.4009999999998466,0.14779778017168319,-0.19752022723262763
2.6009999999998246,0.12109388454437923,-0.23634034007711807
2.8009999999998025,0.08462809420544025,-0.2712943938317514
3.0009999999997805,0.0331598964561838,-0.29312168875796596
3.2009999999997585,-0.0143662299171703,-0.3036519219649049
3.4009999999997365,-0.05224291319284637,-0.3121794722512096
3.6009999999997144,-0.09465583653415982,-0.3193453008823541
3.8009999999996924,-0.14677217248199304,-0.31659227867685397
4.000999999999671,-0.19416296507321676,-0.31960141060408137
4.200999999999738,-0.24386876448661496,-0.32561662585050266
4.400999999999804,-0.29136842341169455,-0.33321603434718916
4.600999999999871,-0.35228597200321815,-0.33245730324796413
4.800999999999938,-0.4077168704813938,-0.3392120487847956
5.000000000000004,-0.4561823181566683,-0.3367294110366719
5.200000000000071,-0.5006159427514685,-0.32974498009684483
5.400000000000138,-0.5440357101674113,-0.321316807714893
5.600000000000205,-0.5753980996275139,-0.2993442210541047
5.800000000000272,-0.5991939880364913,-0.27428016516603826
6.000000000000338,-0.6108647564623314,-0.2345684105444955
6.200000000000405,-0.6098007061522792,-0.18151786593343486
6.400000000000472,-0.6049879238979555,-0.13476649077361383
6.600000000000539,-0.576368855112059,-0.09070207349288809
6.800000000000606,-0.5392737145223653,-0.05200197334373515
7.000000000000672,-0.4954342709713849,-0.029313947803083072
7.200000000000739,-0.4477474829046535,-0.015268046499719655
7.400000000000806,-0.4002069040497983,-0.004562617956986752
7.600000000000873,-0.3500103321706986,-0.0031860014699126174
7.8000000000009395,-0.29848778255841624,-0.01144127907574615
8.000000000001005,-0.24492259756143642,-0.04340149111691482
8.200000000000895,-0.20103997739020896,-0.07893597073435552
8.400000000000784,-0.16621704692088363,-0.10881862501989106
8.600000000000673,-0.14355368041071329,-0.14960478255772938
8.800000000000562,-0.13329968719433216,-0.2003813826718637
9.000000000000451,-0.1380402051912773,-0.2657543101326071
9.20000000000034,-0.16047987814970963,-0.3297711553038647
9.40000000000023,-0.20054956693450326,-0.3875578002484835
9.600000000000119,-0.2363693165698764,-0.4320618549339209
9.800000000000008,-0.2885686682717284,-0.44833451538921243
10.000999999999896,-0.3503382993371665,-0.4548257988079018
10.200999999999786,-0.40531170692745266,-0.44616921885873684
10.400999999999675,-0.45593387924737294,-0.4238807826878772
10.600999999999564,-0.5033287047221887,-0.39584014852806193
10.800999999999453,-0.542182125268675,-0.35340600236845565
11.000999999999342,-0.5730843120033926,-0.31097840217119915
11.200999999999231,-0.5960344802913727,-0.2647229475813685
11.40099999999912,-0.5998882760417619,-0.2054246877864496
11.60099999999901,-0.5905868926386982,-0.1413922049713923
11.800999999998899,-0.5786440895855961,-0.07775494748894807
12.000999999998788,-0.5544649634650105,-0.013819693701169313
12.200999999998677,-0.5056959366293853,0.04792730645075372
12.400999999998566,-0.44773292389313823,0.09552535675076217
12.600999999998455,-0.40175845848301206,0.1324572053592496
12.800999999998345,-0.34615918404281587,0.14589640689638064
13.000999999998234,-0.28777765406341266,0.1543813938940964
13.200999999998123,-0.22710489429330286,0.15671080845613003
13.400999999998012,-0.16685196743676772,0.14166987119773775
13.600999999997901,-0.10276351515756303,0.12399015619517935
13.80099999999779,-0.04094104688673768,0.10668343759831743
14.00099999999768,0.010464261765890864,0.060126751155604376
14.200999999997569,0.04136463992346032,0.008358461385389086
14.400999999997458,0.06068782543172311,-0.046421090873949376
14.600999999997347,0.07339080777837521,-0.10001588524441712
14.800999999997236,0.06039002069834552,-0.15060363155008888
15.000999999997125,0.027982157592204883,-0.1957532399816757
15.200999999997014,-0.022934676903219594,-0.229079022895367
15.400999999996904,-0.0680780608051772,-0.2549059150204909
15.600999999996793,-0.1170852276285966,-0.2720016370430803
15.800999999996682,-0.164447576130288,-0.2897038307529772
16.000999999996573,-0.21899431989396886,-0.3045551471502668
16.200999999996817,-0.26972723584479236,-0.31542497142826753
16.40099999999706,-0.32215787409902813,-0.3088346745313781
16.600999999997306,-0.38192852095983953,-0.2832711573966344
16.80099999999755,-0.43424692368276807,-0.25510697352925543
17.000999999997795,-0.4574736965811496,-0.21613584190467872
17.20099999999804,-0.45831747375858106,-0.16849302971637967
17.400999999998284,-0.4449857327101836,-0.11786232056943644
17.60099999999853,-0.42269363265094567,-0.07079163662687327
17.800999999998773,-0.3861611523083056,-0.035024595967105894
18.000999999999017,-0.3477681283964721,-0.00950839501278075
18.20099999999926,-0.31039934383568474,0.014472805612011176
18.400999999999506,-0.2713464372154928,0.029735015261531272
18.60099999999975,-0.22547065114686893,0.01786632226796385
18.799999999999994,-0.17986522967494384,-0.012185786434419017
19.000000000000238,-0.13591861171593073,-0.06347747142625496
19.200000000000482,-0.10035713770517218,-0.12409637923581661
19.400000000000727,-0.0773542342882569,-0.18818450239350315
19.60000000000097,-0.05511204162618026,-0.23984263534244168
19.800000000001216,-0.04487159373465784,-0.29469171798604504
20.00000000000146,-0.04015365478238151,-0.3511446943093913
