Time (s),X (m),Y (m)
0.001,0.0011890620069237587,-0.00035268032603768894
0.20000000000000015,-0.0015725894451406885,0.0007307781256987918
0.4000000000000003,0.0026318320824101024,-0.0025436349859454354
0.6000000000000004,0.013221666933690934,-0.005101257121008215
0.8000000000000006,0.029801655969439428,-0.016520125020776388
1.0000000000000007,0.05160884547968825,-0.025826523515598485
1.2009999999999785,0.07647046802619009,-0.03299560606972554
1.4009999999999565,0.09882409657562423,-0.045652001499721234
1.6009999999999345,0.12187832849472201,-0.07146236377798366
1.8009999999999124,0.14049056485402525,-0.10076309247234569
2.0009999999998906,0.14498396257877294,-0.12581174656123026
2.2009999999998686,0.1399953447336059,-0.15211964961959196
2.4009999999998466,0.13490952440925838,-0.18340296181676558
2.6009999999998246,0.1346975620185008,-0.21021733627362396
2.8009999999998025,0.1332319921570268,-0.23725000776439722
3.0009999999997805,0.12506354567521338,-0.26668448368851466
3.2009999999997585,0.09977627095777807,-0.2969585826370633
3.4009999999997365,0.07480371722116785,-0.3282472878642026
3.6009999999997144,0.050222762436439965,-0.35851812562287394
3.8009999999996924,0.012897876001057068,-0.3759623931605323
4.000999999999671,-0.026934508215305988,-0.37885556900577877
4.200999999999738,-0.06342146983025332,-0.3709017575889704
4.400999999999804,-0.10042943054850982,-0.353594859923113
4.600999999999871,-0.14514321843099331,-0.3225720504297301
4.800999999999938,-0.18878441912817842,-0.27361555761277395
5.000000000000004,-0.227990987561151,-0.2346683594995562
5.200000000000071,-0.2514943878456764,-0.20662802452659113
5.400000000000138,-0.2547832836097516,-0.16968684088592442
5.600000000000205,-0.23714591394441611,-0.12007289197606077
5.800000000000272,-0.22370598380966097,-0.07279418793216982
6.000000000000338,-0.21562692052289384,-0.027623540280933466
6.200000000000405,-0.19554062760058197,0.0213265833390223
6.400000000000472,-0.17216851846303527,0.06863594429961517
6.600000000000539,-0.16125532040990187,0.10553018318115406
6.800000000000606,-0.1446938103632177,0.1318908434665682
7.000000000000672,-0.1174388900656037,0.14009530815251656
7.200000000000739,-0.07238296901859961,0.13453746139594758
7.400000000000806,-0.03083976042553633,0.12283447353600901
7.600000000000873,0.007387832607544943,0.10618040416169675
7.8000000000009395,0.047271817380180096,0.08744397528322628
8.000000000001005,0.09553898261244834,0.06784361118916638
8.200000000000895,0.15172745077889635,0.04509014444930737
8.400000000000784,0.2059107084598784,0.029219513683682093
8.600000000000673,0.2596436439841364,0.008700667408920846
8.800000000000562,0.3028923715802152,-0.006997531195447359
9.000000000000451,0.3426979684841436,-0.02909218101676919
9.20000000000034,0.3938272443085218,-0.05926009361379442
9.40000000000023,0.4503301454398155,-0.08777439862743246
9.600000000000119,0.5062891206531516,-0.11923289614130123
9.800000000000008,0.5468109302778748,-0.16543969008325532
10.000999999999896,0.556298048052317,-0.22195945631069286
10.200999999999786,0.5506765627808256,-0.2762355965920887
10.400999999999675,0.5379469929007732,-0.31278224135705146
10.600999999999564,0.512148814318922,-0.3266902210134905
10.800999999999453,0.47919880965848294,-0.3275566388779937
11.000999999999342,0.4373969388350903,-0.3205090469208435
11.200999999999231,0.39152663671222765,-0.31289097942029065
11.40099999999912,0.3428124670042907,-0.3019762756421417
11.60099999999901,0.2957651929606881,-0.2877687403309735
11.800999999998899,0.23847170355413036,-0.2551901097295221
12.000999999998788,0.19054032495413759,-0.19335317714111777
12.200999999998677,0.17960866040962015,-0.13344036258722242
12.400999999998566,0.20200557720949705,-0.0786020362875691
12.600999999998455,0.24743051053941276,-0.026403180289612534
12.800999999998345,0.2940775381658132,0.011539206594188025
13.000999999998234,0.3372285988646683,0.026004429375815628
13.200999999998123,0.3862732806048263,0.01619867617680545
13.400999999998012,0.44133415766907413,-0.006473141295605402
13.600999999997901,0.5013415998360232,-0.04636497304894338
13.80099999999779,0.5599981190010795,-0.08009490713065391
14.00099999999768,0.6133035243660356,-0.12327855231519794
14.200999999997569,0.6540697988186983,-0.17084699922745447
14.400999999997458,0.6767317886485053,-0.21889225165893442
14.600999999997347,0.690951456732007,-0.2596824568888635
14.800999999997236,0.7047954168456375,-0.29170856659499766
15.000999999997125,0.7087110176816668,-0.3294402766937979
15.200999999997014,0.7034915421011784,-0.37209128109035783
15.400999999996904,0.6911834011657572,-0.4155097545615869
15.600999999996793,0.669456074013205,-0.47041297620919026
15.800999999996682,0.640309223863842,-0.5347187739747931
16.000999999996573,0.6132080353235981,-0.5975653037453723
16.200999999996817,0.5815506103941257,-0.6598595789625216
16.40099999999706,0.5473417482620867,-0.7172455749243072
16.600999999997306,0.5063284375531024,-0.7632541584470685
16.80099999999755,0.45035371181361217,-0.7797187907561183
17.000999999997795,0.38931501816748165,-0.7743558339509709
17.20099999999804,0.3337062753350338,-0.7614400936959671
17.400999999998284,0.27953609567677795,-0.7424557263570029
17.60099999999853,0.22486466263772498,-0.7197830316533028
17.800999999998773,0.165565900213116,-0.6910518216998347
18.000999999999017,0.10007059517945976,-0.6584295913935978
18.20099999999926,0.04062226955600525,-0.6337634912615686
18.400999999999506,-0.002143088400053447,-0.6029023058532473
18.60099999999975,-0.025237088218075448,-0.5523605050537884
18.799999999999994,-0.04113558336051508,-0.5048335489548714
19.000000000000238,-0.05107950982564256,-0.47079281841647164
19.200000000000482,-0.05677578489060236,-0.43512918542359047
19.400000000000727,-0.04975184875882626,-0.3905110718290269
19.60000000000097,-0.03296422891316359,-0.3357506213083705
19.800000000001216,-0.0074101400340424615,-0.27951387198388083
20.00000000000146,0.017639068866516325,-0.22511776409874903
