Time (s),X (m),Y (m)
0.001,4.1020280575708355e-05,-0.0010155025257856578
0.20000000000000015,0.004383158913994087,0.0020164551531603927
0.4000000000000003,0.017521261106201533,0.005200235205169977
0.6000000000000004,0.03636590121713273,0.0063649474426918685
0.8000000000000006,0.061630841061955335,-0.005087119837553382
1.0000000000000007,0.09035250164972865,-0.023184747041397738
1.2009999999999785,0.11556969304555872,-0.05774792100946522
1.4009999999999565,0.15758559428474953,-0.08173533213257854
1.6009999999999345,0.20517768078201562,-0.08718649883175887
1.8009999999999124,0.2612339602443562,-0.09433385472483818
2.0009999999998906,0.3218706915471623,-0.10232169439623506
2.2009999999998686,0.36420586757167256,-0.11997647442205428
2.4009999999998466,0.407583636432095,-0.1467632784543764
2.6009999999998246,0.4401208365214705,-0.18550778533147835
2.8009999999998025,0.48252594783638414,-0.223272283741565
3.0009999999997805,0.5190762732871533,-0.25969556749091793
3.2009999999997585,0.5386433832726577,-0.3003684623996507
3.4009999999997365,0.5654625749782435,-0.34731713900337685
3.6009999999997144,0.6011419420215496,-0.3988289820630089
3.8009999999996924,0.619926488110624,-0.4537450836399067
4.000999999999671,0.6149235563946704,-0.5048848030135724
4.200999999999738,0.6025352767885572,-0.5545682899895542
4.400999999999804,0.5902045927668417,-0.6069023090431641
4.600999999999871,0.5714141506720978,-0.6358060507931809
4.800999999999938,0.5449903829362382,-0.6491488917902926
5.000000000000004,0.5119618936073947,-0.6665411370407532
5.200000000000071,0.4704801769194823,-0.6730662910074057
5.400000000000138,0.4260863666484531,-0.6628804570992904
5.600000000000205,0.3827242180176617,-0.6443149518760589
5.800000000000272,0.33471330529457843,-0.6244874099427982
6.000000000000338,0.3049025943921349,-0.5996993008818647
6.200000000000405,0.2838920977905582,-0.5647266541349034
6.400000000000472,0.2669811051886332,-0.5188794291391114
6.600000000000539,0.26111330439057684,-0.4747459850912465
6.800000000000606,0.2625999390163051,-0.430279908862388
7.000000000000672,0.274322909408154,-0.3935249072571427
7.200000000000739,0.29635531991675057,-0.3737890834490278
7.400000000000806,0.33213599141540534,-0.37428677266515986
7.600000000000873,0.3679793974785548,-0.38671747229790754
7.8000000000009395,0.4122033768011704,-0.40480481764058585
8.000000000001005,0.4630092391905725,-0.4244120864019075
8.200000000000895,0.49215865890408056,-0.45496852459477394
8.400000000000784,0.5128287175415966,-0.4953202534925603
8.600000000000673,0.524226512972178,-0.5467621331610688
8.800000000000562,0.5179738452922518,-0.5989659618887128
9.000000000000451,0.5168115002536757,-0.6509211415728268
9.20000000000034,0.5081032287286495,-0.7046031263247117
9.40000000000023,0.49961425608795884,-0.7600860491869438
9.600000000000119,0.4904566284098289,-0.8133025022048797
9.800000000000008,0.47468396883954667,-0.8587527128660842
10.000999999999896,0.4527255838112019,-0.9024892358142502
10.200999999999786,0.4287685775236045,-0.9529128487170698
10.400999999999675,0.38924114207673155,-0.9931730798655231
10.600999999999564,0.3364971883298204,-1.0050190797548486
10.800999999999453,0.2751781859720163,-1.016742792372457
11.000999999999342,0.2059256011250971,-1.0201981977635386
11.200999999999231,0.14860413475877052,-1.0014480127523695
11.40099999999912,0.13114760493067104,-0.9640461091948617
11.60099999999901,0.11233142430961753,-0.911677099426413
11.800999999998899,0.09549433175296049,-0.8591307195572121
12.000999999998788,0.08983779905573275,-0.8048872279408874
12.200999999998677,0.08709402635281985,-0.7523768111055485
12.400999999998566,0.09364507434091773,-0.6951498408780618
12.600999999998455,0.10443668318462657,-0.6278468974469825
12.800999999998345,0.11638824603431792,-0.5536530003872754
13.000999999998234,0.13397708885107112,-0.4815103965371605
13.200999999998123,0.15272150938713386,-0.4062971962496892
13.400999999998012,0.1788923902320119,-0.3416604142779563
13.600999999997901,0.21303772410529423,-0.3115107774434265
13.80099999999779,0.2550329393556947,-0.2990772216898448
14.00099999999768,0.30751690668176745,-0.2769318943702334
14.200999999997569,0.3682119499075918,-0.24002718068994988
14.400999999997458,0.4345038871672375,-0.21731551765763055
14.600999999997347,0.5036696515490923,-0.19412551504722222
14.800999999997236,0.5718810112499313,-0.18290665087600821
15.000999999997125,0.6495356092075173,-0.17180763144346672
15.200999999997014,0.7262836374325965,-0.16723975296096258
15.400999999996904,0.7976014893711596,-0.16719890003683327
15.600999999996793,0.861882281672386,-0.18245626681686816
15.800999999996682,0.9189924297780756,-0.20464608444524482
16.000999999996573,0.9739907958796762,-0.2283280921740825
16.200999999996817,1.0277386964339617,-0.2520437672562467
16.40099999999706,1.0857111764209684,-0.25980385182836496
16.600999999997306,1.1486134412922533,-0.26375118499574485
16.80099999999755,1.212389996117462,-0.25872226234680157
17.000999999997795,1.2788449213123496,-0.25748155678849943
17.20099999999804,1.3477043368949948,-0.2545384687751373
17.400999999998284,1.4196311573208453,-0.2385169809743588
17.60099999999853,1.4860839745977892,-0.22782684611980883
17.800999999998773,1.546341324211322,-0.2329579533714395
18.000999999999017,1.610453345522698,-0.24501076101476876
18.20099999999926,1.661551850495956,-0.2642617507380881
18.400999999999506,1.7319411874343196,-0.2816133145960693
18.60099999999975,1.7989717205966655,-0.29686936790181623
18.799999999999994,1.8282154068240348,-0.32808521381512784
19.000000000000238,1.853665705141208,-0.37491283015662186
19.200000000000482,1.8821293234008984,-0.43523335828348675
19.400000000000727,1.90455920317644,-0.5077597957079454
19.60000000000097,1.9084717502524269,-0.5723724873211425
19.800000000001216,1.905656384248726,-0.6338408794090229
20.00000000000146,1.9001323922160924,-0.694686158948391
