Time (s),X (m),Y (m)
0.001,-0.0005090653149319316,-0.0007291460897812452
0.20000000000000015,0.0077102858263137135,0.003624546622081615
0.4000000000000003,0.008378986978625056,-0.0028567752166557595
0.6000000000000004,0.013535057778715527,0.0020647564540626573
0.8000000000000006,0.019445916721098112,-0.00036559537011000723
1.0000000000000007,0.04121657717089657,0.003399772304774744
1.2009999999999785,0.05473387296908069,0.014723629237994059
1.4009999999999565,0.07574886714117852,0.025973842531266302
1.6009999999999345,0.10073051454529008,0.03450178566794568
1.8009999999999124,0.12685438528737183,0.0458639845811992
2.0009999999998906,0.1445553711241523,0.046578641282157315
2.2009999999998686,0.16709571825705039,0.03829433675752785
2.4009999999998466,0.19593782343763208,0.03685514289734072
2.6009999999998246,0.22431429045976542,0.04198152246100526
2.8009999999998025,0.24992866446907155,0.05174094973921797
3.0009999999997805,0.2834354039240082,0.05144636434896588
3.2009999999997585,0.313942578018604,0.060966813935372385
3.4009999999997365,0.33987129259497606,0.060834330480781934
3.6009999999997144,0.3682156971776216,0.06489042344196307
3.8009999999996924,0.3965830403425879,0.08122429315924411
4.000999999999671,0.4289491379420558,0.10322287371955301
4.200999999999738,0.45894796781761604,0.13626474548344744
4.400999999999804,0.4904364249497292,0.15224983246005863
4.600999999999871,0.5262949067198415,0.15858411229067154
4.800999999999938,0.5554888060266471,0.17077343446637852
5.000000000000004,0.5848179539489475,0.18678519972521437
5.200000000000071,0.6177132387555504,0.18965836124106933
5.400000000000138,0.6534966850136791,0.20275336771511843
5.600000000000205,0.6888319647205545,0.22445402184172727
5.800000000000272,0.725699433039405,0.24365193076561353
6.000000000000338,0.7606082734721163,0.264849790373468
6.200000000000405,0.7933735257618257,0.286738673331304
6.400000000000472,0.8254599434560481,0.3180695713383956
6.600000000000539,0.855946203003294,0.3481500381655545
6.800000000000606,0.8883738361070465,0.36176984591654
7.000000000000672,0.9158657006693746,0.36820990865651143
7.200000000000739,0.9366917938487341,0.386694702575379
7.400000000000806,0.9604930641955691,0.4050598276506935
7.600000000000873,0.9873919782119175,0.4337632944734982
7.8000000000009395,1.0213610997026916,0.44478036570740975
8.000000000001005,1.0506736928471099,0.4682109043787263
8.200000000000895,1.0740659245265956,0.4877341386096897
8.400000000000784,1.0988564610448885,0.5054548939449446
8.600000000000673,1.1187999762858196,0.5557573837553533
8.800000000000562,1.143885832330931,0.5857126860745376
9.000000000000451,1.1674951501492021,0.6121738049884512
9.20000000000034,1.1935981422768749,0.6458638611082329
9.40000000000023,1.2266255440078353,0.6705870855574859
9.600000000000119,1.2574523266961792,0.7049571840223425
9.800000000000008,1.2887405504592948,0.732646045950723
10.000999999999896,1.311029064914713,0.763359887774826
10.200999999999786,1.3356203780243594,0.7894572007028573
10.400999999999675,1.3609381365510953,0.8256336797917647
10.600999999999564,1.3828586674265846,0.8756790817453884
10.800999999999453,1.4049312108040106,0.9197537750594178
11.000999999999342,1.432438100828091,0.960196959146616
11.200999999999231,1.4627933081961026,0.9910943249207557
11.40099999999912,1.4919889788412946,1.024130907509534
11.60099999999901,1.5223405402541619,1.0619657791426331
11.800999999998899,1.5571430291262924,1.0853437095218403
12.000999999998788,1.583981311088991,1.1055667418494017
12.200999999998677,1.606777140016101,1.1330561111133863
12.400999999998566,1.636926986921993,1.145349087761574
12.600999999998455,1.6618543778966848,1.162071666371793
12.800999999998345,1.6878306286482492,1.1875537133416223
13.000999999998234,1.7086244601508265,1.2099876350329033
13.200999999998123,1.7303473901853919,1.2443179425920343
13.400999999998012,1.7510712293442987,1.2578610135893646
13.600999999997901,1.7747558835612942,1.2726922711013104
13.80099999999779,1.7981418880925637,1.3042231463191307
14.00099999999768,1.820024791853854,1.3308620426697229
14.200999999997569,1.8369073277859624,1.3578636705789477
14.400999999997458,1.8525460167463699,1.3941487016799656
14.600999999997347,1.8664880141855056,1.4173545145989326
14.800999999997236,1.884665370647973,1.4386350216946078
15.000999999997125,1.8998200784088795,1.4738246522754754
15.200999999997014,1.910858486712408,1.517592655700948
15.400999999996904,1.921288541567202,1.5514661263071816
15.600999999996793,1.9356923128944439,1.5881107541025985
15.800999999996682,1.9501420862538368,1.6135016053153388
16.000999999996573,1.9595335835966052,1.6499124615764111
16.200999999996817,1.959991081662977,1.6849874215377005
16.40099999999706,1.9618958234737096,1.72722503344184
16.600999999997306,1.9655309066337354,1.7714004996035124
16.80099999999755,1.9722676202011602,1.8101673849327353
17.000999999997795,1.972053177127876,1.8524856474144236
17.20099999999804,1.9694901609686586,1.8927424894349263
17.400999999998284,1.9663826762859045,1.9386832424551677
17.60099999999853,1.9673392264790694,1.978518756751585
17.800999999998773,1.9618923750682309,2.0223315813023186
18.000999999999017,1.9585978162773792,2.0669455137446437
18.20099999999926,1.948438553974071,2.125352253883585
18.400999999999506,1.9375120570696283,2.1715285341422015
18.60099999999975,1.9314353518076912,2.2081300019256997
18.799999999999994,1.9273798593802751,2.2491395041501656
19.000000000000238,1.9180150395206494,2.2870802121365528
19.200000000000482,1.907378366311036,2.3312418108779007
19.400000000000727,1.893981057279124,2.3731456796733146
19.60000000000097,1.8871211533802648,2.4187493319553903
19.800000000001216,1.8931456259407782,2.459562387720244
20.00000000000146,1.9004321357558975,2.5002514627065824
