Time (s),X (m),Y (m)
0.001,4.1020280575708355e-05,-0.0010155025257856578
0.20000000000000015,0.002661610515665196,0.0029902751206505843
0.4000000000000003,0.005665999386209934,0.009501844588143635
0.6000000000000004,0.012045574411819549,0.010224835357856597
0.8000000000000006,0.025979897643868582,0.009227570380622076
1.0000000000000007,0.033731552218373616,-0.0048607246567633185
1.2009999999999785,0.04496832722322662,-0.0002930451079624899
1.4009999999999565,0.06413585804839474,0.002909631670065744
1.6009999999999345,0.08562883192089289,0.008784827254396351
1.8009999999999124,0.10703101639773564,0.0195031917754612
2.0009999999998906,0.13150253654836483,0.031128755876570543
2.2009999999998686,0.1506802901505634,0.027060448758540422
2.4009999999998466,0.1694331416309772,0.02391496968754165
2.6009999999998246,0.18674687247703625,0.013898755199602443
2.8009999999998025,0.20614027344898686,0.008490065876914752
3.0009999999997805,0.22664422256801073,0.02218302570194631
3.2009999999997585,0.24197445041327106,0.019588680326025933
3.4009999999997365,0.25755567119137596,0.009737172732903763
3.6009999999997144,0.283979212894335,0.021822124845507267
3.8009999999996924,0.30348928498024486,0.014572749970450093
4.000999999999671,0.3266635803233626,0.018002306035563246
4.200999999999738,0.35027960611976583,0.013678924983743972
4.400999999999804,0.365164521378299,8.967679541448784e-05
4.600999999999871,0.38824981818980003,-0.00036668332515918563
4.800999999999938,0.4086118128778622,-0.008340449649593984
5.000000000000004,0.43152743014322725,-0.004068856936447439
5.200000000000071,0.4574469956160798,-0.005371404688372469
5.400000000000138,0.4890403625817106,-0.010090031337521515
5.600000000000205,0.5111530710026736,-0.018969679358737872
5.800000000000272,0.5318974915920568,-0.026116443799796774
6.000000000000338,0.5554027152663953,-0.015596616644946193
6.200000000000405,0.5845211103854043,-0.008724952453861231
6.400000000000472,0.6107623737571153,0.0008389148121909301
6.600000000000539,0.6346742640331179,0.0036886896809369602
6.800000000000606,0.6578115946316212,-0.002458570419895793
7.000000000000672,0.6739389348292031,-0.01790894706373296
7.200000000000739,0.6972584773183094,-0.019447606252063772
7.400000000000806,0.7170306565496017,-0.021984721592468087
7.600000000000873,0.7337089264539361,-0.029509616060978662
7.8000000000009395,0.7519484201536137,-0.036919914176369244
8.000000000001005,0.7708151042088424,-0.04556460668412352
8.200000000000895,0.7887326354937495,-0.04831060224283642
8.400000000000784,0.806480312646615,-0.05208302808492168
8.600000000000673,0.8307297141872766,-0.0477320415427076
8.800000000000562,0.8545364740951227,-0.05280542023103459
9.000000000000451,0.8758347773489791,-0.05414109324333039
9.20000000000034,0.8971304408596336,-0.04276004897202719
9.40000000000023,0.9234132349549016,-0.03572212468885496
9.600000000000119,0.9480983657626706,-0.03165061926816773
9.800000000000008,0.9657406738367645,-0.03716907705071803
10.000999999999896,0.9886900879318345,-0.028540782486632436
10.200999999999786,1.0188888161881806,-0.028120832388499585
10.400999999999675,1.0441893505905693,-0.03483887694858308
10.600999999999564,1.068294459723362,-0.026446375277733664
10.800999999999453,1.0986943805469374,-0.020960895520709757
11.000999999999342,1.1187031083433234,-0.027992177256612558
11.200999999999231,1.1350237177419016,-0.04134835925293804
11.40099999999912,1.1549295404741162,-0.03556551202217573
11.60099999999901,1.1727524148583899,-0.03554129996905984
11.800999999998899,1.1939397644929512,-0.037073126415226205
12.000999999998788,1.2177842564264627,-0.030924980742219263
12.200999999998677,1.2390527288224404,-0.02079032165843284
12.400999999998566,1.2635272672580455,-0.006650324779812602
12.600999999998455,1.2857873800775594,0.0034728954438057722
12.800999999998345,1.3078143279675545,0.006297288158791399
13.000999999998234,1.3328079149489922,0.01339187767956191
13.200999999998123,1.357210312749227,0.008275324181342183
13.400999999998012,1.3828496042474536,0.013115099463956479
13.600999999997901,1.4095741615014226,0.00500659625167644
13.80099999999779,1.4384112841039463,0.005604566559660552
14.00099999999768,1.4610724191940936,0.013315359728555668
14.200999999997569,1.4826829980836416,0.008133592893127406
14.400999999997458,1.5055240909397574,0.005307479834999636
14.600999999997347,1.5302935245583766,-0.002167642636326584
14.800999999997236,1.5440784160934344,-0.011563408719410544
15.000999999997125,1.5617365485258328,-0.005880596782868806
15.200999999997014,1.5863929356784967,0.0009275527468111929
15.400999999996904,1.610622728253167,0.0015252616105751425
15.600999999996793,1.6353439404964756,8.832607196015884e-05
15.800999999996682,1.6633969956797245,0.009749999285403713
16.000999999996573,1.6928853760368525,0.013972546543614382
16.200999999996817,1.712931202748902,0.012726739969698593
16.40099999999706,1.7350286262084307,0.009580889801613262
16.600999999997306,1.758513200627392,0.003983547720699598
16.80099999999755,1.7848730417045584,0.005514439239516732
17.000999999997795,1.8098679660767711,0.0007003116062065448
17.20099999999804,1.8273213148228118,0.0007341873963243848
17.400999999998284,1.8444288199059375,-0.0016403590905600968
17.60099999999853,1.8660423070657244,0.004025490735480398
17.800999999998773,1.8844476348253465,-0.0013644806844133454
18.000999999999017,1.9059572164086012,0.0011772623311966995
18.20099999999926,1.9301308035795515,0.00045180986046370697
18.400999999999506,1.9510934014483736,-0.0001880984786385246
18.60099999999975,1.9778451522084168,0.004117359258558302
18.799999999999994,2.0087406683125906,0.019719447055106025
19.000000000000238,2.037394911150178,0.024568389608127458
19.200000000000482,2.060775166298203,0.024543538678876188
19.400000000000727,2.0829559871328422,0.03144176794257719
19.60000000000097,2.10760915920033,0.033456860718273834
19.800000000001216,2.1314534863716545,0.0318195273136989
20.00000000000146,2.157356991411432,0.02856914586866134
