Time (s),X (m),Y (m)
0.001,-0.0006246028371892732,0.000591453832551625
0.20000000000000015,0.006183104774130563,-0.0018883123436614767
0.4000000000000003,0.018267615469082905,0.00029168471409442965
0.6000000000000004,0.0415827296012821,-0.0011743209069725931
0.8000000000000006,0.06888142079263694,-0.009402303039045361
1.0000000000000007,0.0941257273280197,-0.004401433690760746
1.2009999999999785,0.12244282741597758,-0.0017128928204929725
1.4009999999999565,0.14727053889692884,-0.028532724732412442
1.6009999999999345,0.1590544686563246,-0.06846253526433148
1.8009999999999124,0.1653699887326367,-0.11586507724650227
2.0009999999998906,0.17564317386352848,-0.18016698918779805
2.2009999999998686,0.18454861849514598,-0.23852074785624341
2.4009999999998466,0.17920076206794436,-0.27906346502378193
2.6009999999998246,0.16591737736563347,-0.3270151753414722
2.8009999999998025,0.16105355152473042,-0.3748956594319306
3.0009999999997805,0.1613470482678646,-0.42385998028631516
3.2009999999997585,0.158959932053213,-0.46959338009168683
3.4009999999997365,0.1425080869404342,-0.5075045110955224
3.6009999999997144,0.1115376422718197,-0.5217453762652986
3.8009999999996924,0.06901610318890647,-0.517938422165104
4.000999999999671,0.029822270922669453,-0.5032164470344205
4.200999999999738,-0.0025943089837726233,-0.4857366175667943
4.400999999999804,-0.013680786040196116,-0.46772226848107334
4.600999999999871,-0.015390597035668264,-0.4401169446162102
4.800999999999938,-0.009243935097858988,-0.40496369267378146
5.000000000000004,0.01750022373762954,-0.37864047360985986
5.200000000000071,0.062256818674724296,-0.36281250275544213
5.400000000000138,0.11550264760790385,-0.35147092105317845
5.600000000000205,0.1705901407665356,-0.35836835465332245
5.800000000000272,0.22672363543942883,-0.3850288746583721
6.000000000000338,0.2825268094925515,-0.42649046758206294
6.200000000000405,0.328684430192948,-0.44972272282207393
6.400000000000472,0.36145211315525466,-0.47776738527046403
6.600000000000539,0.3744280639154609,-0.5289535700603101
6.800000000000606,0.37250886720220966,-0.5849891629767745
7.000000000000672,0.3587548869888171,-0.6364585885083749
7.200000000000739,0.3395299241356875,-0.6754262248358646
7.400000000000806,0.3044172173144647,-0.6964078130026843
7.600000000000873,0.2529899147289421,-0.7007545418001949
7.8000000000009395,0.1902860707141221,-0.6919473821942259
8.000000000001005,0.13162704038746403,-0.6804717224196745
8.200000000000895,0.07521916357323451,-0.670131091507645
8.400000000000784,0.03149258235800662,-0.6456785361611682
8.600000000000673,0.004557608001858902,-0.5984334028131215
8.800000000000562,-0.011798617335839768,-0.5464058302215781
9.000000000000451,-0.018577695395081542,-0.4947442860267233
9.20000000000034,-0.011270448788136834,-0.43425553121683796
9.40000000000023,0.001253800791085474,-0.37296929979794313
9.600000000000119,0.01662472926006627,-0.3050705191394522
9.800000000000008,0.035086586588607194,-0.23489300268117155
10.000999999999896,0.062386250257159374,-0.1592920166555837
10.200999999999786,0.08409412756727416,-0.08617232118222656
10.400999999999675,0.1121702366483215,-0.010545636195232327
10.600999999999564,0.13215699016442586,0.06744336109209143
10.800999999999453,0.16580598853521783,0.1345094604611169
11.000999999999342,0.21021113272406738,0.18272912891643078
11.200999999999231,0.2749339876276829,0.20121448688903473
11.40099999999912,0.35089073995414166,0.1891356417280564
11.60099999999901,0.4253967403642034,0.16973250445332821
11.800999999998899,0.4997345183845327,0.14415643274042111
12.000999999998788,0.5542640157769252,0.09670789826193242
12.200999999998677,0.5817699051353044,0.052402512876696915
12.400999999998566,0.574791885096672,0.001003085171022488
12.600999999998455,0.5506917987743235,-0.057440375465942835
12.800999999998345,0.5155865410634816,-0.1179654740573561
13.000999999998234,0.47251645878023746,-0.16368078608883882
13.200999999998123,0.41669891569509765,-0.17411142503068525
13.400999999998012,0.36589238120012313,-0.17814641900874895
13.600999999997901,0.31548167333569443,-0.17785810614366446
13.80099999999779,0.27143268108065305,-0.16073430873488967
14.00099999999768,0.2471490646938712,-0.11694746386862719
14.200999999997569,0.2322639097787183,-0.060205741271313166
14.400999999997458,0.22554155285096325,-0.006033140024565617
14.600999999997347,0.2383662096936883,0.042173379733651296
14.800999999997236,0.2688272364976126,0.07341886010947983
15.000999999997125,0.31398375400277934,0.09040265587981179
15.200999999997014,0.3687122258066101,0.08622402811427528
15.400999999996904,0.42427087263697694,0.07585951679494227
15.600999999996793,0.47980955520184015,0.0706571347968243
15.800999999996682,0.544318722952448,0.061899434406961565
16.000999999996573,0.6090588411200223,0.025896134166240488
16.200999999996817,0.6614530277654702,-0.011465289003877924
16.40099999999706,0.6902740405685324,-0.05542983437635162
16.600999999997306,0.6849221365047399,-0.10757082490156178
16.80099999999755,0.6730814594206281,-0.1595240507151402
17.000999999997795,0.6366634913458569,-0.18976544763887906
17.20099999999804,0.5859211336713528,-0.20585774120454395
17.400999999998284,0.5333048396822527,-0.19949204394597342
17.60099999999853,0.4890632808358246,-0.16632293020392463
17.800999999998773,0.46625562249467767,-0.1213939932519303
18.000999999999017,0.45236205068057206,-0.07638785533508743
18.20099999999926,0.4490123944436537,-0.018139366397529735
18.400999999999506,0.46313912760859377,0.03663484526869163
18.60099999999975,0.4947815062076102,0.07519292953484043
18.799999999999994,0.5427429812351744,0.08951340410826726
19.000000000000238,0.6040447927832026,0.08239812819480166
19.200000000000482,0.6731603818822977,0.06980062040415415
19.400000000000727,0.7441222639457614,0.06030207817187853
19.60000000000097,0.811004984263347,0.05215629843657399
19.800000000001216,0.8764168244781544,0.031064937544544643
20.00000000000146,0.9331324186952571,-0.008505596036551035
