Time (s),X (m),Y (m)
0.001,-0.0006729371591054965,0.000515584144559974
0.20000000000000015,0.0045591954994570775,-0.0019718872612816962
0.4000000000000003,0.007967894140450479,-0.0010446006706461648
0.6000000000000004,0.00780718698299179,0.002523328664714182
0.8000000000000006,0.0085536035091406,0.003925181327618831
1.0000000000000007,0.012680720774223105,0.003910781522543785
1.2009999999999785,0.016497492635024286,0.004074290930905887
1.4009999999999565,0.021740822218212014,0.002362885830028804
1.6009999999999345,0.02564064615482923,0.0016386624722214663
1.8009999999999124,0.0300847352447529,0.002648996444585657
2.0009999999998906,0.035711877262291844,0.001692057590713214
2.2009999999998686,0.03871570374885313,0.0024938197054263206
2.4009999999998466,0.0419741922089654,0.0018411289829477365
2.6009999999998246,0.045733315332381924,0.002042612104641713
2.8009999999998025,0.04792914315888021,0.003164779140366647
3.0009999999997805,0.05133571985208233,0.004636829347563131
3.2009999999997585,0.05439449158287064,0.005418686673453291
3.4009999999997365,0.05789104527963587,0.006137111911332566
3.6009999999997144,0.06038792623437436,0.008231970512325375
3.8009999999996924,0.06343468188647679,0.010320225662975403
4.000999999999671,0.06543020407931346,0.011913685135240196
4.200999999999738,0.06637874255180233,0.014304775605781596
4.400999999999804,0.06829898199724826,0.016416650611237982
4.600999999999871,0.06964169101490941,0.018068385223204274
4.800999999999938,0.07058833915729913,0.020081161164197527
5.000000000000004,0.07259414848348313,0.02213204178939942
5.200000000000071,0.07390097242796004,0.024184680963994752
5.400000000000138,0.07514172722526069,0.02639083099911351
5.600000000000205,0.07639363185927775,0.02921446953677335
5.800000000000272,0.07799866620244796,0.031598764875076235
6.000000000000338,0.07843780817326938,0.03455061291887611
6.200000000000405,0.07946433024762797,0.037686093128761575
6.400000000000472,0.08035652246776613,0.04132341281555367
6.600000000000539,0.0818451336689584,0.04521777509631417
6.800000000000606,0.08290293049534059,0.0490463266454329
7.000000000000672,0.08414870917136195,0.05340240872653737
7.200000000000739,0.08518867874492961,0.05770379070586208
7.400000000000806,0.08715082649614982,0.06202052729859391
7.600000000000873,0.0885249580283974,0.06610213327607682
7.8000000000009395,0.09025090938931757,0.07055250141668618
8.000000000001005,0.09148095459017457,0.07547740119213092
8.200000000000895,0.09326691871620195,0.08111446912439152
8.400000000000784,0.09509538624000292,0.0866769825353177
8.600000000000673,0.09669520149279848,0.09114400917869667
8.800000000000562,0.09795761040605688,0.09620015110411134
9.000000000000451,0.09926506106946395,0.1021538094825561
9.20000000000034,0.1009062231819946,0.10902317937512283
9.40000000000023,0.1026468998994192,0.11568897730653306
9.600000000000119,0.10352518995983302,0.12061114750896364
9.800000000000008,0.10513671675662338,0.12752239050635084
10.000999999999896,0.10712851012751147,0.13512309865137453
10.200999999999786,0.1087025922271201,0.14172114167636155
10.400999999999675,0.11023848695056003,0.14929920525784676
10.600999999999564,0.11243154419209285,0.15541291310399655
10.800999999999453,0.11392619889968032,0.1594785717796809
11.000999999999342,0.11445669860827339,0.16278053556128577
11.200999999999231,0.1156320715682487,0.16716791686469365
11.40099999999912,0.11626580787131938,0.17277432018377722
11.60099999999901,0.11793513652279322,0.17840114804696552
11.800999999998899,0.11873238916138223,0.18188013722537424
12.000999999998788,0.11881630102065721,0.18649341867545166
12.200999999998677,0.11951112198088311,0.19314107474392844
12.400999999998566,0.12008787221098914,0.20033597059237832
12.600999999998455,0.12036809967991068,0.205736673104904
12.800999999998345,0.12049805535294264,0.21144530725170022
13.000999999998234,0.12079744892041136,0.2159459095835109
13.200999999998123,0.12109302257580143,0.22304989549207171
13.400999999998012,0.12117801744688808,0.2272122615450815
13.600999999997901,0.12096396630347166,0.23222566707870745
13.80099999999779,0.12072722110245805,0.23679821802764955
14.00099999999768,0.12010994578459133,0.24129186338289335
14.200999999997569,0.11959104428443539,0.24682534345746163
14.400999999997458,0.11927176309434648,0.25265518093229655
14.600999999997347,0.11892182637812691,0.25815577777725107
14.800999999997236,0.11826560862701854,0.26341417429691877
15.000999999997125,0.11778030579713264,0.26893098086986417
15.200999999997014,0.11704018995204879,0.2740599718740435
15.400999999996904,0.11666938696924622,0.2780901896552938
15.600999999996793,0.11615051620588714,0.28186260417760006
15.800999999996682,0.11596017069892993,0.2846729332130503
16.000999999996573,0.11497311012904438,0.2880835252676359
16.200999999996817,0.11488791009615396,0.29098503599386094
16.40099999999706,0.11422035588149793,0.294120116681349
16.600999999997306,0.11363774365340447,0.29633242182835506
16.80099999999755,0.11294332188420148,0.2993845703036875
17.000999999997795,0.11210162693677116,0.3021156063524352
17.20099999999804,0.11107631555189072,0.3050576714248149
17.400999999998284,0.10991113238564418,0.30742904047075886
17.60099999999853,0.10865568238114118,0.31015123020198526
17.800999999998773,0.10722941428188631,0.3128521250976202
18.000999999999017,0.10599246692138999,0.31521528058540094
18.20099999999926,0.10531340252679157,0.31686496075349235
18.400999999999506,0.10375388992968367,0.31894292926394513
18.60099999999975,0.10221918410543945,0.32102282746825667
18.799999999999994,0.10033658039348055,0.32276613910327023
19.000000000000238,0.09855875460913785,0.3246468823748722
19.200000000000482,0.096393070011082,0.32634787511006813
19.400000000000727,0.09426713424678992,0.3282393928255811
19.60000000000097,0.09088526247146086,0.3304577902039208
19.800000000001216,0.088843274833166,0.33194717088121456
20.00000000000146,0.08683553946060106,0.3332279642297915
