Time (s),X (m),Y (m)
0.001,-0.0006729371591054965,0.000515584144559974
0.20000000000000015,0.0016555085013654346,-0.0005057667347557483
0.4000000000000003,0.009625197460287647,-0.0030927274207586683
0.6000000000000004,0.015427873682724993,0.0011777517873241053
0.8000000000000006,0.02806793152428232,-0.006614412447553128
1.0000000000000007,0.04063297737646783,-0.011468125713199608
1.2009999999999785,0.04648302648464702,-0.015917057808580656
1.4009999999999565,0.054669999148237884,-0.01816244432956462
1.6009999999999345,0.0622038983499455,-0.012725141739249306
1.8009999999999124,0.07621701484136892,-0.014498448789684445
2.0009999999998906,0.08679709566689002,-0.01625664902793956
2.2009999999998686,0.09336949598779809,-0.014394997985272294
2.4009999999998466,0.09884113756460607,-0.01396175717368594
2.6009999999998246,0.10947463589119097,-0.013896998601891931
2.8009999999998025,0.12767088363211543,-0.01756071236119462
3.0009999999997805,0.1395281560316253,-0.019616316340906898
3.2009999999997585,0.15574718564178908,-0.020709004707633
3.4009999999997365,0.17081773536736206,-0.021605628746782374
3.6009999999997144,0.17840726362046985,-0.02501794723886466
3.8009999999996924,0.19670382061699845,-0.030964360573292417
4.000999999999671,0.21980323632499246,-0.03924021062806123
4.200999999999738,0.2351604983916461,-0.04492106150208297
4.400999999999804,0.24816887687910494,-0.047346858691233444
4.600999999999871,0.25965168210809725,-0.05095898622084567
4.800999999999938,0.26846205777126314,-0.05653180484639399
5.000000000000004,0.28313834616283384,-0.05585231971838018
5.200000000000071,0.2972594565426213,-0.056593275920283154
5.400000000000138,0.3133771265099571,-0.059631559936815515
5.600000000000205,0.32947878197532243,-0.061575470152922446
5.800000000000272,0.3442151758151679,-0.06217022036331131
6.000000000000338,0.3656138857782134,-0.06765692167539905
6.200000000000405,0.3861183197263017,-0.07295296001696779
6.400000000000472,0.4076595220712714,-0.08878420997419009
6.600000000000539,0.42374145250084977,-0.09809957410946499
6.800000000000606,0.43979077650669124,-0.10587005994181896
7.000000000000672,0.45406453005633907,-0.1146265748955254
7.200000000000739,0.4706369436229248,-0.12135761932018502
7.400000000000806,0.488312942440539,-0.12439173718534213
7.600000000000873,0.5055594967994167,-0.12787842175336733
7.8000000000009395,0.525093376917057,-0.13503899678807857
8.000000000001005,0.5476208252521187,-0.14311431005848235
8.200000000000895,0.5647754040908929,-0.14970087929703987
8.400000000000784,0.586121214571637,-0.15784072834043508
8.600000000000673,0.6078821370361605,-0.16216137032448144
8.800000000000562,0.6237214325203013,-0.16159170367319647
9.000000000000451,0.6413928761714175,-0.16814937927130305
9.20000000000034,0.6553637977816937,-0.17151698957489878
9.40000000000023,0.6705152433803648,-0.17860861406851464
9.600000000000119,0.6877309461625866,-0.18192329926824366
9.800000000000008,0.7017105411952604,-0.18596353750271194
10.000999999999896,0.7270378326731032,-0.19435037179688014
10.200999999999786,0.7431825336246622,-0.1985172373958534
10.400999999999675,0.7639384361899764,-0.20785769634166745
10.600999999999564,0.7790015085516223,-0.20868901055589137
10.800999999999453,0.7963973470917801,-0.2069684985271027
11.000999999999342,0.8162392981193619,-0.20404027925849974
11.200999999999231,0.8404694114164982,-0.21105206991504172
11.40099999999912,0.8621052712664254,-0.21908360188489887
11.60099999999901,0.8781657755745698,-0.2191054982787342
11.800999999998899,0.8977765717477938,-0.22486883111011505
12.000999999998788,0.9175800493291991,-0.2346506168514593
12.200999999998677,0.9375951476760914,-0.2422786743659812
12.400999999998566,0.9534193629173996,-0.24582709692861032
12.600999999998455,0.9722642146945321,-0.2535945044763004
12.800999999998345,0.9943225570484338,-0.25994804198931903
13.000999999998234,1.01142188473432,-0.2670968082286378
13.200999999998123,1.0273201469773483,-0.27038435120679666
13.400999999998012,1.0409082832929772,-0.2731542946472252
13.600999999997901,1.0594264576506782,-0.27415325132570906
13.80099999999779,1.0774062202141805,-0.2808748272524701
14.00099999999768,1.0923331811798924,-0.2908631992676674
14.200999999997569,1.1074583760042866,-0.3039635308962629
14.400999999997458,1.1248650394341049,-0.31142770567083294
14.600999999997347,1.137845650678917,-0.3182663761692798
14.800999999997236,1.1506205241335072,-0.3319843623613346
15.000999999997125,1.16454542521071,-0.3435815322628417
15.200999999997014,1.1737179069291495,-0.3541236472274671
15.400999999996904,1.1864583977201677,-0.3658563600508427
15.600999999996793,1.1990136919621255,-0.3879755316130848
15.800999999996682,1.215223710529174,-0.4035775833941216
16.000999999996573,1.229057491923547,-0.4144818983240308
16.200999999996817,1.2340263036577184,-0.4310763626479204
16.40099999999706,1.2418257737832983,-0.44294827389312835
16.600999999997306,1.2488204965333052,-0.46239836847278803
16.80099999999755,1.2508485894509864,-0.4752768929402311
17.000999999997795,1.2531390538413467,-0.48803333787767383
17.20099999999804,1.2544768977400602,-0.5032413471616022
17.400999999998284,1.2557292929780772,-0.5218032700973964
17.60099999999853,1.2560684977555052,-0.5323733518000434
17.800999999998773,1.2558378489542716,-0.5495070615613774
18.000999999999017,1.2561132510747282,-0.5674738325929449
18.20099999999926,1.2592162459969016,-0.5866216277463743
18.400999999999506,1.2625800953893584,-0.5994169699169611
18.60099999999975,1.2608309862063425,-0.6116384062021014
18.799999999999994,1.2569196201936284,-0.6271833896810202
19.000000000000238,1.2494383946581016,-0.650550356443243
19.200000000000482,1.2432034518909627,-0.6691220895172048
19.400000000000727,1.241508545035736,-0.6884983909532085
19.60000000000097,1.2430351500525285,-0.7055607721966977
19.800000000001216,1.2401537432365557,-0.7243394809050638
20.00000000000146,1.235919591875,-0.7428788124543358
