Time (s),X (m),Y (m)
0.001,0.0012512490639692614,0.0
0.20000000000000015,-0.00013738555422784668,0.0009803030697760717
0.4000000000000003,0.0023055093306310354,0.003998715512606138
0.6000000000000004,0.0204796324932377,0.0027279775312806986
0.8000000000000006,0.029086898651553224,0.0018517662184572709
1.0000000000000007,0.06112089632144711,-0.00047632277129438697
1.2009999999999785,0.09586234941341243,-0.00466746420264093
1.4009999999999565,0.12455031176464496,-0.009125697578600801
1.6009999999999345,0.15357845241363946,-0.019654108929844486
1.8009999999999124,0.1746592333605444,-0.02567051771866712
2.0009999999998906,0.1944401647680206,-0.03482161662879592
2.2009999999998686,0.213156667532853,-0.04806160282712704
2.4009999999998466,0.2369038861789163,-0.06957251086824097
2.6009999999998246,0.2614598721525778,-0.09613110534649505
2.8009999999998025,0.2739871844575487,-0.13019963494888684
3.0009999999997805,0.2781160207913105,-0.16299225019825989
3.2009999999997585,0.2698188542407137,-0.19849802638655537
3.4009999999997365,0.2517437199494339,-0.23206100382120695
3.6009999999997144,0.23740667196751236,-0.26102012219338744
3.8009999999996924,0.21680672991034375,-0.2950172123855623
4.000999999999671,0.1908537800184975,-0.32476769098789304
4.200999999999738,0.1612355488792255,-0.3331894023309563
4.400999999999804,0.12484107106743461,-0.3246589445143551
4.600999999999871,0.08824371903675504,-0.30652016194545467
4.800999999999938,0.0480371026563611,-0.27984911163634146
5.000000000000004,0.01126377701025203,-0.24979288806969085
5.200000000000071,-0.006685622135690414,-0.21572800259000896
5.400000000000138,-0.010521004751588889,-0.1769717096659223
5.600000000000205,-0.0024971077910667457,-0.1405122378764488
5.800000000000272,0.018028814492471845,-0.09391436325889291
6.000000000000338,0.04534404507971942,-0.04353936938124279
6.200000000000405,0.07651092873699063,0.006701982778674359
6.400000000000472,0.11585447856788172,0.06623843122345922
6.600000000000539,0.14985151864784552,0.1198814554967549
6.800000000000606,0.1942925159418481,0.16509997055959336
7.000000000000672,0.23765850013066878,0.1912823530922675
7.200000000000739,0.27537429108382994,0.19820717419983994
7.400000000000806,0.33944291994367737,0.18434392036039898
7.600000000000873,0.3998122815431351,0.16228524697980173
7.8000000000009395,0.4507265013899501,0.14003778111211396
8.000000000001005,0.5025717142370101,0.11015874165424418
8.200000000000895,0.5598768078612258,0.07919609173620526
8.400000000000784,0.6000652013222029,0.05141668473482389
8.600000000000673,0.6462261502168096,0.02357165974577712
8.800000000000562,0.6996137455531588,-0.0013062729985232992
9.000000000000451,0.749223095057073,-0.023844246623749614
9.20000000000034,0.7912490124183603,-0.04410608182671075
9.40000000000023,0.8476038722966833,-0.07649275414313816
9.600000000000119,0.9149583784991393,-0.11622999537122439
9.800000000000008,0.9854176756041815,-0.15831013817755688
10.000999999999896,1.050711157274688,-0.19843496762648416
10.200999999999786,1.1094790006831539,-0.23816427038460988
10.400999999999675,1.1610303869042649,-0.2947449187947538
10.600999999999564,1.1910049612561038,-0.361187022520076
10.800999999999453,1.1913343887512948,-0.42541377353621534
11.000999999999342,1.1799580072400686,-0.47494514144286043
11.200999999999231,1.1595721541552353,-0.5290581071500089
11.40099999999912,1.1345903796022119,-0.5826121323039704
11.60099999999901,1.1047193709983105,-0.6424729801546878
11.800999999998899,1.067244972247327,-0.7060532728877593
12.000999999998788,1.0150928627490363,-0.7624420741509208
12.200999999998677,0.9677040586277449,-0.8021867052183903
12.400999999998566,0.9147079960054494,-0.8155833617726362
12.600999999998455,0.8605833085828026,-0.8066848829545573
12.800999999998345,0.8011065975671229,-0.7772806483728113
13.000999999998234,0.7396278436988867,-0.7423330020322341
13.200999999998123,0.684807280544455,-0.7125578783705533
13.400999999998012,0.644070040086689,-0.664824328055557
13.600999999997901,0.6298955466535991,-0.6104729115114419
13.80099999999779,0.6399290971929086,-0.5502788163976596
14.00099999999768,0.6597306411470942,-0.49637430783781
14.200999999997569,0.6826266009261827,-0.4432832755926764
14.400999999997458,0.73127273380906,-0.3839554962402684
14.600999999997347,0.7800123639098058,-0.33493605119329256
14.800999999997236,0.8213229090073655,-0.3103317625596041
15.000999999997125,0.8702008390617699,-0.30943552431831456
15.200999999997014,0.919610353086059,-0.3311056169800146
15.400999999996904,0.9756632990906273,-0.37115430159151214
15.600999999996793,1.0368589377527209,-0.41925883532244257
15.800999999996682,1.0871132051653953,-0.4598571714614625
16.000999999996573,1.1043641158181445,-0.50625844394631
16.200999999996817,1.1000129686649762,-0.5600987089206184
16.40099999999706,1.0770972684774391,-0.618982713652913
16.600999999997306,1.0474340736701229,-0.6765271288661117
16.80099999999755,1.0233149070212908,-0.7293540391667482
17.000999999997795,0.9868486633627048,-0.7888722904382234
17.20099999999804,0.9352604449428167,-0.8406732564032904
17.400999999998284,0.8909880322078232,-0.8629433103344761
17.60099999999853,0.8617067206315766,-0.8669360977195303
17.800999999998773,0.8341264320607943,-0.8594409426224366
18.000999999999017,0.7918894231101646,-0.845400427929596
18.20099999999926,0.7368527584737636,-0.8241272993736902
18.400999999999506,0.676834306421039,-0.7952228281633725
18.60099999999975,0.6178369449802518,-0.7621686020537531
18.799999999999994,0.5544121563203027,-0.7224532001957865
19.000000000000238,0.49140532462719894,-0.6731828656396518
19.200000000000482,0.4534093367973826,-0.6205303329253369
19.400000000000727,0.4384381829450004,-0.5797399303171105
19.60000000000097,0.4464223595153288,-0.532840140548737
19.800000000001216,0.46658443341164213,-0.4742732198059745
20.00000000000146,0.49409295952265725,-0.4158733528516839
