Time (s),X (m),Y (m)
0.001,-0.0005090653149319316,-0.0007291460897812452
0.20000000000000015,0.004141625783960786,0.0025695742772354666
0.4000000000000003,0.009135067029310709,0.0018399112342623646
0.6000000000000004,0.029408747558363976,0.016292476604294122
0.8000000000000006,0.05679434556603052,0.03067730418563381
1.0000000000000007,0.08312691199176993,0.04137885080810363
1.2009999999999785,0.11580217711778161,0.048470387185749884
1.4009999999999565,0.1378765140818731,0.041189434360572194
1.6009999999999345,0.16942141416037051,0.02075155809251897
1.8009999999999124,0.20068832937451248,-0.0049605187948986215
2.0009999999998906,0.2233099736046143,-0.031734756142887115
2.2009999999998686,0.24783872889482386,-0.06478215670401795
2.4009999999998466,0.2703276491985732,-0.1060658617802284
2.6009999999998246,0.2829469445269724,-0.14753832263340222
2.8009999999998025,0.2768177193545186,-0.1780988898521243
3.0009999999997805,0.25844184394702485,-0.21305361451838412
3.2009999999997585,0.23017882030322076,-0.2326630753511973
3.4009999999997365,0.19526720151970325,-0.2509537622967019
3.6009999999997144,0.1501827561088709,-0.2778001868986111
3.8009999999996924,0.0881082769428988,-0.31024058950435446
4.000999999999671,0.027106061420422538,-0.3445305177442346
4.200999999999738,-0.031880604691983915,-0.3777469530029648
4.400999999999804,-0.10404858013917165,-0.41008650427316756
4.600999999999871,-0.174762388347618,-0.4358015082020605
4.800999999999938,-0.23383893648367368,-0.4459071236557968
5.000000000000004,-0.2938502422541191,-0.44802651031476426
5.200000000000071,-0.3590296158125747,-0.4431114223450249
5.400000000000138,-0.42319803270180406,-0.42395081575600885
5.600000000000205,-0.4817790515764981,-0.39297992070086724
5.800000000000272,-0.5373714149321805,-0.34733580770396055
6.000000000000338,-0.5854778046810887,-0.29354427039899805
6.200000000000405,-0.6229945326394348,-0.23704835650986728
6.400000000000472,-0.6582266444893573,-0.18313642122881232
6.600000000000539,-0.6924775883735794,-0.13017394958434572
6.800000000000606,-0.7266284453665799,-0.0737787414954712
7.000000000000672,-0.7473055611655988,-0.012666986799208465
7.200000000000739,-0.7445856993025273,0.043000447281913004
7.400000000000806,-0.7141456223357076,0.0809662219059957
7.600000000000873,-0.6737867424688154,0.10436199602903116
7.8000000000009395,-0.629885995650731,0.1258908244016596
8.000000000001005,-0.5761916984743284,0.15394281780772456
8.200000000000895,-0.5153088236381743,0.17753934616523662
8.400000000000784,-0.45274193155301534,0.17818445049276047
8.600000000000673,-0.40552664642215464,0.1564416200667516
8.800000000000562,-0.36289646735874015,0.11560085748838107
9.000000000000451,-0.3242749474328717,0.06342632644239621
9.20000000000034,-0.2825135349129162,0.007706576635615714
9.40000000000023,-0.22937398981227491,-0.052319457769875524
9.600000000000119,-0.1701639481140568,-0.116585812975825
9.800000000000008,-0.11410241250910429,-0.18955530344371765
10.000999999999896,-0.05567296086531946,-0.27119117879525584
10.200999999999786,0.0035948253494157375,-0.3632539643260467
10.400999999999675,0.05268848214617086,-0.45088442374991355
10.600999999999564,0.0903274992896721,-0.5118221044856273
10.800999999999453,0.1114410019951666,-0.5647792626460286
11.000999999999342,0.10295058823729054,-0.6083430618134147
11.200999999999231,0.0683109462750048,-0.6527435917638187
11.40099999999912,0.021178917564923554,-0.6982350611883275
11.60099999999901,-0.02956341258702009,-0.7341101261385929
11.800999999998899,-0.0918122992884881,-0.7646600320774187
12.000999999998788,-0.16930506143030608,-0.7918784408637697
12.200999999998677,-0.2492927140963035,-0.8193285173573348
12.400999999998566,-0.338767902244432,-0.8412801300937842
12.600999999998455,-0.425451385456017,-0.8509685385810992
12.800999999998345,-0.5012475398456856,-0.8404662070948833
13.000999999998234,-0.5715118163352204,-0.805754682196671
13.200999999998123,-0.6452764415754711,-0.7560242724342598
13.400999999998012,-0.710062307916141,-0.6951349504593114
13.600999999997901,-0.7692169488088195,-0.6270087368765658
13.80099999999779,-0.832014568913067,-0.5603300117252926
14.00099999999768,-0.9041140938279515,-0.49192832425642796
14.200999999997569,-0.9610679189143043,-0.4255201852423763
14.400999999997458,-1.0108967558762334,-0.3546472848062691
14.600999999997347,-1.0593959670494038,-0.27793098511361536
14.800999999997236,-1.1040633868921836,-0.20574688168173186
15.000999999997125,-1.131717887856769,-0.12380688773638512
15.200999999997014,-1.124327722972643,-0.05646746532416084
15.400999999996904,-1.0922579703177964,0.002224414755923813
15.600999999996793,-1.051352779061462,0.05820268450067579
15.800999999996682,-1.0076668821129933,0.10247971932692145
16.000999999996573,-0.9621164927557753,0.13254630408646534
16.200999999996817,-0.9222675579867536,0.1746765606951532
16.40099999999706,-0.8805895680897277,0.22058863968708767
16.600999999997306,-0.8334704560746619,0.2716646408896314
16.80099999999755,-0.7849526858801851,0.3315735800402626
17.000999999997795,-0.746694126579181,0.39039681257935904
17.20099999999804,-0.7268657813550004,0.45457874733666903
17.400999999998284,-0.7155328248038553,0.522623132961966
17.60099999999853,-0.7011313967472272,0.5875515227782262
17.800999999998773,-0.6763467160088816,0.654178950706494
18.000999999999017,-0.6369022289906395,0.7187578471028938
18.20099999999926,-0.5806584999202279,0.7789631296663228
18.400999999999506,-0.5176607063450278,0.8367318422594476
18.60099999999975,-0.4517140458055627,0.8974556884057799
18.799999999999994,-0.384032717783503,0.9571502425843049
19.000000000000238,-0.30648577326066817,1.017774374320161
19.200000000000482,-0.22328658217811262,1.0716130939937172
19.400000000000727,-0.13442867602853037,1.1296769248571212
19.60000000000097,-0.052280871047326594,1.1702899841417216
19.800000000001216,0.018586154529906702,1.1851320047049188
20.00000000000146,0.07218223385139254,1.169826160896268
