Time (s),X (m),Y (m)
0.001,0.0005727611008870025,0.0009689812320744445
0.20000000000000015,0.0004531904848207042,-0.0023620985509704914
0.4000000000000003,0.0016350350344325605,-0.004778063850861768
0.6000000000000004,0.00483201291194378,-0.008477135514700125
0.8000000000000006,0.014525523073627908,-0.0053546328311048315
1.0000000000000007,0.027268565268832562,0.0013636803725276866
1.2009999999999785,0.039554234246918195,0.0016713472886582667
1.4009999999999565,0.05434199518915893,0.0026506341681894327
1.6009999999999345,0.06974492438398076,-0.002145489009048873
1.8009999999999124,0.09355870938952049,-0.000520998820253335
2.0009999999998906,0.11271901061981175,-0.003953025079418432
2.2009999999998686,0.12596461805876144,-0.0065860675805574104
2.4009999999998466,0.13870726846225104,-0.00954267696495756
2.6009999999998246,0.1514943566419718,-0.02021589477812685
2.8009999999998025,0.16516782499244875,-0.030863772401231563
3.0009999999997805,0.18435558605588565,-0.03997541418653709
3.2009999999997585,0.21138231687654077,-0.04093802253030207
3.4009999999997365,0.2324952136015936,-0.04218779879433079
3.6009999999997144,0.25281517533580994,-0.039632017560649456
3.8009999999996924,0.2694865529808485,-0.046651462359221574
4.000999999999671,0.2923412192283823,-0.047079917988508475
4.200999999999738,0.32126693329413264,-0.039327758794307735
4.400999999999804,0.34425659779014467,-0.04434716038682672
4.600999999999871,0.36425133581878394,-0.04402994503224443
4.800999999999938,0.3841567575702722,-0.046011763001960235
5.000000000000004,0.4101934493159192,-0.044649192780990304
5.200000000000071,0.4331568565802207,-0.04458779946489301
5.400000000000138,0.4568456268188984,-0.03885107572073306
5.600000000000205,0.4792576669232533,-0.040094028626942224
5.800000000000272,0.4985133617218612,-0.03587269337283801
6.000000000000338,0.5225236904583374,-0.02812395745590276
6.200000000000405,0.5447546767099721,-0.014381236081670369
6.400000000000472,0.5662247353211861,-0.0144860972324266
6.600000000000539,0.5868015675064088,-0.017671357725163876
6.800000000000606,0.6090106794454994,-0.011879661344549647
7.000000000000672,0.6363911380087324,-0.0046816772780246384
7.200000000000739,0.6655723149879719,0.0008023454836970478
7.400000000000806,0.6912229579210912,0.0067170219066495455
7.600000000000873,0.7174246107383274,0.009768753173945167
7.8000000000009395,0.7402018685045987,0.017209183871584568
8.000000000001005,0.7618223193041738,0.022889831965995287
8.200000000000895,0.784593018677646,0.028864634488682563
8.400000000000784,0.8062411078605731,0.03981594636821778
8.600000000000673,0.8279043530507286,0.04575769894473823
8.800000000000562,0.8521759649337576,0.05489450963771612
9.000000000000451,0.8736300121908732,0.06358275418666356
9.20000000000034,0.8985751537839739,0.0765890239601764
9.40000000000023,0.9217538897294201,0.09003913791407792
9.600000000000119,0.9485279942438157,0.09968710248175955
9.800000000000008,0.972293612959051,0.1205271792737746
10.000999999999896,0.9923480430234577,0.12876724410039397
10.200999999999786,1.0221986004480186,0.12488148531860743
10.400999999999675,1.0461988901288313,0.13268225892561777
10.600999999999564,1.0676767053350613,0.14573248649096368
10.800999999999453,1.089499415504259,0.14587739898675997
11.000999999999342,1.106952003480883,0.14836857547241647
11.200999999999231,1.133501428529657,0.16469445253862441
11.40099999999912,1.158074318735868,0.1746444410919258
11.60099999999901,1.1780058544269831,0.1952880474817296
11.800999999998899,1.1950059786851048,0.21436732372669864
12.000999999998788,1.2127605888707642,0.21300567503266138
12.200999999998677,1.2315921900902094,0.2291894367722096
12.400999999998566,1.25613439697684,0.2550244868292321
12.600999999998455,1.2806784184098294,0.28554294507717576
12.800999999998345,1.3072221444173149,0.3013461898510663
13.000999999998234,1.336570637079024,0.31235853274168224
13.200999999998123,1.3589470181509826,0.3238093964876291
13.400999999998012,1.3769866154636616,0.3433429593105654
13.600999999997901,1.3957547081826405,0.36286720854567917
13.80099999999779,1.4178599957379896,0.376341837153243
14.00099999999768,1.4394242197390275,0.3917307836697267
14.200999999997569,1.4664447388394508,0.4093315264665478
14.400999999997458,1.491328558552905,0.42795901893808663
14.600999999997347,1.5133512177392066,0.4417489359893269
14.800999999997236,1.536525345761426,0.45424882740003253
15.000999999997125,1.5636884941501754,0.4617821826044393
15.200999999997014,1.5930241604117505,0.4737319887504604
15.400999999996904,1.6198699325782038,0.4785598962551908
15.600999999996793,1.6442485108393814,0.4887818534950424
15.800999999996682,1.6654394693121848,0.5008484181075777
16.000999999996573,1.6885173662710804,0.5070649249290684
16.200999999996817,1.7063519881242595,0.5184855777212836
16.40099999999706,1.7256563209963092,0.5428362211102395
16.600999999997306,1.750207448074611,0.5563317147204374
16.80099999999755,1.7704787742021315,0.5630008127251843
17.000999999997795,1.7913654510412533,0.5732638346852829
17.20099999999804,1.8170631314348848,0.5896157710362764
17.400999999998284,1.8354909712029839,0.6093419696134222
17.60099999999853,1.854669999090445,0.6256463787040056
17.800999999998773,1.8762818615997565,0.6283538705904309
18.000999999999017,1.8974851608624057,0.6345323168918456
18.20099999999926,1.9176325857593697,0.6409044263350699
18.400999999999506,1.938438454859167,0.6515400352030225
18.60099999999975,1.963269575974359,0.6634610357671862
18.799999999999994,1.986533642251563,0.6897804499563172
19.000000000000238,2.0099241258013603,0.7051260334561689
19.200000000000482,2.0322698551684804,0.7248095348786414
19.400000000000727,2.0516086109281275,0.7490857851988186
19.60000000000097,2.071992464933959,0.7603663732988313
19.800000000001216,2.0909671394356004,0.7589785388308637
20.00000000000146,2.1132279073058813,0.7629938562691964
