Time (s),X (m),Y (m)
0.001,-0.0008071636076123137,8.987223813608099e-05
0.20000000000000015,0.00474550181273221,-0.0009295022626787617
0.4000000000000003,0.012616708174414489,-0.00016595583980927287
0.6000000000000004,0.02081048013332631,-0.0004578114192472045
0.8000000000000006,0.01485882573476657,-0.0037997028894456862
1.0000000000000007,0.014425216223189817,-0.001989345653718874
1.2009999999999785,0.014712625886234223,0.00363379422633438
1.4009999999999565,0.019285922038576004,0.006041094658972737
1.6009999999999345,0.02810223875668064,0.005848798317231902
1.8009999999999124,0.047837402495735475,0.0013511087636799287
2.0009999999998906,0.05808529517498692,0.0020846745537959213
2.2009999999998686,0.06599660492515652,0.006500215675632769
2.4009999999998466,0.07274697343605963,0.008536792584495542
2.6009999999998246,0.08071206342342506,0.010545119043107435
2.8009999999998025,0.09226587563257707,0.004056226688185012
3.0009999999997805,0.10190629671225783,-0.004899169572815608
3.2009999999997585,0.11724616705206978,-0.010704679083643706
3.4009999999997365,0.12407444689071924,-0.020149348111903123
3.6009999999997144,0.13175301835166758,-0.020687774060137276
3.8009999999996924,0.14342282584386415,-0.02046905218975094
4.000999999999671,0.16004149161349357,-0.022460073552163524
4.200999999999738,0.17469754278974833,-0.025154176145125037
4.400999999999804,0.18711753463057787,-0.027294595713177112
4.600999999999871,0.19976720998038464,-0.03091626600962633
4.800999999999938,0.21225380112063705,-0.037804536207462526
5.000000000000004,0.22217842423093026,-0.0455511634537316
5.200000000000071,0.23617267679140025,-0.058023278255638945
5.400000000000138,0.2532887384260649,-0.0680995165389115
5.600000000000205,0.27732638270612453,-0.0814785385409788
5.800000000000272,0.30504134766919466,-0.09529005339173631
6.000000000000338,0.32612895511555384,-0.10290028203194965
6.200000000000405,0.3426037452065913,-0.1134060927750959
6.400000000000472,0.358357023217555,-0.12375324450551882
6.600000000000539,0.37886809749464423,-0.13808564135869805
6.800000000000606,0.4105992433726872,-0.16060041963624508
7.000000000000672,0.4351695625562185,-0.17786337202540348
7.200000000000739,0.4584481979212631,-0.19965913249107037
7.400000000000806,0.4862560526759582,-0.2145852741761909
7.600000000000873,0.5122217623709797,-0.22454454331402435
7.8000000000009395,0.5312395697062431,-0.24045195900856955
8.000000000001005,0.5571608105626541,-0.2584982032184896
8.200000000000895,0.5773696662889136,-0.27334212637762706
8.400000000000784,0.6019125605387867,-0.28954032683257996
8.600000000000673,0.618884203185002,-0.30324757966409494
8.800000000000562,0.6445972876796165,-0.3234779316583728
9.000000000000451,0.6721312429940993,-0.3410954505964602
9.20000000000034,0.6958628309333367,-0.36738846096435523
9.40000000000023,0.7180823900860207,-0.3850358590856469
9.600000000000119,0.7383696352743856,-0.40123153262525674
9.800000000000008,0.7589588363245748,-0.42902464650217953
10.000999999999896,0.7726219469845672,-0.4483135225898941
10.200999999999786,0.7744905534154732,-0.4698283789373036
10.400999999999675,0.7786003538584252,-0.48847436472174033
10.600999999999564,0.7874743615708834,-0.5171494398362144
10.800999999999453,0.7899773402058506,-0.5446175486317819
11.000999999999342,0.7865281513408356,-0.5681193446081666
11.200999999999231,0.7835857060920473,-0.6000455912127964
11.40099999999912,0.7843886495692677,-0.6215292160738709
11.60099999999901,0.7781827096059145,-0.6411293036502914
11.800999999998899,0.7707031567031055,-0.6637640693178828
12.000999999998788,0.7621449035713127,-0.6910614037754457
12.200999999998677,0.7472553641896474,-0.7183668870186304
12.400999999998566,0.729127237484333,-0.7512490618100561
12.600999999998455,0.7125170320462387,-0.7798583477654393
12.800999999998345,0.7025883920306114,-0.8023004660012799
13.000999999998234,0.6901427464840879,-0.8275478821940823
13.200999999998123,0.6728726498347611,-0.855976036147889
13.400999999998012,0.6544817972235464,-0.8797533769340716
13.600999999997901,0.6345066143455632,-0.9079238897036647
13.80099999999779,0.6151644272395884,-0.9415835452700411
14.00099999999768,0.5995229917937784,-0.9654259644780558
14.200999999997569,0.5897263900160445,-0.9886930683192219
14.400999999997458,0.5683896321948211,-1.011653644760451
14.600999999997347,0.5537175744724206,-1.0289716412608028
14.800999999997236,0.544566788189119,-1.0420723094161866
15.000999999997125,0.5224540860953973,-1.0697944557924868
15.200999999997014,0.5019096230535746,-1.093630116212383
15.400999999996904,0.4736482454585008,-1.1187460703690244
15.600999999996793,0.4569592050558941,-1.1355807436451526
15.800999999996682,0.44141353239862396,-1.1455754535335663
16.000999999996573,0.4201816585541115,-1.1549821030500513
16.200999999996817,0.39805820699158506,-1.1662139078834617
16.40099999999706,0.37939033100137,-1.1746943209064662
16.600999999997306,0.35950490201824237,-1.1826871059612987
16.80099999999755,0.3338322503154915,-1.1866816836056069
17.000999999997795,0.3117403654586583,-1.185190504830414
17.20099999999804,0.28521944918187714,-1.1864471489655315
17.400999999998284,0.2672993054158052,-1.1847031353734838
17.60099999999853,0.25405135169866677,-1.1821507003876244
17.800999999998773,0.2328768046234567,-1.1746966821839264
18.000999999999017,0.2081089213402977,-1.1689065568583923
18.20099999999926,0.18196964025827198,-1.1546437292931309
18.400999999999506,0.16121802080408817,-1.143598200067276
18.60099999999975,0.13356646701858177,-1.1345177423130655
18.799999999999994,0.10235949116745781,-1.11952135604714
19.000000000000238,0.07919458475207215,-1.106816149530256
19.200000000000482,0.05841004399821777,-1.0975634395605152
19.400000000000727,0.038278802824915886,-1.0898780102634609
19.60000000000097,0.015507182079600921,-1.0836864098855128
19.800000000001216,-0.00705755337178706,-1.0678116444054022
20.00000000000146,-0.03704031821285664,-1.0455259426078276
