Time (s),X (m),Y (m)
0.001,0.0010647643868879006,-0.0005914538325516239
0.20000000000000015,0.0011674926384458435,0.0014367042606526028
0.4000000000000003,0.01828546240442842,0.001571725297037029
0.6000000000000004,0.03868948532565776,0.007254332924391835
0.8000000000000006,0.05441491153047669,0.0183463282616536
1.0000000000000007,0.0840697289079551,0.02681301773139872
1.2009999999999785,0.1332925201333758,0.025016740637164858
1.4009999999999565,0.18575608537170998,0.023676014976139966
1.6009999999999345,0.2439737390865972,0.020038050832440493
1.8009999999999124,0.2969862410533411,0.01471340218213775
2.0009999999998906,0.35241229882514963,0.008188964074912923
2.2009999999998686,0.4025878194503806,0.01139666397065548
2.4009999999998466,0.44824483197930776,0.008172181147248828
2.6009999999998246,0.4855592552384545,-0.00899704705028275
2.8009999999998025,0.5009419724665736,-0.038930246932832244
3.0009999999997805,0.5109140247647064,-0.07208166550136028
3.2009999999997585,0.519866761747844,-0.10654040994245104
3.4009999999997365,0.5226661877004294,-0.15347438303588423
3.6009999999997144,0.5204121752502301,-0.20089031739716998
3.8009999999996924,0.5004967978026077,-0.2545988882232791
4.000999999999671,0.47517372435851757,-0.3016819387725101
4.200999999999738,0.44852212144119,-0.3264982642720301
4.400999999999804,0.4099888795328623,-0.33671922910672974
4.600999999999871,0.36668414518547315,-0.3240469505144298
4.800999999999938,0.3330296662901143,-0.29291503335978064
5.000000000000004,0.3092550215896884,-0.25124210774446265
5.200000000000071,0.2974333955361097,-0.22076365925037056
5.400000000000138,0.2985879586426202,-0.18434481692284316
5.600000000000205,0.32728131309551645,-0.14212062975728718
5.800000000000272,0.37167388978265264,-0.11564812533699793
6.000000000000338,0.4244991981733275,-0.11409875990339897
6.200000000000405,0.4829307001941615,-0.1230740699813397
6.400000000000472,0.5395609210455032,-0.1292179234608222
6.600000000000539,0.5820272713942352,-0.1546128733909878
6.800000000000606,0.5959816784385212,-0.1938688281413752
7.000000000000672,0.5860222615861829,-0.2331178633026042
7.200000000000739,0.5440723836825706,-0.2601515203846275
7.400000000000806,0.5002326435619344,-0.2779192234130965
7.600000000000873,0.43800998690819004,-0.2818677419635926
7.8000000000009395,0.3785442669330372,-0.2770604712413636
8.000000000001005,0.31598074462969783,-0.2606592373408683
8.200000000000895,0.2500261520519592,-0.24679591231131834
8.400000000000784,0.19712463285303158,-0.21722257758815763
8.600000000000673,0.1586936445753997,-0.17648617860615592
8.800000000000562,0.13961161511906417,-0.1166263377344744
9.000000000000451,0.144070998407668,-0.049686627163996244
9.20000000000034,0.16825947098743685,0.017873264130932532
9.40000000000023,0.19572251558033807,0.08478249701518133
9.600000000000119,0.24862382901350255,0.1495337337101945
9.800000000000008,0.3124498855794791,0.19818632365324232
10.000999999999896,0.37554960262168635,0.22438850729055365
10.200999999999786,0.43835526390571483,0.22732321298550812
10.400999999999675,0.48933842738449496,0.18943277933173516
10.600999999999564,0.5263968169627748,0.1454571309849567
10.800999999999453,0.5362574677141717,0.08575904816680666
11.000999999999342,0.523942601325479,0.014170411613224935
11.200999999999231,0.497539079444637,-0.0446180053554641
11.40099999999912,0.46868257334828894,-0.07887255129783688
11.60099999999901,0.4284516031349081,-0.08817100575126996
11.800999999998899,0.3896425518562692,-0.09419947440783887
12.000999999998788,0.3512762588077481,-0.09998370788327184
12.200999999998677,0.3052392303292374,-0.08663949040852321
12.400999999998566,0.2546646322648112,-0.06480596344722409
12.600999999998455,0.20810589957626713,-0.024433227774759515
12.800999999998345,0.1757704530612807,0.026082720937172725
13.000999999998234,0.16340809039616933,0.08725661805016414
13.200999999998123,0.16975067741212863,0.1474520969234542
13.400999999998012,0.1872994527170527,0.21249195279566274
13.600999999997901,0.22488891963249427,0.27019947079714574
13.80099999999779,0.2695832099489905,0.3089162464922336
14.00099999999768,0.3220131705619001,0.3246876641318657
14.200999999997569,0.3765608617376726,0.30426652331612725
14.400999999997458,0.4262748934440241,0.272327411875451
14.600999999997347,0.4651355717085708,0.22972458913468277
14.800999999997236,0.4830477051378876,0.19082742668557923
15.000999999997125,0.4615697968622269,0.17198208354306468
15.200999999997014,0.41749806190424416,0.17528967208789753
15.400999999996904,0.36352265043450005,0.1860418575404078
15.600999999996793,0.3111948283556459,0.2228434481649803
15.800999999996682,0.2806787494008235,0.2712804156331174
16.000999999996573,0.26740987434736146,0.32553369838884055
16.200999999996817,0.26316153294011846,0.37816910477573584
16.40099999999706,0.2734402918203249,0.43508535743500243
16.600999999997306,0.299147457363618,0.48517922655328316
16.80099999999755,0.3301712547697416,0.5104232927301587
17.000999999997795,0.3649635189151145,0.5107560034312336
17.20099999999804,0.4126190250830845,0.500253111783264
17.400999999998284,0.4686381393247265,0.49579403535316313
17.60099999999853,0.5238917470225763,0.4981943227755212
17.800999999998773,0.562893439640773,0.4804236620511441
18.000999999999017,0.5841620682708637,0.4418118411979818
18.20099999999926,0.5898090738097992,0.3943173230895469
18.400999999999506,0.5682104839413341,0.3529292040264927
18.60099999999975,0.5348252807927771,0.32338948373166776
18.799999999999994,0.49282397294647196,0.30685446712270115
19.000000000000238,0.4472509488184622,0.3052354868319452
19.200000000000482,0.39968292183706006,0.3132266761956853
19.400000000000727,0.35297743294240524,0.3521997706865622
19.60000000000097,0.317539530232962,0.4104866204501388
19.800000000001216,0.29838550891371635,0.4721411195029099
20.00000000000146,0.29115707009740854,0.5267068993187664
