Time (s),X (m),Y (m)
0.001,0.0012161128565605834,-0.00026688599193002474
0.20000000000000015,9.453020797351479e-06,0.0005253715647654429
0.4000000000000003,0.0040519213079190245,-2.3583099067235827e-05
0.6000000000000004,0.006889087038523994,-2.24563291274376e-05
0.8000000000000006,0.009151896284222439,0.0007129371844653884
1.0000000000000007,0.013431474625980929,-0.0010688192092117626
1.2009999999999785,0.01514110984180353,-0.0005962396882810418
1.4009999999999565,0.01776300494246019,-0.0013651531226542871
1.6009999999999345,0.019513830537928777,-0.0018060512697478806
1.8009999999999124,0.02091040416312025,-0.002180614342999935
2.0009999999998906,0.022539318809236774,-0.0026160562966768735
2.2009999999998686,0.02401526749505294,-0.003026684828261693
2.4009999999998466,0.025533390092482875,-0.0034445815383418285
2.6009999999998246,0.027009355173745024,-0.0038532092495933185
2.8009999999998025,0.028804327570975542,-0.004268851811437578
3.0009999999997805,0.03032638088693887,-0.004643498653113328
3.2009999999997585,0.0321660398482585,-0.005045084389315577
3.4009999999997365,0.03408004091735247,-0.005464026527262005
3.6009999999997144,0.03611672406647464,-0.005852988118045734
3.8009999999996924,0.038096248410717286,-0.006224850967321666
4.000999999999671,0.040274102482445284,-0.006652198285665282
4.200999999999738,0.042879775281967805,-0.007002401737930818
4.400999999999804,0.045628313351017746,-0.007393416619283612
4.600999999999871,0.04836337815796168,-0.007763036040897781
4.800999999999938,0.05125147953975004,-0.008131889251988794
5.000000000000004,0.05403646990621684,-0.008431457891533071
5.200000000000071,0.057074541641458344,-0.008745740675162704
5.400000000000138,0.05992920669807436,-0.00901714623950973
5.600000000000205,0.06296765203914462,-0.009251484115670857
5.800000000000272,0.06590560742331864,-0.009412730322477757
6.000000000000338,0.0689451074686793,-0.009544710440199805
6.200000000000405,0.07189889421952428,-0.009559632484481885
6.400000000000472,0.07518688357281361,-0.009528100185497811
6.600000000000539,0.07826685869150553,-0.00948922910652731
6.800000000000606,0.08139542051730178,-0.009368422169708164
7.000000000000672,0.08448730050232016,-0.009178430943436882
7.200000000000739,0.08797116996479594,-0.00884017494751507
7.400000000000806,0.09072897777012759,-0.008420954106221627
7.600000000000873,0.09347297839574462,-0.005839270506289547
7.8000000000009395,0.0957903217902014,-0.0014766762915955861
8.000000000001005,0.09821324082860361,0.003192755842530994
8.200000000000895,0.10063742148849741,0.007355764002908552
8.400000000000784,0.10257966048649819,0.011629986881679849
8.600000000000673,0.1044958724936716,0.015713315091484645
8.800000000000562,0.10543012224609734,0.019774747809359974
9.000000000000451,0.10677206913450418,0.02348710424902132
9.20000000000034,0.1071986427150859,0.027546930215887416
9.40000000000023,0.10839126738014278,0.03153467179080264
9.600000000000119,0.10863485614677344,0.03572603640711995
9.800000000000008,0.10897030214032956,0.03941025326193959
10.000999999999896,0.10843544759091704,0.04316395733501497
10.200999999999786,0.10842323899334791,0.046766648552200675
10.400999999999675,0.10762638197008326,0.0506496161611116
10.600999999999564,0.10703700659715468,0.054416956159699735
10.800999999999453,0.1054862997824314,0.05818026700425311
11.000999999999342,0.10463989399484312,0.06156449554857933
11.200999999999231,0.10507172405185555,0.06546573865646772
11.40099999999912,0.1074947496961418,0.06957408217120326
11.60099999999901,0.11037046759487096,0.07248434361198139
11.800999999998899,0.11307962124791546,0.07443282483790371
12.000999999998788,0.11630184975473778,0.0760615287469288
12.200999999998677,0.11941347909341853,0.0776436370971717
12.400999999998566,0.12267044009023396,0.07923525052752386
12.600999999998455,0.12587022532953174,0.08090678759602683
12.800999999998345,0.1292173798963381,0.08266523799780327
13.000999999998234,0.1328603347139534,0.08482662312791969
13.200999999998123,0.13648239067506923,0.08711126910646054
13.400999999998012,0.14025842316277978,0.09046703308686072
13.600999999997901,0.14384528384357767,0.09393916284604921
13.80099999999779,0.1473226092643221,0.09711266443408356
14.00099999999768,0.15108731104864528,0.10334018876882961
14.200999999997569,0.15472753189135804,0.11005832455140366
14.400999999997458,0.15798772896654636,0.11672452146808278
14.600999999997347,0.161241139126637,0.12368432197498261
14.800999999997236,0.16459825800305614,0.1311351714706821
15.000999999997125,0.1674682806144781,0.13794770905837542
15.200999999997014,0.17030362583798983,0.14542493185181937
15.400999999996904,0.17283834622192706,0.15219448701307883
15.600999999996793,0.1751453471257998,0.15914953432491535
15.800999999996682,0.1768832001459159,0.16609973041577192
16.000999999996573,0.17875373709920064,0.1731765347929518
16.200999999996817,0.1799471063829718,0.18000127752553308
16.40099999999706,0.18022907910459815,0.18657156608780093
16.600999999997306,0.18053627451418797,0.1931674194381406
16.80099999999755,0.18062635177512296,0.19996454425081298
17.000999999997795,0.18107092599077498,0.20645992760201334
17.20099999999804,0.18120067612975813,0.21287710391484807
17.400999999998284,0.18162477478059302,0.21946990139190617
17.60099999999853,0.18164181949921507,0.22549180650189127
17.800999999998773,0.18201982089714402,0.23213905400698603
18.000999999999017,0.18161014062206346,0.2382278536630044
18.20099999999926,0.181095681499664,0.24419732043995654
18.400999999999506,0.17973887557911974,0.24948299866746607
18.60099999999975,0.17872303018041374,0.2549682946457555
18.799999999999994,0.17736357799755778,0.2603020262702513
19.000000000000238,0.17630959527197296,0.26575059304573495
19.200000000000482,0.1746645081812505,0.27054316286171903
19.400000000000727,0.17311523277921648,0.2755903074846776
19.60000000000097,0.17142315179480835,0.2801555194599301
19.800000000001216,0.1697816673980939,0.28495118332611735
20.00000000000146,0.1676785352450173,0.2894407800661858
