Time (s),X (m),Y (m)
0.001,0.0005727611008870025,0.0009689812320744445
0.20000000000000015,0.0025034974086866222,-0.002808112554127574
0.4000000000000003,0.011936393327775628,-0.005832735864356655
0.6000000000000004,0.01738083342732921,-0.03378737375870844
0.8000000000000006,0.05466076612483516,-0.053485333210392096
1.0000000000000007,0.09884633552835345,-0.07974850270800705
1.2009999999999785,0.1377613334392305,-0.1182082517965688
1.4009999999999565,0.1651628569576193,-0.16176297327207273
1.6009999999999345,0.19649932733484116,-0.21140420747857863
1.8009999999999124,0.2222781942663524,-0.262906515983294
2.0009999999998906,0.25438587958168946,-0.3186358629389996
2.2009999999998686,0.28579404466853986,-0.3756700494656796
2.4009999999998466,0.3002246684463637,-0.4332318415973571
2.6009999999998246,0.3006288519938347,-0.49161030389746463
2.8009999999998025,0.2773016689424261,-0.5554780443791366
3.0009999999997805,0.24590237094779183,-0.6136922789661278
3.2009999999997585,0.20779157997289938,-0.6811330318156029
3.4009999999997365,0.15937984042054051,-0.7472439567882466
3.6009999999997144,0.1027967319195605,-0.8005788882783295
3.8009999999996924,0.04081958145197632,-0.843143244067053
4.000999999999671,-0.04199617421180348,-0.8698152442652748
4.200999999999738,-0.09386002132098537,-0.8738927382790814
4.400999999999804,-0.126891326474879,-0.8585660631457419
4.600999999999871,-0.1402117721927831,-0.8194634030539769
4.800999999999938,-0.12906889843417718,-0.771015292771428
5.000000000000004,-0.09500439103768853,-0.7268908694169418
5.200000000000071,-0.04628133043476776,-0.6924255902896073
5.400000000000138,0.013630400128250762,-0.6727609902746973
5.600000000000205,0.0686958758142026,-0.666697699523447
5.800000000000272,0.13099107847091032,-0.6741214456005821
6.000000000000338,0.18932484377020653,-0.7002404412178916
6.200000000000405,0.23940685082071075,-0.7461907949143126
6.400000000000472,0.2846714941350484,-0.8100261067089229
6.600000000000539,0.3370563770711696,-0.8848485689477538
6.800000000000606,0.38273271270197823,-0.9594173019372935
7.000000000000672,0.4289567952703202,-1.0382629478537322
7.200000000000739,0.47197186003873315,-1.1202778469343504
7.400000000000806,0.5161910618388457,-1.2107954526449676
7.600000000000873,0.5534889635160007,-1.3056656898989654
7.8000000000009395,0.5677559594331296,-1.4061080660067407
8.000000000001005,0.5685369796785251,-1.4836125531395237
8.200000000000895,0.5446323557163628,-1.5384261932928003
8.400000000000784,0.5004072150062204,-1.577426741946702
8.600000000000673,0.43138259548281516,-1.6009183560444062
8.800000000000562,0.3637770921233821,-1.5941409155526869
9.000000000000451,0.3199242049724662,-1.567488586750219
9.20000000000034,0.2910601987870732,-1.5265549577761273
9.40000000000023,0.2880565361472387,-1.4730746406083568
9.600000000000119,0.31496579437275407,-1.4266379856828308
9.800000000000008,0.3584204465439249,-1.3888670686795868
10.000999999999896,0.39286763208112374,-1.3668781982220706
10.200999999999786,0.4319162929853872,-1.3589975406479575
10.400999999999675,0.47794349191326563,-1.3650937732651736
10.600999999999564,0.5033897169433098,-1.3885054671371788
10.800999999999453,0.5259236379328043,-1.4293400482505458
11.000999999999342,0.5623906486566449,-1.4868848917544386
11.200999999999231,0.592209382263798,-1.5414958722742227
11.40099999999912,0.6094437024042273,-1.5980619062659507
11.60099999999901,0.6030221601447309,-1.6462336815083896
11.800999999998899,0.5787489351674073,-1.676053512579123
12.000999999998788,0.5482017701912966,-1.6864496417271237
12.200999999998677,0.529871499496609,-1.6687447324209022
12.400999999998566,0.5317936312007616,-1.61297785179418
12.600999999998455,0.5486581063467256,-1.5598878402886533
12.800999999998345,0.5567833171381867,-1.4988657089302602
13.000999999998234,0.5701297629085548,-1.4283310942489007
13.200999999998123,0.6019941094913228,-1.370982391185852
13.400999999998012,0.6459393183038027,-1.3168332447001214
13.600999999997901,0.6975935890095244,-1.2713479715009721
13.80099999999779,0.7433664272737578,-1.241921898487877
14.00099999999768,0.7921360091655627,-1.241891189786937
14.200999999997569,0.8425392375191668,-1.2719124091180045
14.400999999997458,0.8875448124444182,-1.3284166095676737
14.600999999997347,0.9200903113830275,-1.3922546876675044
14.800999999997236,0.9410877998677194,-1.457377001849018
15.000999999997125,0.9452781340948871,-1.523892925327528
15.200999999997014,0.9256644491175048,-1.572286985471274
15.400999999996904,0.8853511289246994,-1.6158542023821438
15.600999999996793,0.8299785190112877,-1.647209228810022
15.800999999996682,0.7636351308155123,-1.6615683592931194
16.000999999996573,0.7042703589425234,-1.6548980996466598
16.200999999996817,0.6428225133769954,-1.6282455596880874
16.40099999999706,0.589387177491181,-1.592264389940388
16.600999999997306,0.5302729954401276,-1.5653509698471821
16.80099999999755,0.47797678189908344,-1.536810955903016
17.000999999997795,0.4347395616877772,-1.492663685986691
17.20099999999804,0.4032545744346728,-1.4352075871790275
17.400999999998284,0.39034515018584626,-1.3774086165447188
17.60099999999853,0.3930170279577539,-1.3129013122893403
17.800999999998773,0.4084083629840549,-1.248784775609941
18.000999999999017,0.434510373027248,-1.183615745665324
18.20099999999926,0.48040896442438474,-1.129660545140737
18.400999999999506,0.5266561748088133,-1.06818482808802
18.60099999999975,0.580006342222029,-1.0121010399968173
18.799999999999994,0.6558139509014881,-0.958511035388543
19.000000000000238,0.7435650852388334,-0.9109549230873628
19.200000000000482,0.8229362021240167,-0.8829030330265056
19.400000000000727,0.8888211715743775,-0.8956011442862063
19.60000000000097,0.950093777007131,-0.9365837882943973
19.800000000001216,1.0176779880567686,-0.9824817295951204
20.00000000000146,1.0791383070665845,-1.026265754208325
