Time (s),X (m),Y (m)
0.001,0.0012355833006349717,-0.00017906049427360483
0.20000000000000015,-0.0007448858367601714,-0.0003423360551701769
0.4000000000000003,0.004409087388029847,7.392910643536279e-05
0.6000000000000004,0.024895702274044265,-0.011759167520772575
0.8000000000000006,0.04338218415586864,-0.02167098653745705
1.0000000000000007,0.07283580636827387,-0.02769715996493342
1.2009999999999785,0.09344274771363278,-0.029874089825346273
1.4009999999999565,0.11031964349610478,-0.03745776480525278
1.6009999999999345,0.12949979192425445,-0.04432086432132229
1.8009999999999124,0.15545438782094004,-0.056226073253746886
2.0009999999998906,0.18199803352611396,-0.06889498626508647
2.2009999999998686,0.21175149863558954,-0.08995652423829431
2.4009999999998466,0.23467045587084062,-0.11854520910877517
2.6009999999998246,0.2393730560705837,-0.15866157829166672
2.8009999999998025,0.242129318237999,-0.1909464672413541
3.0009999999997805,0.22923310543494396,-0.22426197034381268
3.2009999999997585,0.20644316650511085,-0.257310322698986
3.4009999999997365,0.1831058861076559,-0.2922520198654968
3.6009999999997144,0.15714883861745418,-0.33124690952990626
3.8009999999996924,0.12982940214121796,-0.3593950251449314
4.000999999999671,0.1035498786891945,-0.36907358298667836
4.200999999999738,0.07236298618706351,-0.370743262720597
4.400999999999804,0.03664352375528929,-0.3635066013372165
4.600999999999871,0.007691416227058748,-0.35371050024826817
4.800999999999938,-0.026409391438822878,-0.34050936782543856
5.000000000000004,-0.06780487522246899,-0.3170501004048459
5.200000000000071,-0.11374770600996717,-0.28365615490503154
5.400000000000138,-0.15221906718734812,-0.2512852434869292
5.600000000000205,-0.17661754262214888,-0.21034226539313927
5.800000000000272,-0.18591699266768993,-0.18188394407226763
6.000000000000338,-0.1869087159666748,-0.15542773418571654
6.200000000000405,-0.17447897338777216,-0.11962394686828143
6.400000000000472,-0.1547300174777844,-0.08057193264563584
6.600000000000539,-0.12109879690883328,-0.037169788718080646
6.800000000000606,-0.08378896489499944,0.011560934347616365
7.000000000000672,-0.040702862797377504,0.04542763965020511
7.200000000000739,0.00023570247551950627,0.05744951096777127
7.400000000000806,0.03295743642811419,0.06238868656582723
7.600000000000873,0.06261188736424182,0.05710420888668936
7.8000000000009395,0.09811932541914334,0.046962562445715006
8.000000000001005,0.14558595996609502,0.03253556215513654
8.200000000000895,0.198398045728497,0.00734129433567642
8.400000000000784,0.25256265999506394,-0.01777940028086089
8.600000000000673,0.30490070007091963,-0.0343354268468501
8.800000000000562,0.3562138582625913,-0.04922372469745161
9.000000000000451,0.4102643761646894,-0.07346209274035626
9.20000000000034,0.46486577348127617,-0.11632847738701406
9.40000000000023,0.51524674685912,-0.14248397383824618
9.600000000000119,0.5479689365063473,-0.17567060341466437
9.800000000000008,0.5578784918366148,-0.21147154828729672
10.000999999999896,0.5481881519857257,-0.25648215122167745
10.200999999999786,0.5309663238392371,-0.3038488851173414
10.400999999999675,0.5049895130433175,-0.3628840397136339
10.600999999999564,0.47346402452936703,-0.4234725219044992
10.800999999999453,0.43654633923715047,-0.48323412616048633
11.000999999999342,0.3939874576366921,-0.533529500207781
11.200999999999231,0.3546912632831092,-0.5627581094393763
11.40099999999912,0.31484321957959455,-0.569703271337142
11.60099999999901,0.27711779928064806,-0.558498818923397
11.800999999998899,0.2311389475116056,-0.5345520419803049
12.000999999998788,0.18497665955390846,-0.5139664032796828
12.200999999998677,0.1321300949068749,-0.4945139285891115
12.400999999998566,0.07503045282355326,-0.46988645903292664
12.600999999998455,0.014558659306493358,-0.4388912206862447
12.800999999998345,-0.042677617011918405,-0.40621249468214743
13.000999999998234,-0.0733601060241974,-0.3668188292665021
13.200999999998123,-0.08074883337455,-0.3270843577929802
13.400999999998012,-0.0675851356758821,-0.27623517443086376
13.600999999997901,-0.0517534537858627,-0.22143838424969473
13.80099999999779,-0.03415254710695634,-0.16733311424133437
14.00099999999768,-0.008750142522612019,-0.11183530310366113
14.200999999997569,0.019387624912915555,-0.06110180895192437
14.400999999997458,0.05459742690632801,-0.010821870890221649
14.600999999997347,0.08398188029960717,0.043024853868868077
14.800999999997236,0.1162451768572432,0.10119469430056055
15.000999999997125,0.1563380131988029,0.15510723671995144
15.200999999997014,0.2065330202421296,0.17992027098620778
15.400999999996904,0.25779915346275867,0.18125172516167876
15.600999999996793,0.30322758839174824,0.17468725200774432
15.800999999996682,0.35349912349414114,0.15990342596765922
16.000999999996573,0.4149274537611565,0.13127517048481827
16.200999999996817,0.4797359019124259,0.10177381573859624
16.40099999999706,0.5403102011616386,0.07619728212320769
16.600999999997306,0.604141436433567,0.04625676940083853
16.80099999999755,0.6626064841179706,0.020904817247395267
17.000999999997795,0.7272944728535151,-0.007818156797364273
17.20099999999804,0.7855165431282056,-0.030804200292327364
17.400999999998284,0.8434305477590895,-0.052609662682139666
17.60099999999853,0.905035552192327,-0.0805901571032913
17.800999999998773,0.9624978998807613,-0.1249975346412462
18.000999999999017,0.9909917532490554,-0.18019587223635963
18.20099999999926,0.9857156113748015,-0.23527402911849693
18.400999999999506,0.9615576642203254,-0.28533496104795664
18.60099999999975,0.9344693399722847,-0.33019725311493375
18.799999999999994,0.915381387826541,-0.3708893688527665
19.000000000000238,0.8979853409629401,-0.4095048488369733
19.200000000000482,0.8759548683394999,-0.44850858138753064
19.400000000000727,0.853232165764166,-0.4855810681375845
19.60000000000097,0.8301163048044924,-0.5269469814506474
19.800000000001216,0.8007004004322986,-0.5755493627129658
20.00000000000146,0.7838584935538837,-0.6206348088551281
