Time (s),X (m),Y (m)
0.001,0.0011890620069237587,-0.00035268032603768894
0.20000000000000015,0.004384004063202808,-0.0012893406265013275
0.4000000000000003,0.01539820998514995,-0.0022246843817515945
0.6000000000000004,0.03308576664497959,0.0003718364368314358
0.8000000000000006,0.047835125104800494,0.004630741217742775
1.0000000000000007,0.06410429585219835,-0.004738692219749147
1.2009999999999785,0.08592936955247016,-0.018406038748053456
1.4009999999999565,0.11051247835832964,-0.022030838330209142
1.6009999999999345,0.12659035578285063,-0.03283341411867889
1.8009999999999124,0.12900677556884507,-0.05529115040905501
2.0009999999998906,0.12564230249921093,-0.08394302670203517
2.2009999999998686,0.11868267493492149,-0.11843453397833015
2.4009999999998466,0.10308188966408631,-0.14837664959604419
2.6009999999998246,0.059034868566989286,-0.16434622587101255
2.8009999999998025,0.013315774019969438,-0.17202849727285846
3.0009999999997805,-0.030585835997948733,-0.16715698301183535
3.2009999999997585,-0.08642914758765913,-0.14853875508055125
3.4009999999997365,-0.14069815205048206,-0.13166690328573286
3.6009999999997144,-0.19743486891470458,-0.11389098559905422
3.8009999999996924,-0.2605334233551634,-0.09825435412332528
4.000999999999671,-0.3241781260725729,-0.07848408499670065
4.200999999999738,-0.3882890774437366,-0.05548384298229283
4.400999999999804,-0.45117556410910004,-0.03452053494761458
4.600999999999871,-0.5019557739265279,-0.005857601708148438
4.800999999999938,-0.5295745696887494,0.034063214812737774
5.000000000000004,-0.5411997946509397,0.07779244020428835
5.200000000000071,-0.5396086788975697,0.12842200638343412
5.400000000000138,-0.5291574714832203,0.1791921709603925
5.600000000000205,-0.522542835961405,0.22872009701372045
5.800000000000272,-0.50831197714189,0.2828192779087021
6.000000000000338,-0.485882848603552,0.3446136515829387
6.200000000000405,-0.4661763041539394,0.40682913535720827
6.400000000000472,-0.44516872233131544,0.4522391132646023
6.600000000000539,-0.40171896699537213,0.46740097489399224
6.800000000000606,-0.35208030955984876,0.4681710866964299
7.000000000000672,-0.2959176560472612,0.4458503593745193
7.200000000000739,-0.23397833615323105,0.4110177409742203
7.400000000000806,-0.17631270980032318,0.3648718747121063
7.600000000000873,-0.1426453639390037,0.3021615561420903
7.8000000000009395,-0.12752592582485056,0.23943486793232127
8.000000000001005,-0.13483218079711795,0.17303407292177778
8.200000000000895,-0.1561250227102302,0.11161107645911844
8.400000000000784,-0.18581975353295482,0.06192353832823063
8.600000000000673,-0.23857679481536115,0.03938499951055148
8.800000000000562,-0.28959512822493233,0.03182051338277031
9.000000000000451,-0.34475487043955994,0.04777033050236566
9.20000000000034,-0.39868153033904,0.07222384203298472
9.40000000000023,-0.45234725469912995,0.107424655220718
9.600000000000119,-0.4954755471856616,0.15194206954258796
9.800000000000008,-0.5096528538351179,0.2030261324681135
10.000999999999896,-0.5058545284431448,0.26218841347026556
10.200999999999786,-0.49254303435873914,0.32748595267402025
10.400999999999675,-0.4706087766461267,0.3858456991694885
10.600999999999564,-0.43025730774768045,0.4174744220232712
10.800999999999453,-0.3919472623578396,0.4322579736889047
11.000999999999342,-0.3413157474905932,0.4343210172267033
11.200999999999231,-0.28718978307525356,0.42507114275194235
11.40099999999912,-0.23329346960620045,0.4121096075021145
11.60099999999901,-0.17179923131797661,0.3755641999146455
11.800999999998899,-0.10470216969269101,0.32460676327333615
12.000999999998788,-0.05162901330616683,0.28078264926349544
12.200999999998677,-0.025367283685722716,0.23202943531704787
12.400999999998566,-0.016003641459871376,0.1720811702878798
12.600999999998455,-0.025894565566277495,0.10228181256921351
12.800999999998345,-0.057664084957182914,0.03773113769916797
13.000999999998234,-0.10755278338583106,-0.007191753606683796
13.200999999998123,-0.1665255320712558,-0.03385240098806629
13.400999999998012,-0.22826772213250035,-0.03310902837183364
13.600999999997901,-0.28850004484724984,-0.014642533572605828
13.80099999999779,-0.3477167959960359,0.006488124485810516
14.00099999999768,-0.3929502206263451,0.03958116712323236
14.200999999997569,-0.40829271397791567,0.08233937090958923
14.400999999997458,-0.40027772484519925,0.13563575499902203
14.600999999997347,-0.3881162449172941,0.19180770052296722
14.800999999997236,-0.37234352714300295,0.24998916191826528
15.000999999997125,-0.3358892539630395,0.3094296384668177
15.200999999997014,-0.292771169952065,0.3672931018404522
15.400999999996904,-0.2456837204962183,0.4208911543433046
15.600999999996793,-0.19183816777590842,0.4541949378543794
15.800999999996682,-0.1349921848180287,0.45662384133481154
16.000999999996573,-0.07102918742054362,0.4446743216838223
16.200999999996817,-0.0026618795886238487,0.42310582454433265
16.40099999999706,0.05972428630099414,0.37950204266052906
16.600999999997306,0.10226059794956424,0.33028483083781973
16.80099999999755,0.11000018850734204,0.2776113301211725
17.000999999997795,0.10444818725574889,0.21837772053374135
17.20099999999804,0.0811856359845851,0.16865967888688205
17.400999999998284,0.04152129601368895,0.14368942260535533
17.60099999999853,0.0038638141476089313,0.14068183026694964
17.800999999998773,-0.03734855249921449,0.15689473873283732
18.000999999999017,-0.07470831550426128,0.19726231041707382
18.20099999999926,-0.09998417904836707,0.23971118259749843
18.400999999999506,-0.10916481860310706,0.2756503207644511
18.60099999999975,-0.10088492573636935,0.31772719864544785
18.799999999999994,-0.07832033176699718,0.3674475136786749
19.000000000000238,-0.0339686572618383,0.4176067981643043
19.200000000000482,0.02931645646886795,0.45566213980847287
19.400000000000727,0.09945076986784894,0.46345420728261205
19.60000000000097,0.16704161932745534,0.44955894919579675
19.800000000001216,0.22819006425117588,0.4218275980804367
20.00000000000146,0.2929454091634204,0.3735889844638301
