Time (s),X (m),Y (m)
0.001,-0.0007489004572251305,-0.00035268032603768894
0.20000000000000015,0.004897857406795699,0.0014067646814125022
0.4000000000000003,0.006044712214972009,0.0010010895687632927
0.6000000000000004,0.008469126660798973,0.0028935201296590844
0.8000000000000006,0.013803556505976247,0.006092473645308768
1.0000000000000007,0.011556050885648329,0.008702249884054571
1.2009999999999785,0.02199190168999048,0.016968454474287974
1.4009999999999565,0.03287318590790949,0.015926899035309618
1.6009999999999345,0.042091205423433475,0.018168510547719983
1.8009999999999124,0.05077327034915381,0.01858595049723434
2.0009999999998906,0.05839792373079575,0.018916371022258918
2.2009999999998686,0.06329222559582656,0.015377779178167772
2.4009999999998466,0.06513372283479557,0.004746570117567943
2.6009999999998246,0.06646768388506481,0.002250880054606883
2.8009999999998025,0.0750426437597057,-0.007028211966991238
3.0009999999997805,0.08220089511999926,-0.013845403654076037
3.2009999999997585,0.09661094512627146,-0.026286376117164938
3.4009999999997365,0.11855618576355904,-0.039131616353202836
3.6009999999997144,0.13790194311545162,-0.051838142571055
3.8009999999996924,0.15826963356711254,-0.05647317107125759
4.000999999999671,0.1796143781650392,-0.06213856803853904
4.200999999999738,0.19111137232938086,-0.07610143498763788
4.400999999999804,0.20698832179877802,-0.09068607166996481
4.600999999999871,0.22254301585498543,-0.10615378263415148
4.800999999999938,0.2430038550572393,-0.1256838841950214
5.000000000000004,0.25780289318253324,-0.14209937471584555
5.200000000000071,0.28151331360557413,-0.1535437367096496
5.400000000000138,0.30066081304803693,-0.1612378196765682
5.600000000000205,0.3047009355589697,-0.1688327590773761
5.800000000000272,0.30399454524344893,-0.17001597079662992
6.000000000000338,0.31462547182382805,-0.1775699884564619
6.200000000000405,0.33447254012397787,-0.19290695497416793
6.400000000000472,0.35011584495181797,-0.2087525722401745
6.600000000000539,0.36399026409335117,-0.21878468488040667
6.800000000000606,0.38369152989385674,-0.22974549900706648
7.000000000000672,0.39924656167301986,-0.24594807649132297
7.200000000000739,0.4174194558827781,-0.26421386482781045
7.400000000000806,0.43217116548217127,-0.27189681337052146
7.600000000000873,0.4403184872413746,-0.2859560600680917
7.8000000000009395,0.4636409670851676,-0.3040954937479139
8.000000000001005,0.4854460182264599,-0.31894651064159746
8.200000000000895,0.5031938661218862,-0.33748502251871293
8.400000000000784,0.521996217167561,-0.34872447071480056
8.600000000000673,0.5450658908702245,-0.36308060886119825
8.800000000000562,0.5656095526577375,-0.38272029368955035
9.000000000000451,0.5910334306573086,-0.40004791903415926
9.20000000000034,0.6108990816187043,-0.41369777959619286
9.40000000000023,0.628466626494514,-0.42702264892700614
9.600000000000119,0.6477282635142824,-0.4459735693574783
9.800000000000008,0.6657030442011423,-0.4648637115416543
10.000999999999896,0.6829193762269841,-0.4760576916876478
10.200999999999786,0.6968911789500141,-0.4901052617470811
10.400999999999675,0.7071015259015668,-0.507476379247605
10.600999999999564,0.7249627024227921,-0.5322812056011034
10.800999999999453,0.7473124337173551,-0.5552998797438192
11.000999999999342,0.7738883319991253,-0.5807101780593773
11.200999999999231,0.802881351471237,-0.6096718717924211
11.40099999999912,0.835626546157991,-0.6408167016538859
11.60099999999901,0.8610153903761811,-0.6687831160009702
11.800999999998899,0.8836140632651664,-0.6907798528088113
12.000999999998788,0.9021924326826899,-0.7085154758172431
12.200999999998677,0.9162616767943029,-0.7264153368632856
12.400999999998566,0.9227347393051332,-0.735537570313649
12.600999999998455,0.9251714867209765,-0.7493361703349354
12.800999999998345,0.9260128372982482,-0.7631526413914063
13.000999999998234,0.9329081518109686,-0.7882812237975031
13.200999999998123,0.9453870129111238,-0.8161930275817779
13.400999999998012,0.9632833889192236,-0.8564440731161347
13.600999999997901,0.9816564770116062,-0.8896664463745011
13.80099999999779,0.9927097686471013,-0.9115427126442609
14.00099999999768,0.995132258194057,-0.936032643217848
14.200999999997569,0.9981162709758351,-0.965746416416232
14.400999999997458,0.9993085839423417,-1.0022601639011723
14.600999999997347,0.9993657832778785,-1.0305835618079688
14.800999999997236,0.9947953815035652,-1.0482765002650793
15.000999999997125,0.9893664588685546,-1.0717046977948756
15.200999999997014,0.9867582041462029,-1.0983153488723107
15.400999999996904,0.9714628658532465,-1.1275664166249837
15.600999999996793,0.9643689690878601,-1.1543246222195584
15.800999999996682,0.9536657405278409,-1.1627957713322905
16.000999999996573,0.9499207828914601,-1.1877096347920881
16.200999999996817,0.9453377869058255,-1.2127720774471225
16.40099999999706,0.9337134895254041,-1.2406811309824657
16.600999999997306,0.9184481704320749,-1.2775556602297662
16.80099999999755,0.8936752787043984,-1.312539127810934
17.000999999997795,0.8702962357754439,-1.3416328221705118
17.20099999999804,0.854637388761209,-1.369698374672278
17.400999999998284,0.8400456928417703,-1.3938635740380676
17.60099999999853,0.8240801882895529,-1.4135823467495714
17.800999999998773,0.8089067297225968,-1.4320896664556597
18.000999999999017,0.7894188123900572,-1.4514913032850818
18.20099999999926,0.7663575937254323,-1.47110047985477
18.400999999999506,0.7481062284402087,-1.4942898737925399
18.60099999999975,0.7271438464629252,-1.518415131475926
18.799999999999994,0.7103655350674186,-1.552874855217079
19.000000000000238,0.6946570328602832,-1.5723039701267674
19.200000000000482,0.6825863787494296,-1.5882523375646584
19.400000000000727,0.674125726418085,-1.6134317559937816
19.60000000000097,0.6640882515481384,-1.642411001094656
19.800000000001216,0.653412391272663,-1.6644733062611785
20.00000000000146,0.6418577351896009,-1.687332234558281
