Time (s),X (m),Y (m)
0.001,0.0005727611008870025,-0.0009689812320744441
0.20000000000000015,0.0002570165715517322,0.003551250659633698
0.4000000000000003,0.0023647464042055727,0.0017755972570918435
0.6000000000000004,0.004310971703580861,-0.002268890637521522
0.8000000000000006,0.007995569506352516,-0.0032594684107665234
1.0000000000000007,0.011592585075381676,-0.0028097918128724545
1.2009999999999785,0.01524283712095965,-0.003021622698279215
1.4009999999999565,0.019607169837155165,-0.0037481735582960227
1.6009999999999345,0.023954190081254184,-0.004671533065624202
1.8009999999999124,0.02719332903882008,-0.005378392511016825
2.0009999999998906,0.030694684135017206,-0.005274857991350864
2.2009999999998686,0.03470105005925243,-0.006962094281523023
2.4009999999998466,0.03888943269181176,-0.008046369029979145
2.6009999999998246,0.043131583889351066,-0.007980301968792161
2.8009999999998025,0.04690766200494913,-0.008667578563423421
3.0009999999997805,0.05120534772298898,-0.010430176523937077
3.2009999999997585,0.05544161728264542,-0.012717362845189128
3.4009999999997365,0.059589264433215966,-0.013172112496452225
3.6009999999997144,0.06379487298206793,-0.013720121981693506
3.8009999999996924,0.0680348956865365,-0.015343123075557321
4.000999999999671,0.07310290745373904,-0.017320247476738427
4.200999999999738,0.07780606546232889,-0.01815108711598797
4.400999999999804,0.08261449241677006,-0.019163042084256503
4.600999999999871,0.08725885887380024,-0.01931492117149754
4.800999999999938,0.09205990421492091,-0.020197647315106558
5.000000000000004,0.097723612166148,-0.021121800800948415
5.200000000000071,0.10304741346228269,-0.02176410937980278
5.400000000000138,0.10796548078717803,-0.022463642407886505
5.600000000000205,0.11330108756600603,-0.02289727998895483
5.800000000000272,0.11805576951887987,-0.022738360587917675
6.000000000000338,0.1240438469454362,-0.02317184744876785
6.200000000000405,0.13000936185676287,-0.023879172170793314
6.400000000000472,0.13520336859512125,-0.024474613748390585
6.600000000000539,0.1405145313382523,-0.024334008972009293
6.800000000000606,0.14642325573196371,-0.025085962867413804
7.000000000000672,0.15197823839606117,-0.024850179399775886
7.200000000000739,0.15829095210040614,-0.0252351890945304
7.400000000000806,0.1637852490948124,-0.024972103476135387
7.600000000000873,0.16906858583067175,-0.024152926869069846
7.8000000000009395,0.1745532084718873,-0.023819863707874797
8.000000000001005,0.18080591901726847,-0.024217197825919256
8.200000000000895,0.1873783577491256,-0.023975203855056047
8.400000000000784,0.19261730418184822,-0.023578505432300164
8.600000000000673,0.1978088650836172,-0.022739331365450307
8.800000000000562,0.2034180015394551,-0.022309683835521715
9.000000000000451,0.2097694194703118,-0.021607695736429067
9.20000000000034,0.21612585892692215,-0.020923114018162478
9.40000000000023,0.2212167249370608,-0.019353974620149955
9.600000000000119,0.22619341283468333,-0.018680265802366713
9.800000000000008,0.23173359665752757,-0.01784783429102952
10.000999999999896,0.23774386917234272,-0.016878432280373445
10.200999999999786,0.24356654102236996,-0.016255248354675674
10.400999999999675,0.24838740609743165,-0.014676711101151601
10.600999999999564,0.253446193146012,-0.01356046226417025
10.800999999999453,0.25874043814712705,-0.012772241892959963
11.000999999999342,0.26435512701190966,-0.011779577321569276
11.200999999999231,0.2707439817949207,-0.011109873654065851
11.40099999999912,0.2757442319810917,-0.009621240199210955
11.60099999999901,0.2801133151708247,-0.007126314768923204
11.800999999998899,0.28524799381582683,-0.005383103624920095
12.000999999998788,0.29080884025443465,-0.00371694208639315
12.200999999998677,0.29674704495910414,-0.002181077784747519
12.400999999998566,0.3007024156178711,0.00041952290233483703
12.600999999998455,0.3050271420247683,0.0027722469391155504
12.800999999998345,0.3094870310854703,0.004968909465581174
13.000999999998234,0.31477641870090334,0.007091021419171908
13.200999999998123,0.31869237792665656,0.009792695790553205
13.400999999998012,0.32275558914314184,0.012145449952881044
13.600999999997901,0.32725920298956784,0.015097178586977284
13.80099999999779,0.33188185943349807,0.01837261687892923
14.00099999999768,0.3360930606932739,0.022161199089423444
14.200999999997569,0.33907073671733157,0.026205562053789027
14.400999999997458,0.3420601269435484,0.030483799222204934
14.600999999997347,0.34515557643038,0.034740745082115006
14.800999999997236,0.34838208121643727,0.03950759463499709
15.000999999997125,0.35146574046165974,0.04461822665495972
15.200999999997014,0.35373332638103694,0.04868386955040618
15.400999999996904,0.35633005991487116,0.05315422946483833
15.600999999996793,0.3577569290862143,0.057668752043914036
15.800999999996682,0.36004124404883725,0.061716395313637415
16.000999999996573,0.3625481525074818,0.06691663167368658
16.200999999996817,0.36421245389013773,0.07211581939535544
16.40099999999706,0.3649342223574174,0.07697547268812377
16.600999999997306,0.36567999295390136,0.08216878344111297
16.80099999999755,0.3664891972547419,0.08672832817325164
17.000999999997795,0.3676797466756054,0.09248677185051118
17.20099999999804,0.36884055650172276,0.09805649866401267
17.400999999998284,0.3688299473435959,0.10325336489655522
17.60099999999853,0.3696351315604445,0.10880709068195402
17.800999999998773,0.3706275995239142,0.11423644359905616
18.000999999999017,0.3712676083200807,0.11979498619626112
18.20099999999926,0.372083937188356,0.1254829200378828
18.400999999999506,0.3722491128975578,0.13102958200920561
18.60099999999975,0.3723635017254817,0.13646607019035892
18.799999999999994,0.37247758321666496,0.14184398605920664
19.000000000000238,0.37268308046129367,0.14817027193329704
19.200000000000482,0.37342409091633655,0.15480166321766206
19.400000000000727,0.3730050979890739,0.16033532735216474
19.60000000000097,0.37286820264401543,0.16602907035083114
19.800000000001216,0.3729873854455946,0.17176362818314958
20.00000000000146,0.372844744296003,0.17802090737642035
