Time (s),X (m),Y (m)
0.001,0.0002200807748493132,-0.0010311682891199468
0.20000000000000015,0.002415667961177692,0.0029045288989021437
0.4000000000000003,0.005881386682871951,0.001672353531062538
0.6000000000000004,0.014765390630847124,0.0007617749157488282
0.8000000000000006,0.0225909949550611,0.0008839618220555635
1.0000000000000007,0.03567798862781816,0.0012162390435795714
1.2009999999999785,0.05290242349995055,0.002931320851622873
1.4009999999999565,0.0688144759977229,0.0003960391137300158
1.6009999999999345,0.08912696326480589,-0.007625537419444596
1.8009999999999124,0.10774362698998233,0.0010571402822522192
2.0009999999998906,0.12118023579194091,0.0002760551104562363
2.2009999999998686,0.13072287492866644,-0.00951254153333928
2.4009999999998466,0.13485608646946293,-0.027842393999844582
2.6009999999998246,0.14785117257841512,-0.03411172972926276
2.8009999999998025,0.16950167902580024,-0.035799909000287206
3.0009999999997805,0.18771970722194758,-0.04055282414163744
3.2009999999997585,0.20594555967109957,-0.05268933899664471
3.4009999999997365,0.2307391306193879,-0.05028994583987572
3.6009999999997144,0.25572011725927063,-0.046448332890467944
3.8009999999996924,0.27502431092539414,-0.048227203280204585
4.000999999999671,0.29804051092808853,-0.04429852300998353
4.200999999999738,0.3170360457163689,-0.058274452159175184
4.400999999999804,0.3310256645079072,-0.07661754786012905
4.600999999999871,0.35067582395852404,-0.0824259979991867
4.800999999999938,0.3731864669465049,-0.10073697193109143
5.000000000000004,0.3892662902937032,-0.12075490709481847
5.200000000000071,0.41033584621163105,-0.13267255196472444
5.400000000000138,0.434142585218075,-0.14261428377052104
5.600000000000205,0.4554944417239304,-0.15415517784352914
5.800000000000272,0.4829397478564454,-0.1648430538094721
6.000000000000338,0.507880615824327,-0.1702388082005954
6.200000000000405,0.5309867438255472,-0.1822720819541635
6.400000000000472,0.5537876814587475,-0.19307881594608028
6.600000000000539,0.5768802856377041,-0.20186215060581258
6.800000000000606,0.5944852968852659,-0.21024937188146245
7.000000000000672,0.6215419401998777,-0.20265054041398342
7.200000000000739,0.6452406284365774,-0.2034141172916588
7.400000000000806,0.667706173659121,-0.20499040677127128
7.600000000000873,0.6912694457127025,-0.20765968235572718
7.8000000000009395,0.716985037372085,-0.21569245729226447
8.000000000001005,0.7424963942707251,-0.2137669275882904
8.200000000000895,0.7697457091235121,-0.2114900528386896
8.400000000000784,0.7904215929377342,-0.2231838714657894
8.600000000000673,0.8002320432900696,-0.23628532369940505
8.800000000000562,0.8185509909918577,-0.23966812368094534
9.000000000000451,0.8341861963107245,-0.2450857822917817
9.20000000000034,0.867815275569918,-0.2389043339796668
9.40000000000023,0.8940461308028754,-0.23664191347721464
9.600000000000119,0.9177800689980782,-0.2425405436695087
9.800000000000008,0.9323319941382499,-0.26042413937199616
10.000999999999896,0.9494412667325571,-0.2795184397368025
10.200999999999786,0.9805785565454305,-0.2868882254687657
10.400999999999675,1.0129140738359,-0.2889457807737069
10.600999999999564,1.0325376242203388,-0.29091319932512544
10.800999999999453,1.050264760783885,-0.3033541921406535
11.000999999999342,1.0661954448793165,-0.31371185663969886
11.200999999999231,1.0892559271010023,-0.31449768410610285
11.40099999999912,1.119233485227689,-0.30562445106770986
11.60099999999901,1.1462479782516324,-0.31490665333089657
11.800999999998899,1.17363381629873,-0.3220648450222602
12.000999999998788,1.1891403064548454,-0.3393063501263523
12.200999999998677,1.2108572913766908,-0.34845626600478274
12.400999999998566,1.235064832140549,-0.3579997111146463
12.600999999998455,1.258741651622019,-0.36306077357569017
12.800999999998345,1.2815931095933446,-0.3681956451800054
13.000999999998234,1.3008117070394227,-0.37504185734398143
13.200999999998123,1.3157172261053633,-0.38529191514936
13.400999999998012,1.3328765798838735,-0.396033668265788
13.600999999997901,1.3540668255277633,-0.4021590232377653
13.80099999999779,1.3670754356015917,-0.4154925719687542
14.00099999999768,1.3870971289890426,-0.42733612961764944
14.200999999997569,1.4074848640444353,-0.4347744975902103
14.400999999997458,1.4280513294241746,-0.4472574612489448
14.600999999997347,1.4608030671122916,-0.44037713513648585
14.800999999997236,1.482809390941143,-0.4446610485268372
15.000999999997125,1.4990358819197744,-0.4572767639311038
15.200999999997014,1.5173051941392557,-0.4690393283367265
15.400999999996904,1.5351369797797076,-0.4787103541687623
15.600999999996793,1.5507466629328932,-0.4804746352861078
15.800999999996682,1.5711316292372621,-0.4819217417722459
16.000999999996573,1.5920956099820456,-0.4873946498062968
16.200999999996817,1.6070223555439567,-0.4926052246703766
16.40099999999706,1.6260342579449911,-0.49673729223611046
16.600999999997306,1.6532906152391726,-0.4980928129541195
16.80099999999755,1.681170567104317,-0.49880321319092746
17.000999999997795,1.6992439725616253,-0.49461032625650664
17.20099999999804,1.7214530438268194,-0.49038110409466934
17.400999999998284,1.7441396278253818,-0.49915167352835205
17.60099999999853,1.77005701439802,-0.5065348372157678
17.800999999998773,1.7960869340639405,-0.5067286522987173
18.000999999999017,1.8143698110216533,-0.5071860590777754
18.20099999999926,1.8319161873160263,-0.5175471744342555
18.400999999999506,1.8564104660895324,-0.5167926287289195
18.60099999999975,1.8852958537409703,-0.5196902897162943
18.799999999999994,1.906410578183758,-0.526804998556801
19.000000000000238,1.9294060738396197,-0.5267079804290916
19.200000000000482,1.9473521526552053,-0.5324260824575849
19.400000000000727,1.9609411154873193,-0.5504632920279052
19.60000000000097,1.9777745206403599,-0.5641329946590695
19.800000000001216,1.9965477152814164,-0.5674135967505893
20.00000000000146,2.0181604300596496,-0.5730687531787806
