Time (s),X (m),Y (m)
0.001,-0.000795421750936344,0.00017906049427360518
0.20000000000000015,0.004950024300322467,-0.0005264681911146716
0.4000000000000003,-0.00044031602060651736,-0.0005485959245537145
0.6000000000000004,0.008222092424731698,0.002436281278252341
0.8000000000000006,0.02829365421570611,0.0030137716558447875
1.0000000000000007,0.04332312484307168,-0.004519225602493987
1.2009999999999785,0.060237623002991375,-0.008135823018114878
1.4009999999999565,0.07552961638796941,-0.013249514351378784
1.6009999999999345,0.09203620937249837,-0.020490617064775334
1.8009999999999124,0.11331179281167776,-0.02653949646356571
2.0009999999998906,0.13928199182838888,-0.036423816105255705
2.2009999999998686,0.15628465566965338,-0.03578165840851546
2.4009999999998466,0.16507459880843528,-0.03464799542741496
2.6009999999998246,0.18389215203221262,-0.04495274359190858
2.8009999999998025,0.2017626124856267,-0.05933265279560628
3.0009999999997805,0.2340785655917893,-0.07178699937133143
3.2009999999997585,0.25493629072749385,-0.08232410976650001
3.4009999999997365,0.2662274845572901,-0.08926679018675243
3.6009999999997144,0.28915157393715524,-0.10803969536016006
3.8009999999996924,0.312472228475613,-0.12241416005138889
4.000999999999671,0.3418555423629606,-0.13869133718970938
4.200999999999738,0.37148854904704876,-0.15521385352151215
4.400999999999804,0.39655218326363245,-0.17206408445959334
4.600999999999871,0.411157768029444,-0.1836274771017051
4.800999999999938,0.42985556308613776,-0.19412895797309757
5.000000000000004,0.4481249647553814,-0.208591050018646
5.200000000000071,0.4700700897516061,-0.2154807344057085
5.400000000000138,0.4909952771770541,-0.2211786667232126
5.600000000000205,0.5093267617660608,-0.22030941869910067
5.800000000000272,0.5289757240896924,-0.24151163897737685
6.000000000000338,0.5542389547772747,-0.27471617755641503
6.200000000000405,0.5832955844295894,-0.3018551875461713
6.400000000000472,0.6103502838393112,-0.32290115245314843
6.600000000000539,0.6409298340152156,-0.34508650766379967
6.800000000000606,0.6634638340467842,-0.36444966733220713
7.000000000000672,0.6850622026480514,-0.3945514576031508
7.200000000000739,0.7035355863305085,-0.43045414157147116
7.400000000000806,0.716178709809704,-0.4390718585168977
7.600000000000873,0.726046191175007,-0.4500854954330771
7.8000000000009395,0.7352095269096786,-0.4812715030165648
8.000000000001005,0.7399417437927968,-0.5121221448445945
8.200000000000895,0.738145057128728,-0.551853995495593
8.400000000000784,0.7302745821865895,-0.5845071064652145
8.600000000000673,0.7245877766679246,-0.6157032398970278
8.800000000000562,0.7182928622451722,-0.638383118537989
9.000000000000451,0.7119320317047391,-0.6526874681330507
9.20000000000034,0.706999827973085,-0.6687143181307357
9.40000000000023,0.7001323808242229,-0.6906129811660857
9.600000000000119,0.6895221173551002,-0.7230913075959304
9.800000000000008,0.6791825559658408,-0.7427703476707334
10.000999999999896,0.662229336527409,-0.770960050812546
10.200999999999786,0.6479438797168777,-0.8056919380016084
10.400999999999675,0.636936076781875,-0.8387466558160485
10.600999999999564,0.6191148832386872,-0.8668535187497203
10.800999999999453,0.6058849276380048,-0.8840240426851901
11.000999999999342,0.5920295076841099,-0.9129339523698643
11.200999999999231,0.5772318004183327,-0.9482201178081469
11.40099999999912,0.5648640144323831,-0.9847114122971404
11.60099999999901,0.5624199942706439,-1.0090822314705232
11.800999999998899,0.5543220882233663,-1.035147226813877
12.000999999998788,0.5488108308676097,-1.0658313754923472
12.200999999998677,0.5368862017101029,-1.097032715004453
12.400999999998566,0.52028156978352,-1.128074515457966
12.600999999998455,0.507424735538058,-1.1610995747831654
12.800999999998345,0.49247586249371944,-1.1914402634827193
13.000999999998234,0.4780901252264425,-1.2173011320435332
13.200999999998123,0.4648658488759465,-1.249236477588562
13.400999999998012,0.44635637314992527,-1.2832451701002137
13.600999999997901,0.4287030245089736,-1.3234220273255415
13.80099999999779,0.40690872046737386,-1.366188287032035
14.00099999999768,0.3818990470574662,-1.4090696146148418
14.200999999997569,0.350502490344445,-1.4418366168779722
14.400999999997458,0.317322206002517,-1.4643664556801927
14.600999999997347,0.28301817095603,-1.4730443226182925
14.800999999997236,0.24889973879730634,-1.473440091638484
15.000999999997125,0.21811773162522374,-1.468246722159053
15.200999999997014,0.18285253798982862,-1.4579087704216422
15.400999999996904,0.1392201307195661,-1.443848826376511
15.600999999996793,0.09644018938779435,-1.4267913335851539
15.800999999996682,0.05747288321992556,-1.4024785395491008
16.000999999996573,0.030711447357836978,-1.3894380581823003
16.200999999996817,0.007545151389291735,-1.3888749594439227
16.40099999999706,-0.014092348629743389,-1.3847138374832002
16.600999999997306,-0.04540687512716001,-1.369712267186028
16.80099999999755,-0.08187429401840318,-1.3545897433688459
17.000999999997795,-0.1192704755878317,-1.3408362934055946
17.20099999999804,-0.1553901200459039,-1.3225056017245143
17.400999999998284,-0.19976585386856738,-1.290274600674956
17.60099999999853,-0.23601737113810348,-1.258360773537879
17.800999999998773,-0.2633171904308497,-1.2246771080511325
18.000999999999017,-0.28177263068069847,-1.194201573440971
18.20099999999926,-0.28879493329087097,-1.1613656486642576
18.400999999999506,-0.28839199840176866,-1.1379519020821167
18.60099999999975,-0.28682010349838827,-1.1112325628391841
18.799999999999994,-0.28625063963183156,-1.0797246119806527
19.000000000000238,-0.2759137008280794,-1.0413692117687854
19.200000000000482,-0.2658054580342621,-1.007892858495586
19.400000000000727,-0.2554704982833125,-0.9781288031114889
19.60000000000097,-0.23907785636411347,-0.9401561475091174
19.800000000001216,-0.23004128648126854,-0.9111729156338777
20.00000000000146,-0.21378867143458904,-0.8763509854152954
