Time (s),X (m),Y (m)
0.001,0.000949226864630559,-0.0007291460897812452
0.20000000000000015,0.001245090787694539,0.0013711298753710148
0.4000000000000003,0.011303163360601717,0.000810745089899445
0.6000000000000004,0.02965229910869614,0.00787128466157035
0.8000000000000006,0.057115137341856186,0.01993279259837769
1.0000000000000007,0.09036151272663373,0.030424940985495978
1.2009999999999785,0.12571232343072977,0.02528799087212897
1.4009999999999565,0.1511639718169823,0.004509202955172805
1.6009999999999345,0.15477603381691987,-0.04752064569275226
1.8009999999999124,0.1559847295983459,-0.10690639984962225
2.0009999999998906,0.14899942526562202,-0.16875437887925837
2.2009999999998686,0.11580325147121143,-0.22381651155394114
2.4009999999998466,0.08372101788161611,-0.27169175065172435
2.6009999999998246,0.05347131673458525,-0.2967115800584138
2.8009999999998025,0.01793600602922306,-0.2981734879900083
3.0009999999997805,-0.012857851451426726,-0.27611614858534467
3.2009999999997585,-0.03023766179837623,-0.2474040466864867
3.4009999999997365,-0.04168360602019582,-0.20423488510501592
3.6009999999997144,-0.04851417253850574,-0.14816200818620798
3.8009999999996924,-0.0607942779060494,-0.09057272285753243
4.000999999999671,-0.07169025091025734,-0.03091504491577903
4.200999999999738,-0.07712139543395444,0.0355727350184735
4.400999999999804,-0.07594593091191534,0.10142031346338415
4.600999999999871,-0.054465707760467226,0.16770364608313262
4.800999999999938,-0.01827181018964993,0.2260291852189221
5.000000000000004,0.031418783389466805,0.2674117689464866
5.200000000000071,0.08900947075490602,0.2894533874170038
5.400000000000138,0.15524556417471433,0.29382314789213404
5.600000000000205,0.23187931455835373,0.28701687891383043
5.800000000000272,0.2999055448346581,0.2715823382717622
6.000000000000338,0.34718229057220235,0.23788653320583458
6.200000000000405,0.3705154045479622,0.19898559517630915
6.400000000000472,0.3693803579350771,0.15707285812003446
6.600000000000539,0.3464554250622205,0.11910588604763678
6.800000000000606,0.3073923015628138,0.09323565656158134
7.000000000000672,0.25070002972155353,0.08343830409960978
7.200000000000739,0.18437762261910942,0.09043954647035603
7.400000000000806,0.1168165986769805,0.1215759762586258
7.600000000000873,0.06590898503956023,0.17866666385696084
7.8000000000009395,0.03253623044013825,0.2453573407167385
8.000000000001005,0.02103836750982629,0.3139433448265045
8.200000000000895,0.023154200913085773,0.38053268044848776
8.400000000000784,0.041567751966323306,0.44257756522754205
8.600000000000673,0.07791147182578624,0.48271706405899445
8.800000000000562,0.12070856936779326,0.5108533837776523
9.000000000000451,0.17493893460725854,0.5176669227733739
9.20000000000034,0.2372957824562597,0.5120301280978397
9.40000000000023,0.30030106653548444,0.49349923997475653
9.600000000000119,0.3526262336062342,0.4556426615930925
9.800000000000008,0.3746826328795127,0.4005495012983808
10.000999999999896,0.3717683086288122,0.3404103249418424
10.200999999999786,0.3479339671607063,0.28425627812062515
10.400999999999675,0.30521482265222283,0.2438517569708047
10.600999999999564,0.2442461185352389,0.239249437636156
10.800999999999453,0.17859316480024293,0.24868959497818252
11.000999999999342,0.11597939980675993,0.2756513879530869
11.200999999999231,0.07059110908041055,0.31782194459600477
11.40099999999912,0.049838990488645526,0.3712320442382854
11.60099999999901,0.04834726084586616,0.42831505543529413
11.800999999998899,0.06020884692654626,0.482925746864275
12.000999999998788,0.08415123291773743,0.5416101012896027
12.200999999998677,0.10311386151474344,0.5961882031028377
12.400999999998566,0.151598646884106,0.63217548949657
12.600999999998455,0.22059011303782536,0.6542591084165066
12.800999999998345,0.29992009202169523,0.6733067213516204
13.000999999998234,0.37535428104533525,0.6856449195952099
13.200999999998123,0.45840947105079305,0.6706412484545164
13.400999999998012,0.5364781676274937,0.6463924398763387
13.600999999997901,0.6017400266616691,0.5958937206621185
13.80099999999779,0.6442424341497043,0.5292388592967768
14.00099999999768,0.6667596819894946,0.44692163285277015
14.200999999997569,0.687302448739163,0.3740280172465652
14.400999999997458,0.6948951473473862,0.2999601089159053
14.600999999997347,0.6930292359917268,0.23049412387789933
14.800999999997236,0.6690731326928587,0.17383060366828917
15.000999999997125,0.6256208453218033,0.1433154468142904
15.200999999997014,0.5742487914814963,0.1608661722052456
15.400999999996904,0.5181052943123121,0.1982862118938386
15.600999999996793,0.4694993332030642,0.24048709367455787
15.800999999996682,0.4316527948791969,0.30095634741438543
16.000999999996573,0.404334656772367,0.37696409321792795
16.200999999996817,0.3937607591935935,0.4581759436671883
16.40099999999706,0.41288021755572324,0.5263088582641345
16.600999999997306,0.47019813908459857,0.5747539067830996
16.80099999999755,0.5216095367323567,0.6022143723500942
17.000999999997795,0.5738157428006565,0.6147241242264462
17.20099999999804,0.6289977564100613,0.6028495352124486
17.400999999998284,0.6851121616204554,0.5816484897183711
17.60099999999853,0.7363756215324684,0.5515228368703922
17.800999999998773,0.763808964327128,0.5007355645368047
18.000999999999017,0.7492381278355501,0.4413932499874964
18.20099999999926,0.7174475888813023,0.38683032693927166
18.400999999999506,0.6726295122029624,0.3523103893119153
18.60099999999975,0.6190172304113913,0.328108205489663
18.799999999999994,0.5557439715125476,0.3235128815691004
19.000000000000238,0.49055291672641155,0.3349352208518718
19.200000000000482,0.4308029340301804,0.362045739274342
19.400000000000727,0.3948146960386717,0.40235024718667645
19.60000000000097,0.38858040368885316,0.4425684232893403
19.800000000001216,0.4021926631493126,0.48426018079877237
20.00000000000146,0.4273995961685934,0.5184232673450974
