Time (s),X (m),Y (m)
0.001,-0.0004427414248986554,0.0007899207378008392
0.20000000000000015,0.0023429134488199936,-0.000941242420349024
0.4000000000000003,0.0024070824302176606,-0.00045267094619685764
0.6000000000000004,0.004388206252816562,-0.001773778680822822
0.8000000000000006,0.005838837317848259,-0.0006110221058287524
1.0000000000000007,0.007908641697551495,-0.0019179327176677178
1.2009999999999785,0.010444484464529101,-0.003385540121640411
1.4009999999999565,0.012469899114196336,-0.003728185118514697
1.6009999999999345,0.014381511325503473,-0.004199922698938345
1.8009999999999124,0.016815250454840256,-0.0051915711061493045
2.0009999999998906,0.018739520373233624,-0.006634127938776981
2.2009999999998686,0.020730393084192483,-0.008179185891837408
2.4009999999998466,0.023060988711921356,-0.009498797034919924
2.6009999999998246,0.02647586623083415,-0.01054085114380209
2.8009999999998025,0.027509641122986206,-0.011547141507614813
3.0009999999997805,0.02874425440614166,-0.012551528211030224
3.2009999999997585,0.029920754963963923,-0.013266595206268102
3.4009999999997365,0.031605574149764615,-0.01430023281516351
3.6009999999997144,0.03298792948952796,-0.015100232941539133
3.8009999999996924,0.03437082090711925,-0.015951172041262313
4.000999999999671,0.03579922186833198,-0.01675374196308471
4.200999999999738,0.03794869538448825,-0.01718758269809993
4.400999999999804,0.03922802814259471,-0.017899079546957977
4.600999999999871,0.04069558965673859,-0.018458033576580577
4.800999999999938,0.042830891925367764,-0.01889471651692217
5.000000000000004,0.04434690605920348,-0.019394265123562897
5.200000000000071,0.04609230558499404,-0.0198940559674913
5.400000000000138,0.04893974131261815,-0.019500993983642252
5.600000000000205,0.05043913227004696,-0.019832697073514743
5.800000000000272,0.052129179390525915,-0.02017975005856468
6.000000000000338,0.05416027707548493,-0.020303818362507376
6.200000000000405,0.05566417287948953,-0.020577455456303954
6.400000000000472,0.057981897200247906,-0.020249420304129708
6.600000000000539,0.05979295270222822,-0.020308057484329116
6.800000000000606,0.0618608837550258,-0.020406923021150908
7.000000000000672,0.06360959597917823,-0.02042535197120526
7.200000000000739,0.06538270555505614,-0.020424503250354165
7.400000000000806,0.06692791554404669,-0.020273729866068523
7.600000000000873,0.06873898607255866,-0.020170408519191472
7.8000000000009395,0.07058228316451244,-0.019894530673282285
8.000000000001005,0.07301898243411202,-0.01912204587856652
8.200000000000895,0.07536579817745782,-0.01868510292783476
8.400000000000784,0.07682962988520355,-0.018170163452712242
8.600000000000673,0.07892538314127741,-0.01734042110351803
8.800000000000562,0.08050871954203205,-0.017065846424241703
9.000000000000451,0.08180769966104667,-0.016675701176789046
9.20000000000034,0.08364668099979712,-0.015883085196349435
9.40000000000023,0.08517627530274893,-0.015398581631932303
9.600000000000119,0.08713426465211795,-0.01449034950121035
9.800000000000008,0.08972913590725573,-0.01258436239026513
10.000999999999896,0.09212783334347742,-0.01035155796756505
10.200999999999786,0.09436416220190622,-0.007526644574312888
10.400999999999675,0.09657592462925066,-0.005018943556096627
10.600999999999564,0.0982585176029392,-0.0021610131655405555
10.800999999999453,0.09984913493005962,0.00014766522488958718
11.000999999999342,0.10174603977671161,0.0022686716585898587
11.200999999999231,0.10329635534379115,0.0045979191842207175
11.40099999999912,0.10478606450384335,0.00733625405441902
11.60099999999901,0.10617366364634515,0.009778210085628491
11.800999999998899,0.10751869181605751,0.012380059767662129
12.000999999998788,0.10880753342909355,0.014917348331361071
12.200999999998677,0.11010105839748721,0.017391306642135528
12.400999999998566,0.11120892773391798,0.02006248494449839
12.600999999998455,0.11216046219042544,0.022733873247475382
12.800999999998345,0.11335278129754685,0.025239381661522276
13.000999999998234,0.11405219820158193,0.027987180257374306
13.200999999998123,0.11489752867308241,0.030874501416553818
13.400999999998012,0.1155265632741417,0.03375988550345502
13.600999999997901,0.11594512488068648,0.03671384966866182
13.80099999999779,0.11595468390833676,0.03970934897515597
14.00099999999768,0.11613734498754485,0.04306795712184271
14.200999999997569,0.11615649205422762,0.04634831837814626
14.400999999997458,0.11609465183658671,0.04950511683375827
14.600999999997347,0.11583279923135315,0.052748982728198134
14.800999999997236,0.11569053833842258,0.05597281316825799
15.000999999997125,0.1146571789177946,0.05931247044182787
15.200999999997014,0.11420595721070902,0.06269114789944821
15.400999999996904,0.11303382555783706,0.06583901652276862
15.600999999996793,0.11214666474614525,0.06886018558291027
15.800999999996682,0.11105508301409085,0.07202483307268086
16.000999999996573,0.11015609197589522,0.07506436594084107
16.200999999996817,0.10856077318636857,0.07776924424174138
16.40099999999706,0.10744539758046609,0.08054622578826635
16.600999999997306,0.10570995152004568,0.08305787685194584
16.80099999999755,0.10424185821284809,0.08546708747259954
17.000999999997795,0.10246188677239519,0.08786622974711858
17.20099999999804,0.10114119785926717,0.09034567226366509
17.400999999998284,0.09940034367778498,0.09275533590919642
17.60099999999853,0.09819923048912288,0.09527557792547867
17.800999999998773,0.09668964190869472,0.09797153892774786
18.000999999999017,0.09523851685663834,0.10065273572813532
18.20099999999926,0.09337585514541817,0.10312169862852227
18.400999999999506,0.0918454310181615,0.10560774725885695
18.60099999999975,0.08965003701286413,0.10780552098933435
18.799999999999994,0.08752754749520048,0.11002589050308934
19.000000000000238,0.08469723300176143,0.11193631836469417
19.200000000000482,0.08230054691664972,0.11382469956274248
19.400000000000727,0.07962836393861712,0.115673634815129
19.60000000000097,0.07697565846402392,0.11754406639782533
19.800000000001216,0.07422704899670628,0.1190768446668897
20.00000000000146,0.07184289788581674,0.12073284876193013
