Time (s),X (m),Y (m)
0.001,0.00013020853671323254,0.0010272443824616275
0.20000000000000015,0.0031099817468886798,-0.007369823166098621
0.4000000000000003,0.01158815041177676,-0.0026630295176282848
0.6000000000000004,0.033573410618301894,0.00859920805252463
0.8000000000000006,0.06527984232573565,-0.0028637832528433777
1.0000000000000007,0.10135059210613728,-0.02135307249253488
1.2009999999999785,0.11754523201040354,-0.05396651251600272
1.4009999999999565,0.11100947415600317,-0.09777565257172471
1.6009999999999345,0.08815796598239724,-0.14139628860200912
1.8009999999999124,0.05460905113754231,-0.1555267098557589
2.0009999999998906,0.002393722081252938,-0.16374213589850217
2.2009999999998686,-0.058114042032473834,-0.15881290199971115
2.4009999999998466,-0.11005410087433667,-0.1440801826659383
2.6009999999998246,-0.14032772176872543,-0.1145871641068698
2.8009999999998025,-0.14747281601767256,-0.06916152224540946
3.0009999999997805,-0.1402590835687629,-0.019495456332714354
3.2009999999997585,-0.12046951682592892,0.022332302995986503
3.4009999999997365,-0.08947614855684344,0.05159696086382719
3.6009999999997144,-0.05036203795469011,0.06533898450801094
3.8009999999996924,-0.009448814792292537,0.052413067364293645
4.000999999999671,0.009438670617503512,0.027852473796540753
4.200999999999738,0.006585143411587634,-0.009643912875213831
4.400999999999804,-0.01546078030860157,-0.053888170096788035
4.600999999999871,-0.04755169536392548,-0.08498064784164074
4.800999999999938,-0.08714563288303717,-0.10153390209527666
5.000000000000004,-0.1407356481977141,-0.11401514186149404
5.200000000000071,-0.19961679426709697,-0.11422784558864577
5.400000000000138,-0.2610949464340478,-0.09281453058655836
5.600000000000205,-0.3283268803734341,-0.0701492236061209
5.800000000000272,-0.3867181701396875,-0.04670135769850365
6.000000000000338,-0.4190457341351461,-0.011658950525483491
6.200000000000405,-0.4251142589091952,0.03131911487485696
6.400000000000472,-0.4075695850615267,0.06214764086248877
6.600000000000539,-0.3708589906902172,0.0903424672635279
6.800000000000606,-0.31658456275210994,0.09949086863103448
7.000000000000672,-0.2574061805579679,0.08650725934004877
7.200000000000739,-0.20426361904993304,0.06337404212999942
7.400000000000806,-0.19148418625689928,0.02455753955837645
7.600000000000873,-0.2066415853592948,-0.020274194466038398
7.8000000000009395,-0.23729765693379715,-0.06685767567371201
8.000000000001005,-0.2709850572004076,-0.10412576099703094
8.200000000000895,-0.31688967928126033,-0.13110800005434597
8.400000000000784,-0.37539606829095196,-0.15768955316298636
8.600000000000673,-0.4212026013631122,-0.16137674875214839
8.800000000000562,-0.44187554375881144,-0.14112751925064462
9.000000000000451,-0.4528260390554909,-0.10206175495768063
9.20000000000034,-0.4414169420851743,-0.07979879305306443
9.40000000000023,-0.4146391579038688,-0.0653996277857725
9.600000000000119,-0.370707613333049,-0.05970592150043207
9.800000000000008,-0.33419059095822384,-0.06835320825707013
10.000999999999896,-0.3069643268977835,-0.095878004828146
10.200999999999786,-0.3080033715122232,-0.13602332263713932
10.400999999999675,-0.3242885277082641,-0.18443931633013186
10.600999999999564,-0.3517830882045157,-0.23998549470373842
10.800999999999453,-0.3905664654996496,-0.2818078815565812
11.000999999999342,-0.4432053602093906,-0.29561105132549154
11.200999999999231,-0.5037200902598906,-0.2889541428418785
11.40099999999912,-0.5714983260946958,-0.2837569798961464
11.60099999999901,-0.6430017798322089,-0.2767163192802061
11.800999999998899,-0.71759189731891,-0.26374369109760687
12.000999999998788,-0.7828568997568834,-0.2522818145281298
12.200999999998677,-0.8131166969431187,-0.22955611482090182
12.400999999998566,-0.8099990912073148,-0.19134373293235915
12.600999999998455,-0.7872326541240101,-0.13920829513334126
12.800999999998345,-0.7658848153889128,-0.08904288341065224
13.000999999998234,-0.7289482245271194,-0.07748731201081634
13.200999999998123,-0.6773624042317712,-0.08122374342764871
13.400999999998012,-0.6267208347293133,-0.10289002909578387
13.600999999997901,-0.5858010143578548,-0.13810487767156215
13.80099999999779,-0.558626239427211,-0.187871357109677
14.00099999999768,-0.5439925020770412,-0.2613176630883753
14.200999999997569,-0.5701196295877718,-0.31657815653860916
14.400999999997458,-0.6139111231815924,-0.3665712942780395
14.600999999997347,-0.6631200832716384,-0.39211803240675863
14.800999999997236,-0.7199497479776027,-0.4161996191895154
15.000999999997125,-0.785072204584584,-0.41776639925028575
15.200999999997014,-0.8523684998605094,-0.40665652287656817
15.400999999996904,-0.9299891502806186,-0.39866091433850015
15.600999999996793,-0.990006195439035,-0.3699767473612094
15.800999999996682,-1.0434699497332167,-0.33338309286550405
16.000999999996573,-1.086993311448132,-0.2907678711436533
16.200999999996817,-1.1048511791349445,-0.23418442816439133
16.40099999999706,-1.0983776919242185,-0.16934784830552108
16.600999999997306,-1.092800318995831,-0.09645936525824586
16.80099999999755,-1.0836830447935142,-0.016469850882425165
17.000999999997795,-1.0638472310060412,0.0555684430388223
17.20099999999804,-1.0310521800421697,0.09148218970409903
17.400999999998284,-0.9822070545369576,0.10976941792830912
17.60099999999853,-0.9273662189724522,0.11463340150012194
17.800999999998773,-0.8781212175197957,0.09935776661715773
18.000999999999017,-0.8341963877397559,0.06580184507993654
18.20099999999926,-0.811302513027521,0.011241178760507656
18.400999999999506,-0.8152503184229849,-0.04400285602658179
18.60099999999975,-0.8396442911748713,-0.08727614791250869
18.799999999999994,-0.8792364656427543,-0.09439014597403972
19.000000000000238,-0.932868076529128,-0.08886776209508583
19.200000000000482,-0.9908619073999729,-0.07010494046136556
19.400000000000727,-1.0550402796183935,-0.04439071444087813
19.60000000000097,-1.1261615063062833,-0.01565093033499729
19.800000000001216,-1.180225320660241,0.01886515719524013
20.00000000000146,-1.2220577434663351,0.06277960844468987
