Time (s),X (m),Y (m)
0.001,-0.0007144750753253542,-0.00043579054991000363
0.20000000000000015,0.008411139742213653,0.0029012099937558663
0.4000000000000003,0.01412845421829167,0.0074886422011372755
0.6000000000000004,0.026981722288214816,0.014135881671849116
0.8000000000000006,0.0371649932714169,0.020820936377924145
1.0000000000000007,0.056066290252746606,0.018514430187324304
1.2009999999999785,0.07081560812881534,0.009395112477334306
1.4009999999999565,0.09100264984810817,0.0024642592435119197
1.6009999999999345,0.10307205107886055,-0.006810877381012009
1.8009999999999124,0.12698997413512164,-0.017785377777342005
2.0009999999998906,0.14489194302512287,-0.03095853866078278
2.2009999999998686,0.1708207536620136,-0.047604399618196194
2.4009999999998466,0.18645555381972498,-0.05470245819029223
2.6009999999998246,0.20587016826415971,-0.06321985910230075
2.8009999999998025,0.23039537412799552,-0.07696730700838203
3.0009999999997805,0.2649121506317863,-0.10672020661791001
3.2009999999997585,0.2983984225532329,-0.1428244388942669
3.4009999999997365,0.3341795428909928,-0.18229766599096073
3.6009999999997144,0.3702618990817951,-0.2179993465571498
3.8009999999996924,0.4159024650355429,-0.25986794640975086
4.000999999999671,0.4692666554355437,-0.302502950402372
4.200999999999738,0.5157118187417902,-0.3485263868068623
4.400999999999804,0.5582054259732745,-0.391200511815743
4.600999999999871,0.5963199900656193,-0.43687190856922986
4.800999999999938,0.6281454182702193,-0.4875392097262397
5.000000000000004,0.6428059642414348,-0.5295393660878533
5.200000000000071,0.6332314253150152,-0.5741496245163712
5.400000000000138,0.6086086553120494,-0.6083453690567232
5.600000000000205,0.57770088228219,-0.645376878932548
5.800000000000272,0.5564149587665532,-0.6945905527256505
6.000000000000338,0.5454390260452926,-0.7451876412187823
6.200000000000405,0.5409834462695641,-0.8065253439801047
6.400000000000472,0.528088612846858,-0.8588490805004448
6.600000000000539,0.5041314881825242,-0.8941373702938447
6.800000000000606,0.4803295555503778,-0.9258547424250065
7.000000000000672,0.45710515844189137,-0.9638758886097198
7.200000000000739,0.426102794392065,-1.0046816204772446
7.400000000000806,0.3841210400581079,-1.0524369114383878
7.600000000000873,0.334942311197883,-1.1082902171027942
7.8000000000009395,0.28424844039739805,-1.1652707728177059
8.000000000001005,0.23804077903310875,-1.212798332017343
8.200000000000895,0.19338819480689315,-1.2555114414182273
8.400000000000784,0.1455041177987651,-1.2996980765248243
8.600000000000673,0.08811746683344379,-1.3400039324199176
8.800000000000562,0.02184225780737465,-1.3750614505917504
9.000000000000451,-0.04708688420935934,-1.3968488408638764
9.20000000000034,-0.11225235538664932,-1.3983227603879178
9.40000000000023,-0.17151677450298924,-1.3784318375583138
9.600000000000119,-0.22533427974003337,-1.3410775866198756
9.800000000000008,-0.27795704069013843,-1.2936897198053032
10.000999999999896,-0.33481023713851193,-1.2415794814421406
10.200999999999786,-0.39014962748555143,-1.1773091667078148
10.400999999999675,-0.44404185740329566,-1.112072450926105
10.600999999999564,-0.48797808726281816,-1.0536726517598798
10.800999999999453,-0.509091561719783,-1.0017222584139638
11.000999999999342,-0.505111803553041,-0.9543718920279399
11.200999999999231,-0.48462021723647064,-0.9021648817957848
11.40099999999912,-0.4619624631858679,-0.8462088432296848
11.60099999999901,-0.43430996990787885,-0.7997798416073851
11.800999999998899,-0.4021253283914366,-0.7589031769702995
12.000999999998788,-0.3645874605891816,-0.7139584902690691
12.200999999998677,-0.32303966125400757,-0.6651806802407744
12.400999999998566,-0.27356177246948643,-0.6098838479609833
12.600999999998455,-0.2282873707862838,-0.5578980488624333
12.800999999998345,-0.17854104142623517,-0.5026388619860622
13.000999999998234,-0.12327924943685602,-0.4469178662376869
13.200999999998123,-0.06878024575595496,-0.39406585248622017
13.400999999998012,-0.015387671703216312,-0.344359880914783
13.600999999997901,0.037066061838695465,-0.2926926403145404
13.80099999999779,0.09408481339276276,-0.23724850464822733
14.00099999999768,0.1545550923769546,-0.17855750602636053
14.200999999997569,0.2145196660096764,-0.12364162626134106
14.400999999997458,0.2679687408929448,-0.07405485176269419
14.600999999997347,0.32494473732405826,-0.03142567498468149
14.800999999997236,0.37902873339201854,-0.006349324015081472
15.000999999997125,0.4286215046941716,0.0028365419740048006
15.200999999997014,0.48204846981577726,-0.010738983034205653
15.400999999996904,0.5271772070740158,-0.029890906891924546
15.600999999996793,0.5802712943552218,-0.045294815806415784
15.800999999996682,0.635583789012214,-0.06367166751981115
16.000999999996573,0.7017421588137347,-0.09448096454406313
16.200999999996817,0.762108499942477,-0.14181354936576704
16.40099999999706,0.8241696511273913,-0.19367073975900978
16.600999999997306,0.8791429777095584,-0.24874127274179672
16.80099999999755,0.9431718147578951,-0.3026934937191656
17.000999999997795,1.0107831724758916,-0.3592512909229023
17.20099999999804,1.0717193028272658,-0.4171382334030667
17.400999999998284,1.1232271128407616,-0.47122597467674593
17.60099999999853,1.1824839062411499,-0.528009413147036
17.800999999998773,1.2498600131947448,-0.5870692466870399
18.000999999999017,1.3109602125826612,-0.6502253795290641
18.20099999999926,1.3716756006736124,-0.7147085002683621
18.400999999999506,1.4239479174757148,-0.7834129037460863
18.60099999999975,1.4562137467452672,-0.8539910189929983
18.799999999999994,1.463161814194342,-0.9220959119094876
19.000000000000238,1.4490791527568074,-0.9707585846232536
19.200000000000482,1.422907969788824,-1.0140762794729457
19.400000000000727,1.3841232412671478,-1.0573282114817892
19.60000000000097,1.334037497253549,-1.1107739912924484
19.800000000001216,1.2865284681469915,-1.1689010669970392
20.00000000000146,1.2477954946650716,-1.2335859339778168
