Time (s),X (m),Y (m)
0.001,0.0002200807748493132,0.0010311682891199472
0.20000000000000015,6.791761911225077e-05,-0.004839070103680688
0.4000000000000003,0.00692648333044471,0.0035720445275721066
0.6000000000000004,0.022452260865807414,0.013313212068975738
0.8000000000000006,0.04407556120496961,0.027101805284665846
1.0000000000000007,0.07191510235273288,0.035939356898623265
1.2009999999999785,0.10364264116043694,0.029524480802223675
1.4009999999999565,0.13320990236520727,0.023524159401613415
1.6009999999999345,0.16095130303343516,0.022355279136392507
1.8009999999999124,0.1953309299505511,0.01609775567570583
2.0009999999998906,0.22426466472023057,0.0019740072558182263
2.2009999999998686,0.26201327948268166,0.0048926802366895715
2.4009999999998466,0.3011100743136791,0.013618821323011484
2.6009999999998246,0.3346544281129421,0.007225999752397912
2.8009999999998025,0.3673493098782924,-0.01445324056763175
3.0009999999997805,0.40331365731401886,-0.01962759306695454
3.2009999999997585,0.44475092382526604,-0.013701623943418999
3.4009999999997365,0.4918808778341194,-0.008562294344513737
3.6009999999997144,0.524590135998745,-0.02374964726049022
3.8009999999996924,0.5581319115249004,-0.054905178286832404
4.000999999999671,0.5932711820378621,-0.08247943603791905
4.200999999999738,0.6179503684118478,-0.11170973503584057
4.400999999999804,0.6496666528243049,-0.14355851870978467
4.600999999999871,0.6763790738737718,-0.1703321613170909
4.800999999999938,0.7045496350564848,-0.20241349196648742
5.000000000000004,0.7342743558886625,-0.2375965061239999
5.200000000000071,0.7616339593965097,-0.27677941632783537
5.400000000000138,0.7609893606170963,-0.3193712871602793
5.600000000000205,0.7512871126516387,-0.36484640058456896
5.800000000000272,0.7331935367804002,-0.40907742198195984
6.000000000000338,0.7099431249138326,-0.4415377498878856
6.200000000000405,0.6867934066477811,-0.4724783735468585
6.400000000000472,0.6688710127403785,-0.5042775600822127
6.600000000000539,0.6551064001428052,-0.5463783290762076
6.800000000000606,0.6299768752326332,-0.5848130291626417
7.000000000000672,0.6100938161648957,-0.6219047735060347
7.200000000000739,0.5942888115905312,-0.6622645652649571
7.400000000000806,0.572317251535921,-0.7058194070557653
7.600000000000873,0.5400768411232749,-0.7435868017733523
7.8000000000009395,0.4977653779462765,-0.7686470367124227
8.000000000001005,0.45360165781528183,-0.798938481620815
8.200000000000895,0.43200738798186655,-0.8422654766840486
8.400000000000784,0.4115286697509909,-0.8871295707767238
8.600000000000673,0.3835194545522393,-0.9279898459538763
8.800000000000562,0.3500434607114934,-0.9612551339097718
9.000000000000451,0.3105369228562159,-0.9763996227791365
9.20000000000034,0.27405629442963175,-0.9651609558674364
9.40000000000023,0.2428590063410349,-0.9460708275883715
9.600000000000119,0.20558306265747806,-0.9245935830464947
9.800000000000008,0.1885822598769767,-0.8973723271175073
10.000999999999896,0.19689324173532366,-0.8677139093964886
10.200999999999786,0.21623373842569288,-0.8442923314358971
10.400999999999675,0.2360393390229032,-0.8304594406636127
10.600999999999564,0.26401503135508336,-0.8089415805424452
10.800999999999453,0.3044357970171688,-0.7999584652405801
11.000999999999342,0.35094344339643346,-0.7982880994453572
11.200999999999231,0.38808414528201685,-0.8052521474313229
11.40099999999912,0.41839683129428673,-0.819945295485825
11.60099999999901,0.4299996816514537,-0.8395005474917893
11.800999999998899,0.4294918827427916,-0.8710403676689468
12.000999999998788,0.4293838499661938,-0.9138657943719326
12.200999999998677,0.40971445912538645,-0.9517736231451108
12.400999999998566,0.38908587929422705,-0.9864378626590965
12.600999999998455,0.3688604765730124,-1.01736570671674
12.800999999998345,0.3415416690969699,-1.0309096806584002
13.000999999998234,0.31218761559064684,-1.0325687190341888
13.200999999998123,0.28227348382895157,-1.0258196888906939
13.400999999998012,0.25380563563758474,-1.010513592557376
13.600999999997901,0.2272592662219,-0.9865504701769211
13.80099999999779,0.19734768269530853,-0.9661767617660955
14.00099999999768,0.17778928056998747,-0.9404639905489013
14.200999999997569,0.1758940906961578,-0.9153124984245792
14.400999999997458,0.17640720738992008,-0.8840054744811129
14.600999999997347,0.19328314813584327,-0.8518078489816231
14.800999999997236,0.22088471238596813,-0.8283305674840293
15.000999999997125,0.24928561967700974,-0.8081615805884127
15.200999999997014,0.28076863106673244,-0.7847444328181609
15.400999999996904,0.3144457061730328,-0.7542575469790288
15.600999999996793,0.34740030160599744,-0.7379446449805699
15.800999999996682,0.3825484436458648,-0.7413397552667715
16.000999999996573,0.42420193705389375,-0.7419188044855461
16.200999999996817,0.4699834344904853,-0.7422479451575759
16.40099999999706,0.5047141908325952,-0.7569225620726157
16.600999999997306,0.5355661417808465,-0.7729397994761676
16.80099999999755,0.5612135340027926,-0.794999952161962
17.000999999997795,0.5790368896801746,-0.8266058013875034
17.20099999999804,0.5938582427736802,-0.8601844673061808
17.400999999998284,0.5983295328361997,-0.8990124392335346
17.60099999999853,0.5895191223324594,-0.9447078753067256
17.800999999998773,0.5703990446899169,-0.9910726336770806
18.000999999999017,0.5453462021178088,-1.0326241191450938
18.20099999999926,0.510335124257753,-1.0557072161066388
18.400999999999506,0.4650481479962777,-1.0635759713298716
18.60099999999975,0.42866507502593165,-1.0548900354186008
18.799999999999994,0.3999778859175994,-1.0296212581622797
19.000000000000238,0.37756458879033356,-0.9929162248715271
19.200000000000482,0.3467655505489669,-0.9596358096717894
19.400000000000727,0.3212542906856215,-0.926636256492488
19.60000000000097,0.2920671680895836,-0.8902185751447974
19.800000000001216,0.28923430367359015,-0.8514646742938428
20.00000000000146,0.29995996164334526,-0.8078784195516617
