Time (s),X (m),Y (m)
0.001,4.1020280575708355e-05,-0.0010155025257856578
0.20000000000000015,0.001168156943456662,-0.0011508508120627813
0.4000000000000003,0.0005747602040706501,-0.009752210777229414
0.6000000000000004,0.00268098617522566,-0.0063520328538256695
0.8000000000000006,0.003992775713074241,-0.006337983362594734
1.0000000000000007,0.005444226391796765,-0.005928718052260949
1.2009999999999785,0.006887513378295578,-0.005676546846491452
1.4009999999999565,0.008244818533649605,-0.005224280185786387
1.6009999999999345,0.009430223979553688,-0.006349115321175981
1.8009999999999124,0.010107082827688393,-0.007139622054702139
2.0009999999998906,0.011108809918934245,-0.006171174284398624
2.2009999999998686,0.011922098592827366,-0.005912066720844619
2.4009999999998466,0.012341953756907303,-0.005070039308159133
2.6009999999998246,0.01259870780100672,-0.004985692039314927
2.8009999999998025,0.012595216320514913,-0.004540131212030859
3.0009999999997805,0.012469224732310883,-0.0048362039319749936
3.2009999999997585,0.012329525219949003,-0.005073364849766525
3.4009999999997365,0.012210398616528373,-0.005304716546404251
3.6009999999997144,0.01204667812993392,-0.00511435603944414
3.8009999999996924,0.011913092920264086,-0.005017856077775193
4.000999999999671,0.011786669089363435,-0.004922795574434682
4.200999999999738,0.011655852269390409,-0.004846423564151398
4.400999999999804,0.011526547767378015,-0.00473902741387837
4.600999999999871,0.011395670933223679,-0.004638385612672872
4.800999999999938,0.011275669828948802,-0.004552849693076097
5.000000000000004,0.01114585098040273,-0.004427809454184735
5.200000000000071,0.01103097108498217,-0.004358366815547805
5.400000000000138,0.010908823094278798,-0.004269279683318396
5.600000000000205,0.010792929010608543,-0.004192598959247926
5.800000000000272,0.0106768198073648,-0.004118885818239019
6.000000000000338,0.010557943171508963,-0.004037712187563163
6.200000000000405,0.010434758201385003,-0.003981432972304438
6.400000000000472,0.010314623748246123,-0.003902387761828324
6.600000000000539,0.010196716754863123,-0.0038253464615984373
6.800000000000606,0.010071917599078422,-0.0037410991498407257
7.000000000000672,0.009944276378102879,-0.003671705111112736
7.200000000000739,0.009815350020014678,-0.003610227750924648
7.400000000000806,0.009674776158036006,-0.0035717232121191588
7.600000000000873,0.009539948433455746,-0.0035105143446900167
7.8000000000009395,0.00939603816188489,-0.003448869559688315
8.000000000001005,0.009253624384718986,-0.003391577043258302
8.200000000000895,0.009107187774857499,-0.0033346916411295716
8.400000000000784,0.00896057081460901,-0.0032996863080341143
8.600000000000673,0.008815909171869486,-0.003220651341899851
8.800000000000562,0.008664786954469794,-0.0031531816931114356
9.000000000000451,0.00850759788843421,-0.0031146828164170153
9.20000000000034,0.008347375326749461,-0.003093281868209196
9.40000000000023,0.008192634296236363,-0.00308399645658402
9.600000000000119,0.008034009902227954,-0.003080015736530849
9.800000000000008,0.007876320818296806,-0.003090968760729358
10.000999999999896,0.007724190369048022,-0.0031294147550631262
10.200999999999786,0.00756486760275507,-0.0031410465705394024
10.400999999999675,0.007412297345442216,-0.003136085421733667
10.600999999999564,0.00726008030177005,-0.0031598100747127033
10.800999999999453,0.00711134096658908,-0.003187151632384283
11.000999999999342,0.006964538799291686,-0.0032039149183620097
11.200999999999231,0.0068194364307275525,-0.0032283952048737814
11.40099999999912,0.006672093222321705,-0.0032423692524580407
11.60099999999901,0.0065216740466362225,-0.0032303106693884857
11.800999999998899,0.006376571770526478,-0.0032176040120357446
12.000999999998788,0.006235274154925933,-0.0032335817725537824
12.200999999998677,0.00608837332005458,-0.0032272755044401168
12.400999999998566,0.005950347570186618,-0.0032001964729742823
12.600999999998455,0.005815128780571514,-0.0031991610739166626
12.800999999998345,0.005680332326728505,-0.003198545360226682
13.000999999998234,0.005549399616649209,-0.003173022153251339
13.200999999998123,0.005413461918271401,-0.003165885502184842
13.400999999998012,0.005289176834799622,-0.003163786915270401
13.600999999997901,0.005164830012525102,-0.0031544545364893023
13.80099999999779,0.005042830258927451,-0.003144304804657133
14.00099999999768,0.004914008516414714,-0.003123546863099475
14.200999999997569,0.004790120656445335,-0.00310882726634498
14.400999999997458,0.004679721492575956,-0.00311824109009271
14.600999999997347,0.004572241574262129,-0.0031121075303238966
14.800999999997236,0.004459345047962073,-0.003085326642397822
15.000999999997125,0.004344567198734538,-0.0030553603484413916
15.200999999997014,0.004241698423897168,-0.003052321275021688
15.400999999996904,0.0041423679237356185,-0.0030515659054529093
15.600999999996793,0.004036818187807655,-0.003032546135002668
15.800999999996682,0.003928761405951322,-0.002987598610726737
16.000999999996573,0.0038289729162012433,-0.002962144203317488
16.200999999996817,0.0037286869069594686,-0.00293169280978864
16.40099999999706,0.00362756499381289,-0.002887891738346934
16.600999999997306,0.0035363556179176876,-0.002881382731298323
16.80099999999755,0.0034462072819799907,-0.0028827795411143016
17.000999999997795,0.0033525325997065558,-0.0028599359702832865
17.20099999999804,0.003249523658186169,-0.0028135902780152106
17.400999999998284,0.0031555693174114465,-0.0027646100359226523
17.60099999999853,0.0030724380159172604,-0.002742839570359688
17.800999999998773,0.0029645320964173474,-0.0026893935280897932
18.000999999999017,0.0028783865547888678,-0.0026410658452645677
18.20099999999926,0.0027808298711283954,-0.0025794473054861597
18.400999999999506,0.002689519529412251,-0.002492347682019582
18.60099999999975,0.0026144697678130045,-0.002437347209933573
18.799999999999994,0.0025129345809050438,-0.0023523040738536007
19.000000000000238,0.002420063584778477,-0.0022794465259349805
19.200000000000482,0.002330950203414358,-0.0022050008067722596
19.400000000000727,0.0022454497797488536,-0.002129353218069702
19.60000000000097,0.002160811163622121,-0.002038878831239353
19.800000000001216,0.00208056488220624,-0.001937438606399779
20.00000000000146,0.0019841462499213193,-0.0018136939029449513
