Time (s),X (m),Y (m)
0.001,-0.0007144750753253542,-0.00043579054991000363
0.20000000000000015,0.00527626439136657,0.0014732803036679582
0.4000000000000003,0.00527778271072344,-0.0003847527887961541
0.6000000000000004,0.007313760458856563,-0.0007328164836647665
0.8000000000000006,0.011824510760618197,0.002851992743318818
1.0000000000000007,0.020078371953574665,0.007620078510536896
1.2009999999999785,0.025811693474813414,0.0033888434133464993
1.4009999999999565,0.03407190699691975,0.0020460420035257336
1.6009999999999345,0.049689447726805926,0.004487591107431034
1.8009999999999124,0.06481186212294449,-0.0018278974725250614
2.0009999999998906,0.07808887352269281,-0.0071039284380655906
2.2009999999998686,0.08648545662908448,-0.003399361452724843
2.4009999999998466,0.09988085198012855,0.003976818386980782
2.6009999999998246,0.11155492014983953,0.004114111879439584
2.8009999999998025,0.12410180178334995,0.0014341474286619627
3.0009999999997805,0.14219922933117357,0.0011204859837136275
3.2009999999997585,0.1565394091905945,-0.0009524559288078602
3.4009999999997365,0.1723398968639242,-0.002818268610605839
3.6009999999997144,0.17784992306615985,-0.008658340893353962
3.8009999999996924,0.19693179698884164,-0.015307296899181614
4.000999999999671,0.22166048415008685,-0.01941794052749983
4.200999999999738,0.2420501483814411,-0.021663107081073628
4.400999999999804,0.2501076359941018,-0.02399117996295936
4.600999999999871,0.25504276105067164,-0.03206357110981085
4.800999999999938,0.2721323595449403,-0.03507271286731572
5.000000000000004,0.2889669039631818,-0.03712907391121074
5.200000000000071,0.30013225807367927,-0.03376201944464227
5.400000000000138,0.31383018325514417,-0.03466956495919558
5.600000000000205,0.32980705573142693,-0.03876138127521648
5.800000000000272,0.3512846878703395,-0.05049737876211413
6.000000000000338,0.368932854033269,-0.061544361315191885
6.200000000000405,0.3920376071944871,-0.07000030310068223
6.400000000000472,0.4134881145360305,-0.07718941036240912
6.600000000000539,0.43620642049575786,-0.08699457808988018
6.800000000000606,0.4504267500910045,-0.09484247947052853
7.000000000000672,0.4734607613058278,-0.10865427826113633
7.200000000000739,0.49382292552203155,-0.12225287281024774
7.400000000000806,0.5008570135442457,-0.13098024313955822
7.600000000000873,0.5113442378036483,-0.1367906301558324
7.8000000000009395,0.5327422630258316,-0.14419043286110234
8.000000000001005,0.5433582438295079,-0.1561319393934332
8.200000000000895,0.5590794309213972,-0.16679595830587574
8.400000000000784,0.5768952158753176,-0.178504122295243
8.600000000000673,0.6024582569925696,-0.18615756553948948
8.800000000000562,0.6262893790625221,-0.19564035242214936
9.000000000000451,0.6438864294051343,-0.21307003595530402
9.20000000000034,0.6548283382572893,-0.22706108192904745
9.40000000000023,0.6716337603542825,-0.23766551791756338
9.600000000000119,0.6864241437322105,-0.24952819860494474
9.800000000000008,0.7011673425279935,-0.2627677599021538
10.000999999999896,0.7137379368817681,-0.266114577678466
10.200999999999786,0.729188091714995,-0.27704570919435856
10.400999999999675,0.7420383900137044,-0.2888564223608326
10.600999999999564,0.7594485422888131,-0.30454517042563467
10.800999999999453,0.7768053161728248,-0.3161437934456117
11.000999999999342,0.7875347194888435,-0.326320259501083
11.200999999999231,0.8020963521046178,-0.3385704415249023
11.40099999999912,0.8130088393915681,-0.3518519863808433
11.60099999999901,0.8230336358708767,-0.36060472916649
11.800999999998899,0.8422032434907846,-0.36697427554242723
12.000999999998788,0.8671533387326189,-0.3778495373908891
12.200999999998677,0.8924149645700699,-0.3933846600281289
12.400999999998566,0.9117602860328554,-0.4069276649216015
12.600999999998455,0.9242198679998415,-0.4148198469568839
12.800999999998345,0.9393004691903576,-0.42635718721765103
13.000999999998234,0.950007658730005,-0.4399297424275111
13.200999999998123,0.9562675975416868,-0.4505551065224956
13.400999999998012,0.9701650220940834,-0.4609632245389275
13.600999999997901,0.985340756615566,-0.47115560977088944
13.80099999999779,0.998531757945161,-0.48090416069762704
14.00099999999768,1.0157382379827378,-0.4982098298005806
14.200999999997569,1.0314002874636898,-0.5201737569366788
14.400999999997458,1.051580573140335,-0.5403299381647572
14.600999999997347,1.0749438394501634,-0.5541727190184959
14.800999999997236,1.0944898884860041,-0.5655807547566897
15.000999999997125,1.1228945450227714,-0.5812164912731007
15.200999999997014,1.1493964903851752,-0.597818055688009
15.400999999996904,1.1815689424001719,-0.6097541877697443
15.600999999996793,1.2049688746111058,-0.6243469143825617
15.800999999996682,1.2234921911760765,-0.6380777826604491
16.000999999996573,1.2353504903117623,-0.6524878470317962
16.200999999996817,1.250140373020128,-0.6651525550498676
16.40099999999706,1.2760565006762716,-0.6758644106719396
16.600999999997306,1.296079047121889,-0.6898143720829061
16.80099999999755,1.3202338172848511,-0.7071695085667854
17.000999999997795,1.3433926320972318,-0.7258176744835173
17.20099999999804,1.3577476774416886,-0.741823962271746
17.400999999998284,1.3778491972122293,-0.7577699455055791
17.60099999999853,1.3965081285078575,-0.7749373445534139
17.800999999998773,1.4206106317146547,-0.7905326761246096
18.000999999999017,1.44027364277345,-0.8057581940608134
18.20099999999926,1.456451247382561,-0.8153018879433128
18.400999999999506,1.4720510881462554,-0.8271422513162616
18.60099999999975,1.4836635265123828,-0.8359022878467373
18.799999999999994,1.5033760709872503,-0.8426932826781619
19.000000000000238,1.5226743586583706,-0.853381774245499
19.200000000000482,1.5436740370015354,-0.8633925308092549
19.400000000000727,1.5595220485900907,-0.8730950768414492
19.60000000000097,1.5733667374426656,-0.8824487417660949
19.800000000001216,1.5945994333237397,-0.8922539040928006
20.00000000000146,1.6168697315481966,-0.9026686820134436
