Time (s),X (m),Y (m)
0.001,0.00048696676677933824,0.00099603208171127
0.20000000000000015,0.0014240259832059418,-0.002542353494360495
0.4000000000000003,0.004741291496817311,-0.006729163357685794
0.6000000000000004,0.012667589749809532,0.0008342374664632813
0.8000000000000006,0.018673043919188084,-0.006767761012192003
1.0000000000000007,0.027374213379584972,-0.0019076284780978779
1.2009999999999785,0.047357504527800694,0.003465400580412524
1.4009999999999565,0.060914854486060176,0.0010686624851212452
1.6009999999999345,0.07635239784337866,0.0036235805530339857
1.8009999999999124,0.0970628943764217,0.021131922516695392
2.0009999999998906,0.12037777738112662,0.036890320600111
2.2009999999998686,0.14638693774839717,0.04225290835485339
2.4009999999998466,0.17250128271918239,0.060602339602033074
2.6009999999998246,0.19175089671261922,0.04637952570416781
2.8009999999998025,0.21134918504915992,0.04808307056801417
3.0009999999997805,0.23301178913471673,0.05953732759937223
3.2009999999997585,0.25668427784308634,0.07036657260135798
3.4009999999997365,0.2788262617942339,0.07834282877949744
3.6009999999997144,0.2966381880191005,0.06887645112063188
3.8009999999996924,0.31900135502637084,0.06790701510257684
4.000999999999671,0.34638990202750886,0.07123660824847225
4.200999999999738,0.3762383694418577,0.07452059773808034
4.400999999999804,0.4080870330496912,0.07487556656164567
4.600999999999871,0.43578039613208347,0.06314564586760812
4.800999999999938,0.46832985173615127,0.049951658177497756
5.000000000000004,0.49981682722177845,0.05587272203615451
5.200000000000071,0.5329691108155665,0.06420987693452206
5.400000000000138,0.5660357583981817,0.0824834703128145
5.600000000000205,0.6013527377792478,0.09073507816218751
5.800000000000272,0.6357205437940141,0.09007681164140484
6.000000000000338,0.6638034480506341,0.0876254381433735
6.200000000000405,0.6873296577503025,0.08135792595927406
6.400000000000472,0.7138367934773937,0.08210165620651186
6.600000000000539,0.7372497395415746,0.09079557663779404
6.800000000000606,0.7655811722616757,0.09734423992025684
7.000000000000672,0.7946459086797841,0.10272572847019935
7.200000000000739,0.8242374404367232,0.11130913633050857
7.400000000000806,0.8576990867831407,0.11858160837828016
7.600000000000873,0.8880062294702266,0.12655587816729266
7.8000000000009395,0.9255688604897256,0.13611848765155557
8.000000000001005,0.9668757835115227,0.15225919782934239
8.200000000000895,1.011379465326453,0.15678816458820452
8.400000000000784,1.0464337321118342,0.15531429747148545
8.600000000000673,1.0710789826128366,0.13782875038978085
8.800000000000562,1.0922085846045257,0.1243615437389003
9.000000000000451,1.1194039776286415,0.1335538480381086
9.20000000000034,1.1497224061592044,0.1467208544382526
9.40000000000023,1.1843416330375975,0.14037891151449872
9.600000000000119,1.2208016984959293,0.1486116661601629
9.800000000000008,1.2546279660725832,0.1591538946746292
10.000999999999896,1.2851918958370392,0.17036295477182575
10.200999999999786,1.3229019042445125,0.19260606724136353
10.400999999999675,1.3584620426555702,0.20712765618973175
10.600999999999564,1.3950798727348483,0.22562412645970797
10.800999999999453,1.4326722517203505,0.24397106490216375
11.000999999999342,1.470196963082304,0.25663783016583375
11.200999999999231,1.5038037648214164,0.25797008649858777
11.40099999999912,1.545445084931366,0.2657256369251215
11.60099999999901,1.580754777220229,0.27528500074614215
11.800999999998899,1.6210797243135553,0.28847687049972537
12.000999999998788,1.6574471727738294,0.3011019434843981
12.200999999998677,1.6922199091579007,0.30685824127090305
12.400999999998566,1.7265172119406822,0.313351892337147
12.600999999998455,1.7614956141409301,0.3286757127281244
12.800999999998345,1.7936147802901115,0.3333678026256956
13.000999999998234,1.82598896797518,0.3332953155348798
13.200999999998123,1.8618007599031545,0.33667304409646776
13.400999999998012,1.8995919347413128,0.3416003700233333
13.600999999997901,1.942676545423072,0.3436214954665717
13.80099999999779,1.9903480320507632,0.35528449444711024
14.00099999999768,2.029052253061612,0.3651808296804555
14.200999999997569,2.0692584323296788,0.3766743056005685
14.400999999997458,2.102825680940286,0.37457253292181764
14.600999999997347,2.1388973250730605,0.3763526192022566
14.800999999997236,2.1698932360801266,0.3808971613846311
15.000999999997125,2.2032370215942616,0.37562153622709
15.200999999997014,2.23877353263508,0.36724785150361955
15.400999999996904,2.266692734388224,0.3571644284201762
15.600999999996793,2.2992935745212866,0.34256610702788337
15.800999999996682,2.341547719553269,0.32959180744805183
16.000999999996573,2.377000903205183,0.31086806147078366
16.200999999996817,2.4144607008822456,0.2977924323047949
16.40099999999706,2.4591131381387914,0.29247989807645414
16.600999999997306,2.5059857523714895,0.2812677689760608
16.80099999999755,2.538442579835585,0.2654054838771392
17.000999999997795,2.5500266549721924,0.24233958731798458
17.20099999999804,2.576787569615344,0.22178960201606257
17.400999999998284,2.602548959663887,0.2051357873955113
17.60099999999853,2.639732423093562,0.191449446520711
17.800999999998773,2.6772519096600518,0.17727900984132186
18.000999999999017,2.7137729848156913,0.16321635924043779
18.20099999999926,2.7444415812178122,0.14981932694159372
18.400999999999506,2.7732076394285587,0.13404326257472143
18.60099999999975,2.8069954050999444,0.11260815040871713
18.799999999999994,2.8355125110759682,0.08293310077392953
19.000000000000238,2.8600511201554415,0.05272632315215006
19.200000000000482,2.888617676512057,0.019891117600152067
19.400000000000727,2.907818779146897,-0.017718333508992445
19.60000000000097,2.9361253615257414,-0.05195734515006205
19.800000000001216,2.9629976625831564,-0.0836607686780805
20.00000000000146,2.9893307448254007,-0.12070041127690159
