Time (s),X (m),Y (m)
0.001,0.000949226864630559,-0.0007291460897812452
0.20000000000000015,0.00036148401406958005,0.004319642911727065
0.4000000000000003,-0.0005481115057159575,0.013667687577587937
0.6000000000000004,0.015304969874116425,0.012239831140511498
0.8000000000000006,0.04441208144890061,0.0048447791200992366
1.0000000000000007,0.08189002059941813,-0.01572418553723723
1.2009999999999785,0.1270997263349337,-0.03769923343991238
1.4009999999999565,0.160348957757225,-0.03932722379696728
1.6009999999999345,0.18838583852605909,-0.03898956508382688
1.8009999999999124,0.21090575839238437,-0.04792983964629204
2.0009999999998906,0.23188426015005986,-0.05101152153108593
2.2009999999998686,0.2557400762259023,-0.04739209578152388
2.4009999999998466,0.2816545609993831,-0.05345137906135707
2.6009999999998246,0.30907334579453527,-0.0804420253416441
2.8009999999998025,0.33147018789331073,-0.10830033049362496
3.0009999999997805,0.3541420553359892,-0.11965167014543414
3.2009999999997585,0.3675699336356038,-0.132877725422865
3.4009999999997365,0.38158240183320424,-0.15514435332741705
3.6009999999997144,0.3932714792335756,-0.18229417458947253
3.8009999999996924,0.39618500580882804,-0.20925987773510546
4.000999999999671,0.3903677568937163,-0.23958569396547172
4.200999999999738,0.38944799648639156,-0.26771220437409543
4.400999999999804,0.3571098295745084,-0.2884936135911382
4.600999999999871,0.3273715481215277,-0.30998062099432144
4.800999999999938,0.3149575981095409,-0.335875524622128
5.000000000000004,0.29427433259957714,-0.35620276541691415
5.200000000000071,0.27014625685868776,-0.37184804217027057
5.400000000000138,0.24422540835306067,-0.3890951635398151
5.600000000000205,0.20906087768537404,-0.3976094700963523
5.800000000000272,0.1758639499919101,-0.4060620300779754
6.000000000000338,0.13832833053888602,-0.40602893495145637
6.200000000000405,0.09900732075321529,-0.40579565806401235
6.400000000000472,0.06216546388573664,-0.41427093301795226
6.600000000000539,0.01922822072068481,-0.41322515197810067
6.800000000000606,-0.021326027689440627,-0.4061176761616134
7.000000000000672,-0.06122725411556375,-0.39577383750711387
7.200000000000739,-0.09664146682402043,-0.3663895305744323
7.400000000000806,-0.11719583773217182,-0.3227316937973939
7.600000000000873,-0.13254266175011925,-0.2861669687135082
7.8000000000009395,-0.14911153536164548,-0.24020217626803547
8.000000000001005,-0.1593757097628853,-0.18815299330425703
8.200000000000895,-0.16608337509275437,-0.13707757762464584
8.400000000000784,-0.16849915542167615,-0.08559328305222134
8.600000000000673,-0.16769224891649273,-0.03254560137581823
8.800000000000562,-0.17114713634340017,0.01174089687959853
9.000000000000451,-0.17006906024598117,0.047146679032297
9.20000000000034,-0.14553500295458502,0.07515624404765436
9.40000000000023,-0.10986668826708362,0.09720776513326077
9.600000000000119,-0.06913168321145531,0.11326861235241983
9.800000000000008,-0.025931687014245173,0.12387406581572977
10.000999999999896,0.014672315950713544,0.1227842560806232
10.200999999999786,0.05497037046651049,0.12119358384923581
10.400999999999675,0.09794607733905376,0.12539035765257944
10.600999999999564,0.1358652466935246,0.13262729784027721
10.800999999999453,0.1744066864582065,0.14440713646563644
11.000999999999342,0.21848623867504807,0.15121741952297396
11.200999999999231,0.2592610522183446,0.15775855320556745
11.40099999999912,0.30181062486616844,0.16395232924032377
11.60099999999901,0.3388055544071443,0.16921196446675457
11.800999999998899,0.3831218833121876,0.1601924326344868
12.000999999998788,0.4225935089705071,0.1422281954653531
12.200999999998677,0.4624734829572976,0.1137194716446133
12.400999999998566,0.5035923234611366,0.09783041635172096
12.600999999998455,0.5316998830093838,0.059191734594797575
12.800999999998345,0.546295988811434,0.016438721671606905
13.000999999998234,0.5616736438077853,-0.02792265054567003
13.200999999998123,0.5707579557009862,-0.06974485883005685
13.400999999998012,0.558770111046846,-0.11601530121662289
13.600999999997901,0.5355884801880777,-0.16588940395158253
13.80099999999779,0.51469522746173,-0.21173429536835311
14.00099999999768,0.4813809957533261,-0.24187515283082933
14.200999999997569,0.44473215822141077,-0.2597940037535321
14.400999999997458,0.4111807649623309,-0.26952205616961
14.600999999997347,0.36994301981733047,-0.2728430545269018
14.800999999997236,0.3167882607370219,-0.25926753521399565
15.000999999997125,0.26846406206241835,-0.25108943148031176
15.200999999997014,0.2260436992859176,-0.25318748692715043
15.400999999996904,0.18586813386895765,-0.23846997079655585
15.600999999996793,0.14641922447503247,-0.21631486130390865
15.800999999996682,0.11075935148387488,-0.19851126142290504
16.000999999996573,0.09062152946589391,-0.1622429054876814
16.200999999996817,0.07673756100224648,-0.14313788986955878
16.40099999999706,0.0638123057382978,-0.10715841614779636
16.600999999997306,0.05233257248971354,-0.07275061239833301
16.80099999999755,0.038978697867778016,-0.042480776049461356
17.000999999997795,0.0319519201635435,-0.0028952020904449
17.20099999999804,0.029013188725423005,0.028049996392240605
17.400999999998284,0.02427172072185406,0.07056519994681383
17.60099999999853,0.0240469012241458,0.1145778699424852
17.800999999998773,0.03057247627002879,0.16590374382928622
18.000999999999017,0.037617428212847456,0.22004400507482016
18.20099999999926,0.03395548482528917,0.2660261937355526
18.400999999999506,0.03407838048505398,0.3060563361025879
18.60099999999975,0.05444287687275564,0.33976436146152716
18.799999999999994,0.0851406895790638,0.36486489448396797
19.000000000000238,0.11950062255896812,0.38119766044021636
19.200000000000482,0.16226593628446023,0.3901792364978822
19.400000000000727,0.20844595740215352,0.3965826616717792
19.60000000000097,0.25181416570847076,0.39237190320726734
19.800000000001216,0.30323276794380977,0.3787819389565738
20.00000000000146,0.35401088332617087,0.36370769752620513
