Time (s),X (m),Y (m)
0.001,0.0005727611008870025,0.0009689812320744445
0.20000000000000015,0.0008555449562609697,-0.002353820698411413
0.4000000000000003,0.008067398159191684,-0.001259688803407764
0.6000000000000004,0.02449049498832953,0.00024519824802451474
0.8000000000000006,0.04670929411690964,0.01665318521662911
1.0000000000000007,0.0698592820471217,0.013115770073834567
1.2009999999999785,0.09485470220233128,0.011425541162658885
1.4009999999999565,0.13498535267493536,0.019613569821605205
1.6009999999999345,0.1841038496087359,0.021165695205824966
1.8009999999999124,0.23036443965742576,0.027299311864858775
2.0009999999998906,0.27862570370694223,0.03557852241480044
2.2009999999998686,0.3315113446250426,0.042717240918964394
2.4009999999998466,0.38581944910396876,0.0469864514499792
2.6009999999998246,0.44557853833279065,0.049303042615278674
2.8009999999998025,0.5077954968418563,0.04847275017240841
3.0009999999997805,0.5611004008338248,0.044750065308485854
3.2009999999997585,0.6041323676722021,0.032903918601219447
3.4009999999997365,0.6516650327851101,0.015097915373579181
3.6009999999997144,0.6868757083527601,-0.02228111766004168
3.8009999999996924,0.7291809707625474,-0.0657274866073249
4.000999999999671,0.7541705907532267,-0.10937625787211369
4.200999999999738,0.7897427326792222,-0.15718451297879107
4.400999999999804,0.8222878526281858,-0.20440433280704454
4.600999999999871,0.8442184539609143,-0.256562955068547
4.800999999999938,0.8670045313811028,-0.3093514271758714
5.000000000000004,0.9013482668128173,-0.3576731082955105
5.200000000000071,0.9247207893693654,-0.4028640366191205
5.400000000000138,0.9765897719294938,-0.4474902070418842
5.600000000000205,1.0021707233119002,-0.5023448346298466
5.800000000000272,1.0238643586143916,-0.5553304118390548
6.000000000000338,1.0388250717030556,-0.6122201971624478
6.200000000000405,1.057074563324926,-0.6771208464911896
6.400000000000472,1.0866219052145596,-0.7484250099130965
6.600000000000539,1.1014103231530055,-0.8187387079088718
6.800000000000606,1.095914309179881,-0.8759204754611738
7.000000000000672,1.0860904465187817,-0.9407355378711154
7.200000000000739,1.0711949446415425,-1.0085396875639985
7.400000000000806,1.0464391279995422,-1.0588463381701412
7.600000000000873,1.016099118148976,-1.09503792702318
7.8000000000009395,0.9798754101721706,-1.132850400244767
8.000000000001005,0.9348442509534339,-1.171459411437479
8.200000000000895,0.8834371829553257,-1.2086690923256838
8.400000000000784,0.8220893750753472,-1.2417330990554716
8.600000000000673,0.7459933716220161,-1.2736538565843203
8.800000000000562,0.6662286065478122,-1.3075884107870612
9.000000000000451,0.5909802057748954,-1.3478199981007994
9.20000000000034,0.5160551203726692,-1.381912956767971
9.40000000000023,0.43988631275392476,-1.4040703926568443
9.600000000000119,0.37334174445056983,-1.4190643667682938
9.800000000000008,0.3156790593558607,-1.4141409176329032
10.000999999999896,0.25230405498263275,-1.4249519435484688
10.200999999999786,0.18356887534081076,-1.43699548956425
10.400999999999675,0.11556187888523488,-1.4524628480220456
10.600999999999564,0.051628154024344494,-1.4787651166041509
10.800999999999453,-0.015619773972392217,-1.5163608096929793
11.000999999999342,-0.08024824869000156,-1.5382155013902996
11.200999999999231,-0.13369276263239843,-1.570291623409837
11.40099999999912,-0.18319006068571844,-1.6147397821903762
11.60099999999901,-0.23492385943919653,-1.6515252063127894
11.800999999998899,-0.2903120031137695,-1.6861702598436674
12.000999999998788,-0.35162131724091195,-1.7104012317304633
12.200999999998677,-0.4151511066143141,-1.7277358590065761
12.400999999998566,-0.475450211790013,-1.7290225618960198
12.600999999998455,-0.5320541344984151,-1.721103336052989
12.800999999998345,-0.5751770201253701,-1.7103441916908952
13.000999999998234,-0.6032052319029981,-1.6887829708465412
13.200999999998123,-0.64999098168204,-1.6528472348487349
13.400999999998012,-0.7023637550596574,-1.6048172580800542
13.600999999997901,-0.7520977414197946,-1.560048077761499
13.80099999999779,-0.7994765438505292,-1.516447858319357
14.00099999999768,-0.8359941863517331,-1.4594931665052282
14.200999999997569,-0.8614811168613697,-1.4036407219305629
14.400999999997458,-0.8951104432019352,-1.3433356068375806
14.600999999997347,-0.9217964161251996,-1.281550420350617
14.800999999997236,-0.9502247297215759,-1.21286013321475
15.000999999997125,-0.9799498126284911,-1.1403445557490877
15.200999999997014,-1.0361736847154095,-1.0699439989184485
15.400999999996904,-1.0895696042836185,-0.9976135038220818
15.600999999996793,-1.1389502461422414,-0.9234176281666522
15.800999999996682,-1.1911872456604944,-0.8560304760449088
16.000999999996573,-1.2477428699691946,-0.7968753373667133
16.200999999996817,-1.299131906485421,-0.7453190926392238
16.40099999999706,-1.339141905797895,-0.6986440951961758
16.600999999997306,-1.362838694349129,-0.6466809927196345
16.80099999999755,-1.4003111915474376,-0.5917264668723443
17.000999999997795,-1.449819723797744,-0.5388220183375695
17.20099999999804,-1.4983662774996982,-0.47492440838571615
17.400999999998284,-1.5337488443004648,-0.408613756615412
17.60099999999853,-1.559342731927846,-0.33879027315320825
17.800999999998773,-1.593305077277974,-0.26359258872011704
18.000999999999017,-1.6351578969547305,-0.19602809187191902
18.20099999999926,-1.6688532894627897,-0.1317093756854154
18.400999999999506,-1.701242183142606,-0.057698356717927154
18.60099999999975,-1.7300872410677501,0.017749027635046592
18.799999999999994,-1.751728745088774,0.0826742470626903
19.000000000000238,-1.763094309363631,0.13865320599067063
19.200000000000482,-1.763018895330856,0.19633240094569857
19.400000000000727,-1.7585018300095365,0.2713669408669536
19.60000000000097,-1.7641635410929573,0.3514903742766159
19.800000000001216,-1.7733662128567662,0.42664505551353843
20.00000000000146,-1.7704104664692426,0.49243254312638396
