Time (s),X (m),Y (m)
0.001,0.00048696676677933824,-0.0009960320817112695
0.20000000000000015,0.0019023775686797032,-0.001837308977149732
0.4000000000000003,0.011505924473725183,-0.005455047347319316
0.6000000000000004,0.027605417360567347,-0.0017460689922124287
0.8000000000000006,0.05456235771632522,-0.0039803869882071505
1.0000000000000007,0.09832152628789517,-0.010022668558685341
1.2009999999999785,0.14306920283862454,-0.02837516520152397
1.4009999999999565,0.19494226588891525,-0.053530602896240356
1.6009999999999345,0.2330616147951728,-0.09207086797609847
1.8009999999999124,0.2545755800721808,-0.13985066111794425
2.0009999999998906,0.23660319992609316,-0.18678974491082878
2.2009999999998686,0.18198477580696953,-0.24431016160562705
2.4009999999998466,0.1234242452697557,-0.29431220044352835
2.6009999999998246,0.07021159357250562,-0.3329395218771086
2.8009999999998025,0.019724685708191594,-0.3713285834928302
3.0009999999997805,-0.04350533400247436,-0.41634035522445406
3.2009999999997585,-0.10833906142384093,-0.4459232652988969
3.4009999999997365,-0.1824929859104388,-0.45143943662060004
3.6009999999997144,-0.2525285603143566,-0.4428101491274102
3.8009999999996924,-0.3164046921158799,-0.39471605454654807
4.000999999999671,-0.3799446865961062,-0.3284328762982982
4.200999999999738,-0.4361353946966687,-0.2609226515360171
4.400999999999804,-0.4865815550142747,-0.18820740109041828
4.600999999999871,-0.5216356703043885,-0.11369031515627732
4.800999999999938,-0.5380139510558433,-0.0399137023939342
5.000000000000004,-0.5292643969674505,0.02856943128792131
5.200000000000071,-0.5066607617594248,0.09261984046397173
5.400000000000138,-0.47412397400228873,0.15512209813245426
5.600000000000205,-0.4280259400428226,0.19983559715825402
5.800000000000272,-0.3748141083394333,0.20881222606375804
6.000000000000338,-0.3123996090756551,0.1897610993535766
6.200000000000405,-0.2523215421064915,0.15093710619512005
6.400000000000472,-0.2005859072032857,0.10685125803877163
6.600000000000539,-0.15326754189798059,0.05562733130230875
6.800000000000606,-0.13282534523985526,-0.008821578233289265
7.000000000000672,-0.13000656118938173,-0.0784422760419349
7.200000000000739,-0.15471547764624738,-0.14226916320117436
7.400000000000806,-0.1989097780764342,-0.20464704633683933
7.600000000000873,-0.25413898597472795,-0.2548460872097502
7.8000000000009395,-0.3166056309458468,-0.2891444324871941
8.000000000001005,-0.3861088870514517,-0.30037665411975484
8.200000000000895,-0.46394443348946973,-0.3109812272773547
8.400000000000784,-0.5435998603633504,-0.28053602394566796
8.600000000000673,-0.6172836464887475,-0.2252689888786692
8.800000000000562,-0.6837601772133699,-0.1624780873658232
9.000000000000451,-0.7518838176013641,-0.09932429166582973
9.20000000000034,-0.8249039383705946,-0.046870117548109325
9.40000000000023,-0.8932551675089473,0.016159046594732294
9.600000000000119,-0.9487908143553062,0.08712748710061657
9.800000000000008,-0.9865223428193727,0.16453517641905605
10.000999999999896,-0.9980236523372369,0.2510047326402351
10.200999999999786,-0.9815984014821337,0.3415186615399192
10.400999999999675,-0.9424633859306116,0.4212381192538721
10.600999999999564,-0.901897803030056,0.4945855244335262
10.800999999999453,-0.8595503552863565,0.5705752796148407
11.000999999999342,-0.806723781802609,0.6284962903276019
11.200999999999231,-0.7370778387847972,0.6669463336372008
11.40099999999912,-0.6576712027443447,0.6756651285796668
11.60099999999901,-0.5824874882565274,0.6325603365806505
11.800999999998899,-0.5105263300148294,0.5776651913787003
12.000999999998788,-0.4350662470523847,0.5219199436894246
12.200999999998677,-0.3596223365889568,0.4613098051238479
12.400999999998566,-0.28292760355030444,0.4008409478100424
12.600999999998455,-0.2088742067283102,0.33210859840543805
12.800999999998345,-0.15256162598011716,0.26582292637474175
13.000999999998234,-0.1288414495731857,0.1937445112830684
13.200999999998123,-0.1383808564426466,0.1222318610732595
13.400999999998012,-0.16846752148977145,0.045368594644370784
13.600999999997901,-0.2120717503244934,-0.025062945957141904
13.80099999999779,-0.2695790125917246,-0.07587717700661785
14.00099999999768,-0.3384706126803066,-0.07940453547696925
14.200999999997569,-0.41945843261732507,-0.08040160824029258
14.400999999997458,-0.48893736951747513,-0.062318614261391986
14.600999999997347,-0.5376462505702713,-0.02922393512293597
14.800999999997236,-0.5515836401382389,0.015393081370561112
15.000999999997125,-0.5319641748255803,0.07208980474476995
15.200999999997014,-0.48819201265592493,0.13699782363500132
15.400999999996904,-0.4359484341243948,0.2027982063470371
15.600999999996793,-0.37709468344690933,0.25798049043015736
15.800999999996682,-0.31391022259074763,0.31133175321823164
16.000999999996573,-0.24393166076266973,0.34046425461475793
16.200999999996817,-0.1693040547629136,0.3419839345930427
16.40099999999706,-0.10813911542538067,0.30237823736147823
16.600999999997306,-0.05518152433985731,0.24822859994850416
16.80099999999755,-0.0018346808821587644,0.19406205930472725
17.000999999997795,0.04165983349229762,0.13081301977867688
17.20099999999804,0.066567090422671,0.0634790000540283
17.400999999998284,0.06077277563543951,-0.007191964642835737
17.60099999999853,0.016418350603544737,-0.0837093750714244
17.800999999998773,-0.03282934394074312,-0.16232634980298088
18.000999999999017,-0.08572356545004646,-0.23928028322841768
18.20099999999926,-0.12676846134948871,-0.3150714138941831
18.400999999999506,-0.1645102393758513,-0.39474716961605366
18.60099999999975,-0.21639847865218922,-0.4558597913496469
18.799999999999994,-0.28085772341208354,-0.49247311110176745
19.000000000000238,-0.35663045994293097,-0.5216412892152976
19.200000000000482,-0.4431637179434385,-0.554629751512002
19.400000000000727,-0.5343064574976122,-0.5638126298964444
19.60000000000097,-0.628598115565474,-0.5687423558274936
19.800000000001216,-0.7222622119069753,-0.5605682111795877
20.00000000000146,-0.8192881065975955,-0.5516057207517989
