Time (s),X (m),Y (m)
0.001,-0.0005090653149319316,-0.0007291460897812452
0.20000000000000015,-0.0035319223835405407,-0.004483464670407832
0.4000000000000003,-0.0007722926441374231,-0.0036914694369154654
0.6000000000000004,0.0034877752962109206,3.528807916750235e-05
0.8000000000000006,0.0011581434929754293,-0.008459776501658868
1.0000000000000007,0.0051204415159837365,-0.010848221914769121
1.2009999999999785,0.00957964368755187,-0.009418795811573661
1.4009999999999565,0.0152736949541672,-0.007330372960044884
1.6009999999999345,0.01992763721414168,-0.005884097169507298
1.8009999999999124,0.024714995508465377,-0.003960045975477018
2.0009999999998906,0.02954441346260437,-0.0020757749707542524
2.2009999999998686,0.03511231350531607,0.0038050852231368447
2.4009999999998466,0.042382078574958924,0.009600028699466622
2.6009999999998246,0.04790109431119049,0.012978093165840905
2.8009999999998025,0.053391382746957136,0.011555975885130052
3.0009999999997805,0.05933559183252808,0.017521521677271057
3.2009999999997585,0.06468399025014009,0.021679400765942262
3.4009999999997365,0.06975647876695447,0.020931086043736967
3.6009999999997144,0.07533653810053506,0.023304522306735305
3.8009999999996924,0.07933337111059094,0.02799798065037517
4.000999999999671,0.08246352712826543,0.03243199376689078
4.200999999999738,0.08652210129255154,0.03496535843539661
4.400999999999804,0.08985557226082673,0.03922711541523827
4.600999999999871,0.09366303936471823,0.04021478371133029
4.800999999999938,0.09658975714374606,0.042661481048580516
5.000000000000004,0.0975208253168803,0.04937070086592062
5.200000000000071,0.09927498054566022,0.05462810490127577
5.400000000000138,0.10115213384340761,0.05763144049913964
5.600000000000205,0.10348594636729731,0.06132704067938863
5.800000000000272,0.10417213481131375,0.06701549131640187
6.000000000000338,0.10610313492424368,0.07087355925031097
6.200000000000405,0.1071542419902181,0.07656152086005272
6.400000000000472,0.11029194893279337,0.0782920185481609
6.600000000000539,0.11189632786586255,0.08154621250465126
6.800000000000606,0.11428211801320941,0.0857225376497105
7.000000000000672,0.11432716753381533,0.08957382575745848
7.200000000000739,0.11627479800942887,0.09223767814001839
7.400000000000806,0.1174299264308387,0.094624296775365
7.600000000000873,0.1204595850040255,0.09701414617666909
7.8000000000009395,0.12186980840446257,0.10068559380896071
8.000000000001005,0.12287982784172027,0.10390680109410216
8.200000000000895,0.12615671397246758,0.10546259636138564
8.400000000000784,0.12915313455495234,0.10761657756675572
8.600000000000673,0.13081568120233525,0.11008238894979107
8.800000000000562,0.13331968789837903,0.1132528428883613
9.000000000000451,0.13276379610075964,0.11906814587281972
9.20000000000034,0.13488482846122965,0.12295283940418517
9.40000000000023,0.13623566250251082,0.12671138550792982
9.600000000000119,0.13759703537198187,0.13153628364151745
9.800000000000008,0.1389870823821963,0.13685101747928263
10.000999999999896,0.1387848376873974,0.1439593022860848
10.200999999999786,0.13955486378853577,0.14853759044960016
10.400999999999675,0.1407070916748166,0.15330062413507703
10.600999999999564,0.14102448583718427,0.15856879374797486
10.800999999999453,0.14314767805923936,0.16165083019513027
11.000999999999342,0.1448969138547606,0.16694532987299768
11.200999999999231,0.14465699552001335,0.17375464661986498
11.40099999999912,0.1445462790828491,0.18006263834027317
11.60099999999901,0.143731419888944,0.18682135116638218
11.800999999998899,0.14327405823208175,0.19192732495175643
12.000999999998788,0.1421612061289113,0.19815284942187292
12.200999999998677,0.14049521367627457,0.20549094085744765
12.400999999998566,0.1385330766118646,0.21216609920679144
12.600999999998455,0.13775317565666426,0.21909632506424248
12.800999999998345,0.13771805651446214,0.2245307976045908
13.000999999998234,0.13741306443403384,0.2299586143052712
13.200999999998123,0.1349573760261207,0.23638816050356612
13.400999999998012,0.12978800621456305,0.24256451355594727
13.600999999997901,0.12596706378520728,0.24889081052905737
13.80099999999779,0.12364217607111264,0.2548346697910854
14.00099999999768,0.11770421876784225,0.2600452816502377
14.200999999997569,0.11298858684443548,0.26510983288448564
14.400999999997458,0.11111605593110464,0.2699817498092103
14.600999999997347,0.10669855387478556,0.2740242835954718
14.800999999997236,0.10286750365702714,0.2781192866630103
15.000999999997125,0.09835490033782215,0.2818553505520523
15.200999999997014,0.09632526096302844,0.28574525896133224
15.400999999996904,0.09501358707188429,0.2880156015098185
15.600999999996793,0.09381688179976197,0.29001174550028064
15.800999999996682,0.08880698109008656,0.29084493085459145
16.000999999996573,0.08736958593426263,0.29295851127386663
16.200999999996817,0.08464419086004511,0.29487624626873893
16.40099999999706,0.08211292728343601,0.2970500720903749
16.600999999997306,0.08045310259405308,0.29901968271952395
16.80099999999755,0.0769111308846193,0.30130633007437924
17.000999999997795,0.0745796993671146,0.3036682691373135
17.20099999999804,0.0687969915484664,0.30479278238914564
17.400999999998284,0.06552525716764848,0.3064682594898469
17.60099999999853,0.06407430723486211,0.30989837463646724
17.800999999998773,0.06117813800172213,0.3123427505452195
18.000999999999017,0.05808412567487802,0.31435015825644363
18.20099999999926,0.05452468725799975,0.3167925755719029
18.400999999999506,0.04923733533874065,0.31728829896255817
18.60099999999975,0.04340841977516225,0.31870723916868987
18.799999999999994,0.039116974942042686,0.3196839732551013
19.000000000000238,0.033860362125048615,0.3213228916241262
19.200000000000482,0.03140611038064574,0.32366760291151087
19.400000000000727,0.02840523670691634,0.32494398383600787
19.60000000000097,0.023289223761650046,0.32577821232733334
19.800000000001216,0.018016827896597674,0.3269034242101514
20.00000000000146,0.011603432066678222,0.3263561862011928
