Time (s),X (m),Y (m)
0.001,-0.0007759513068619564,0.00026688599193002506
0.20000000000000015,0.004264640316095775,-0.0010621426309702156
0.4000000000000003,0.005289869071004746,-0.002855545217956351
0.6000000000000004,0.007058557359127202,-0.004697433790630178
0.8000000000000006,0.01986120928870655,-0.0068580935272063845
1.0000000000000007,0.03327310645247464,-0.014398857893297567
1.2009999999999785,0.04351952082902447,-0.020424102263074565
1.4009999999999565,0.052189318724197006,-0.018035023258711466
1.6009999999999345,0.06610068110714294,-0.017298970667564015
1.8009999999999124,0.07930338232343262,-0.01929427598058756
2.0009999999998906,0.10377253320805695,-0.031117563057882797
2.2009999999998686,0.11853724932275762,-0.03847416874719485
2.4009999999998466,0.13156871677191184,-0.043365636528107876
2.6009999999998246,0.1484505616886213,-0.05122638262705868
2.8009999999998025,0.16570516692144005,-0.05989696083531343
3.0009999999997805,0.17456238541351307,-0.06240116387793768
3.2009999999997585,0.1900310240245479,-0.07054470470639086
3.4009999999997365,0.2076241158964501,-0.0832429013444638
3.6009999999997144,0.22473180672208204,-0.0952132914190311
3.8009999999996924,0.24209065836517266,-0.10163178235901708
4.000999999999671,0.25289504541990465,-0.1091116023570924
4.200999999999738,0.26440234513530836,-0.1094397174164502
4.400999999999804,0.2785575258097207,-0.11858017448433113
4.600999999999871,0.2962982431091349,-0.12546781689843192
4.800999999999938,0.3222756219103482,-0.14462908058894006
5.000000000000004,0.35040931476850934,-0.16246924154950745
5.200000000000071,0.375313846355587,-0.17879533975892636
5.400000000000138,0.3964909855598466,-0.19791647696080678
5.600000000000205,0.40974647696277,-0.21788693646219115
5.800000000000272,0.4181513690818306,-0.2314298764472575
6.000000000000338,0.4249179920170194,-0.255627834853511
6.200000000000405,0.42912715150819297,-0.29281810111057255
6.400000000000472,0.4331388037441772,-0.32306252388762113
6.600000000000539,0.436395765816307,-0.35021271262088216
6.800000000000606,0.43431983285991455,-0.37452359718035083
7.000000000000672,0.43592080072703987,-0.39479383401115503
7.200000000000739,0.43119789141894377,-0.42613370290715047
7.400000000000806,0.42512251350746955,-0.45002086498136734
7.600000000000873,0.4231895779637129,-0.46549805873588657
7.8000000000009395,0.4144846988312012,-0.48789205360178156
8.000000000001005,0.40670389506607807,-0.5114021377695771
8.200000000000895,0.3989913000137776,-0.5286832536669344
8.400000000000784,0.3906173061379299,-0.5533532520877462
8.600000000000673,0.3892582750964397,-0.5753678525707159
8.800000000000562,0.3804192148192078,-0.593817664283543
9.000000000000451,0.36873262957440517,-0.6172336808011888
9.20000000000034,0.346800850288176,-0.644134604922625
9.40000000000023,0.3330537116111799,-0.6680111225068238
9.600000000000119,0.3153473762698318,-0.6891831903236452
9.800000000000008,0.3024502293236061,-0.712750907310353
10.000999999999896,0.29040803729798037,-0.7385904818194082
10.200999999999786,0.27603673273930984,-0.7658635899050462
10.400999999999675,0.24749451354677882,-0.7906798581600732
10.600999999999564,0.2276322354587632,-0.812851477892983
10.800999999999453,0.21127763949333142,-0.828913952091959
11.000999999999342,0.18836590644613466,-0.8417857276483587
11.200999999999231,0.16458447908655668,-0.8495345869556563
11.40099999999912,0.15531800279715713,-0.8557710929672546
11.60099999999901,0.13441689516229124,-0.865885828524589
11.800999999998899,0.10651559029025953,-0.8693982413868603
12.000999999998788,0.08217095762160137,-0.8734798319591246
12.200999999998677,0.05285468101649787,-0.8748967762271139
12.400999999998566,0.020029973321120907,-0.8689894800412278
12.600999999998455,-0.012300607381608314,-0.859117104105589
12.800999999998345,-0.0424805480204266,-0.8503270602165077
13.000999999998234,-0.069088571469049,-0.8385442449130994
13.200999999998123,-0.0950371335247111,-0.8273903999160056
13.400999999998012,-0.1259754400791834,-0.8081494865049635
13.600999999997901,-0.14855888407845483,-0.7968453831435444
13.80099999999779,-0.1796024382084821,-0.7885849461531269
14.00099999999768,-0.20308946472135536,-0.7863373261973011
14.200999999997569,-0.22356417137275147,-0.7813718652285297
14.400999999997458,-0.2539348012218322,-0.7692811983446239
14.600999999997347,-0.2744271572390041,-0.762847662783558
14.800999999997236,-0.2970438148538993,-0.7582721486489403
15.000999999997125,-0.3296211952193475,-0.7447019688949971
15.200999999997014,-0.35787580577333183,-0.7373763307693195
15.400999999996904,-0.391084541671882,-0.721262354443984
15.600999999996793,-0.41769949211472934,-0.7083184341015797
15.800999999996682,-0.4462275269639926,-0.6960148863925373
16.000999999996573,-0.47147195390021746,-0.6874605407686396
16.200999999996817,-0.49417654307469705,-0.6770319801956503
16.40099999999706,-0.5243743759719053,-0.6641312695265421
16.600999999997306,-0.5608586297205421,-0.6530670865576206
16.80099999999755,-0.5952284990518254,-0.6375274616852016
17.000999999997795,-0.6160327501822496,-0.6311401991051472
17.20099999999804,-0.6408201267933972,-0.6202973740270382
17.400999999998284,-0.6635390566136055,-0.6081658546103498
17.60099999999853,-0.6862010615069982,-0.5942398172616621
17.800999999998773,-0.7098664066377163,-0.5797589564952682
18.000999999999017,-0.7391934895257638,-0.5630135199746178
18.20099999999926,-0.7650537053923127,-0.5437170862490793
18.400999999999506,-0.7905873961855912,-0.5183932367062416
18.60099999999975,-0.8100643200596527,-0.5076143110557444
18.799999999999994,-0.8279025619140652,-0.5009701749328854
19.000000000000238,-0.8491066420951252,-0.4903294325916068
19.200000000000482,-0.8693121155620689,-0.47133845080207043
19.400000000000727,-0.8895952272979866,-0.4516074102642814
19.60000000000097,-0.9028212743430903,-0.44136674905703127
19.800000000001216,-0.9098459383909875,-0.4082104280854237
20.00000000000146,-0.9155696317522769,-0.3701061103207467
