Time (s),X (m),Y (m)
0.001,-0.00021570977506068912,0.0009345558501746678
0.20000000000000015,0.0025946187449859526,0.0002689218948641118
0.4000000000000003,0.007468832185921257,0.008112071827440467
0.6000000000000004,0.023740161532955842,0.01333570677196032
0.8000000000000006,0.05176381995855665,0.009219738218884761
1.0000000000000007,0.08515212817127399,-0.014770651118683732
1.2009999999999785,0.10905140395572158,-0.05258282280007015
1.4009999999999565,0.12020484159740714,-0.09786853751938318
1.6009999999999345,0.11497338764917497,-0.14809748407805337
1.8009999999999124,0.09280908791340528,-0.18754202974004514
2.0009999999998906,0.06951489272869547,-0.2275909475782103
2.2009999999998686,0.04369871404322131,-0.26810937168363036
2.4009999999998466,0.0002197005094843768,-0.3070095516873445
2.6009999999998246,-0.03982509502747105,-0.34248620399864477
2.8009999999998025,-0.06798951916622933,-0.3821660385237265
3.0009999999997805,-0.09967519580113766,-0.4314819793852986
3.2009999999997585,-0.15444179104478187,-0.4851078346303949
3.4009999999997365,-0.2150534447312421,-0.5353074002832019
3.6009999999997144,-0.2758303626296398,-0.5797878636886524
3.8009999999996924,-0.3363353133663145,-0.6297062913094601
4.000999999999671,-0.39438023067148426,-0.6805279338763428
4.200999999999738,-0.4449555438780301,-0.7329612414162907
4.400999999999804,-0.5009287710716561,-0.7760861890866428
4.600999999999871,-0.5619851287621699,-0.7955633833480973
4.800999999999938,-0.6266023570657174,-0.8004354509363654
5.000000000000004,-0.686892759823253,-0.8064501876939077
5.200000000000071,-0.7426723934921331,-0.7717711358890411
5.400000000000138,-0.7936473255680883,-0.733532407388539
5.600000000000205,-0.8264643077052046,-0.6885961314119783
5.800000000000272,-0.8246456305536461,-0.6384917807833614
6.000000000000338,-0.8032773155069426,-0.5857620852479998
6.200000000000405,-0.7726813941944328,-0.5266109890053907
6.400000000000472,-0.725473685128688,-0.4722722462521364
6.600000000000539,-0.6618508147761252,-0.43935195891478074
6.800000000000606,-0.5878551301521003,-0.43829164026000983
7.000000000000672,-0.5191466499127809,-0.44705617749952625
7.200000000000739,-0.4479359701381437,-0.455214684370768
7.400000000000806,-0.37914273062833903,-0.4819977999343439
7.600000000000873,-0.3146677585087789,-0.5192498712030776
7.8000000000009395,-0.2500675540913405,-0.5726970568923623
8.000000000001005,-0.19025471520608614,-0.6220644340091502
8.200000000000895,-0.14298410851935822,-0.6741646250851367
8.400000000000784,-0.13613993739173036,-0.7303897079099436
8.600000000000673,-0.17691965243075725,-0.792659833178038
8.800000000000562,-0.22233010641005851,-0.8577121084341689
9.000000000000451,-0.27398603735613064,-0.9224948449577975
9.20000000000034,-0.32599125051014227,-0.9799836991665677
9.40000000000023,-0.38057515753348303,-1.0172060942457946
9.600000000000119,-0.4365022058963916,-1.0443269822465764
9.800000000000008,-0.4887712528590555,-1.0340580876780734
10.000999999999896,-0.536365437392832,-0.9886592965496341
10.200999999999786,-0.5799564645349194,-0.9390318456090728
10.400999999999675,-0.5953187863965407,-0.8844296659659898
10.600999999999564,-0.5885719650472884,-0.8235531988840732
10.800999999999453,-0.5676173207360111,-0.7621922285376563
11.000999999999342,-0.5231294564654373,-0.7086453164798978
11.200999999999231,-0.46929765612382396,-0.6646247346965779
11.40099999999912,-0.39921807726408964,-0.6311867414705236
11.60099999999901,-0.33500985203483247,-0.5934141597756679
11.800999999998899,-0.2741542500047246,-0.5624239444380053
12.000999999998788,-0.21358699597302727,-0.5563652087619517
12.200999999998677,-0.1506475451473056,-0.5876687863655746
12.400999999998566,-0.09346659510226034,-0.6374367571196577
12.600999999998455,-0.03835729496598782,-0.7030344119543732
12.800999999998345,0.01338235979235926,-0.7658045042187307
13.000999999998234,0.059989717519017174,-0.8390256181691467
13.200999999998123,0.10017513266413713,-0.9189533818745041
13.400999999998012,0.13395011595362397,-1.0004692030370466
13.600999999997901,0.16602711384738555,-1.084209727632733
13.80099999999779,0.201808417670144,-1.1620258749148984
14.00099999999768,0.22901394718458778,-1.2346691222791835
14.200999999997569,0.25036921038253834,-1.3100361474624627
14.400999999997458,0.25417488322472703,-1.3896794077605568
14.600999999997347,0.22410532228329386,-1.4631759745184927
14.800999999997236,0.17341951674141065,-1.5222022895164848
15.000999999997125,0.11259298088581424,-1.569215366234615
15.200999999997014,0.04865280888840473,-1.590040724725667
15.400999999996904,-0.018205339804202678,-1.5746622936860797
15.600999999996793,-0.08342373676709117,-1.5289693053984408
15.800999999996682,-0.13451914712396418,-1.463226346362795
16.000999999996573,-0.1699089855792728,-1.3913986727290757
16.200999999996817,-0.1722881562233655,-1.3225149339252482
16.40099999999706,-0.14508369791976444,-1.2556934953281387
16.600999999997306,-0.09966827716520411,-1.1957913494317773
16.80099999999755,-0.05157666952244319,-1.1394473338256608
17.000999999997795,-0.005098484956736773,-1.0866398805705317
17.20099999999804,0.05189843276754396,-1.0483077659110875
17.400999999998284,0.1094373172020947,-1.0296549974530216
17.60099999999853,0.17246180294594096,-1.0471697291748974
17.800999999998773,0.23767555530478654,-1.0925118111098469
18.000999999999017,0.2951316181674722,-1.1397740854780536
18.20099999999926,0.35439546418502366,-1.1782845137602185
18.400999999999506,0.4131018919243637,-1.2183624616134667
18.60099999999975,0.4493407448235887,-1.275381016865927
18.799999999999994,0.4608024632629235,-1.3423140929860862
19.000000000000238,0.4616189422253127,-1.411679579660354
19.200000000000482,0.44944742962957146,-1.4851147892684715
19.400000000000727,0.4162092448145919,-1.5620471121734363
19.60000000000097,0.37950638030642586,-1.638964050433308
19.800000000001216,0.3315485021469747,-1.708231456330149
20.00000000000146,0.2817659649141273,-1.77503716441749
