Time (s),X (m),Y (m)
0.001,-4.680521708071185e-05,-0.0009960320817112695
0.20000000000000015,0.002063852782064164,0.001859180812063741
0.4000000000000003,0.010251533125083886,0.006988594536894143
0.6000000000000004,0.030486108507834397,0.0064166947886943
0.8000000000000006,0.05291822621984999,-0.0009225488100960875
1.0000000000000007,0.07764086388028585,-0.01378260848962132
1.2009999999999785,0.12691853997787259,-0.014027657034554147
1.4009999999999565,0.1887235249436213,-0.007535689725594097
1.6009999999999345,0.24635880684996958,-0.005610909691144011
1.8009999999999124,0.2853910316178177,-0.009716073617491605
2.0009999999998906,0.3115473250349431,-0.028241964597689944
2.2009999999998686,0.32311275064166967,-0.05382367983171634
2.4009999999998466,0.3198633626611987,-0.08553229704645231
2.6009999999998246,0.3128706247015119,-0.1247130398064961
2.8009999999998025,0.2902664633092829,-0.1428593367252508
3.0009999999997805,0.25279833311765953,-0.1592554863665389
3.2009999999997585,0.21025568910938916,-0.16324401827779583
3.4009999999997365,0.16525073463628254,-0.17268592726452578
3.6009999999997144,0.11321255770406972,-0.17654458114282007
3.8009999999996924,0.051977813690222606,-0.17661166648073715
4.000999999999671,0.007457960149476145,-0.1652953880127314
4.200999999999738,-0.02314252561810046,-0.12626024915433642
4.400999999999804,-0.05047228824751859,-0.07493423079687869
4.600999999999871,-0.07207105049846664,-0.01460355858709434
4.800999999999938,-0.08140938453427565,0.04344828922220169
5.000000000000004,-0.08361290292099523,0.10820799921189492
5.200000000000071,-0.078378368559862,0.17361004978277972
5.400000000000138,-0.06304056386341769,0.2422959939731743
5.600000000000205,-0.03326006867868759,0.3027940825708353
5.800000000000272,0.012923492705929417,0.34966127269968844
6.000000000000338,0.07230601495184628,0.3854517988973263
6.200000000000405,0.13832894863489092,0.4113082443683177
6.400000000000472,0.21611042132541586,0.4446287106347519
6.600000000000539,0.29556295336605093,0.48517011828834455
6.800000000000606,0.3766836976785939,0.5187412857906867
7.000000000000672,0.4433157667177108,0.540751186513735
7.200000000000739,0.49932310088278437,0.5408546415986334
7.400000000000806,0.5414628007308303,0.5291839306184746
7.600000000000873,0.588140684585115,0.5058175877620745
7.8000000000009395,0.6354031756125261,0.4767509358223314
8.000000000001005,0.6700185140965204,0.43466570279464795
8.200000000000895,0.7062497792132324,0.3849235919929946
8.400000000000784,0.7351586918415752,0.32393758058824695
8.600000000000673,0.7623886663940923,0.2604138858446131
8.800000000000562,0.7997846238820108,0.19304575476972935
9.000000000000451,0.8365234566955272,0.11926196327956792
9.20000000000034,0.8643164327684835,0.05354957083532265
9.40000000000023,0.8697409454044893,0.013076263550341223
9.600000000000119,0.8551328648954504,-0.005604721410090029
9.800000000000008,0.815482566713384,-0.025062536522352276
10.000999999999896,0.7638107144903082,-0.04356309799730744
10.200999999999786,0.7046551606632101,-0.08453789067967608
10.400999999999675,0.6427780581333152,-0.12361227912866644
10.600999999999564,0.5713567987648722,-0.16381952763889812
10.800999999999453,0.5019166117067312,-0.19450169129671355
11.000999999999342,0.4197662748103538,-0.22635709092567485
11.200999999999231,0.3373695551366639,-0.24115919319271678
11.40099999999912,0.2585730256347519,-0.2399266116909859
11.60099999999901,0.1879129272112662,-0.2318773451825492
11.800999999998899,0.1319582580665952,-0.2098243175012583
12.000999999998788,0.10276037679893617,-0.17035744308955428
12.200999999998677,0.06809407793364369,-0.11403777357960025
12.400999999998566,0.02888934161297196,-0.0513453237874363
12.600999999998455,-0.0028339821947235247,0.017714069452730994
12.800999999998345,-0.023080831820165456,0.08587348408034562
13.000999999998234,-0.039831329296209084,0.16025442859677144
13.200999999998123,-0.053657245757440936,0.2418777238657462
13.400999999998012,-0.050546259008012746,0.3087623489511873
13.600999999997901,-0.023066845261204602,0.35774901373277046
13.80099999999779,0.018841532452200386,0.38623099620490126
14.00099999999768,0.07366104313030244,0.4086936476615675
14.200999999997569,0.13542791118653782,0.4228209038345365
14.400999999997458,0.20118169297819316,0.42917267567849143
14.600999999997347,0.2689542019738762,0.4386447660950653
14.800999999997236,0.330736903816661,0.4417231555767781
15.000999999997125,0.3875816357664552,0.4438197555417007
15.200999999997014,0.43332564387967354,0.433852835984231
15.400999999996904,0.4565847131292473,0.39717000902681093
15.600999999996793,0.46925942410865423,0.34527322966216445
15.800999999996682,0.47860541660732475,0.28847649103679895
16.000999999996573,0.5004975109575753,0.2234859365558147
16.200999999996817,0.5329915969991287,0.15599671467621629
16.40099999999706,0.5616122427975353,0.08996796907416639
16.600999999997306,0.5907701255190577,0.017429963339883604
16.80099999999755,0.6136686705115404,-0.05730955223219109
17.000999999997795,0.6478354183240346,-0.1411379338838735
17.20099999999804,0.6778193703276774,-0.22490004421615828
17.400999999998284,0.6717708349270889,-0.2804643698113464
17.60099999999853,0.6399756016317683,-0.3192356534364675
17.800999999998773,0.5864147487199085,-0.35178633620294386
18.000999999999017,0.5301016004086648,-0.3783364684768229
18.20099999999926,0.48456275727560594,-0.3900834782892803
18.400999999999506,0.43924133736167614,-0.37809899158387106
18.60099999999975,0.3877835732282606,-0.35268553881924924
18.799999999999994,0.3480031569024019,-0.3203001848630519
19.000000000000238,0.30746604786442283,-0.28557955177691785
19.200000000000482,0.2779854631860319,-0.24412219203177685
19.400000000000727,0.26254749018115775,-0.1862179932802523
19.60000000000097,0.2549154843653233,-0.12729957612106577
19.800000000001216,0.2572888845174886,-0.06877228399456825
20.00000000000146,0.26553570583365327,0.008225306329692563
