Time (s),X (m),Y (m)
0.001,0.0011546366250239817,-0.00043579054991000363
0.20000000000000015,-0.0005962390029213544,0.000911015725231645
0.4000000000000003,0.00016736954999241164,0.005583300662409454
0.6000000000000004,0.016819484979549958,0.004600686279885676
0.8000000000000006,0.04240119863103318,0.004354077641740431
1.0000000000000007,0.07422905564032363,-0.001999413297604434
1.2009999999999785,0.10913931605656474,-0.01612887276687151
1.4009999999999565,0.1357785040447415,-0.03388570396112696
1.6009999999999345,0.15044610823231144,-0.053864778001761836
1.8009999999999124,0.14315075149407702,-0.08488309974272433
2.0009999999998906,0.11479094199468265,-0.10134166178838346
2.2009999999998686,0.07781272652089126,-0.09253629839171854
2.4009999999998466,0.04383102661975333,-0.08884302342324821
2.6009999999998246,0.017687787879044833,-0.07664656212208762
2.8009999999998025,0.01208896003641803,-0.04105073222509047
3.0009999999997805,0.02339034159321801,-0.004023298164568647
3.2009999999997585,0.046563158760184936,0.025412297281385922
3.4009999999997365,0.08984514495613065,0.04323255561143342
3.6009999999997144,0.13154514981994508,0.05097461258730455
3.8009999999996924,0.188393815826991,0.03394801453808614
4.000999999999671,0.2426341645142991,0.005966225151130536
4.200999999999738,0.2829403803283007,-0.03856550762191805
4.400999999999804,0.30978360876047856,-0.07544205115926124
4.600999999999871,0.32608945306637466,-0.11894426206521318
4.800999999999938,0.31355699070968207,-0.16738945962271118
5.000000000000004,0.2711554327355936,-0.21192880428938568
5.200000000000071,0.2292547311679382,-0.24531274936136307
5.400000000000138,0.1892589377150942,-0.2500409146971216
5.600000000000205,0.1499798280156283,-0.23061932469829005
5.800000000000272,0.12330461073367771,-0.19130790742601927
6.000000000000338,0.1116078618468282,-0.14785642233675342
6.200000000000405,0.1163298033538892,-0.09897785739215188
6.400000000000472,0.13484015517822845,-0.047353032130815695
6.600000000000539,0.15733583701981357,0.006524350096382093
6.800000000000606,0.20091689745953337,0.06505693047855188
7.000000000000672,0.2521619859215125,0.11004766749256535
7.200000000000739,0.30627641207912226,0.13076196435851115
7.400000000000806,0.3678638606197013,0.13042325848293856
7.600000000000873,0.42135202151693674,0.11304292227766066
7.8000000000009395,0.4490094864156563,0.07326754810594939
8.000000000001005,0.45365741248239105,0.03309435761011061
8.200000000000895,0.4338791937583926,-0.005183020091265184
8.400000000000784,0.39839918146732445,-0.030411124612898948
8.600000000000673,0.3574014067940352,-0.049125670190670774
8.800000000000562,0.3131020009332468,-0.057599189322550044
9.000000000000451,0.27448303120323325,-0.047934672674008784
9.20000000000034,0.2462731928248155,-0.030365105402967715
9.40000000000023,0.23746043339636735,0.007055589615568207
9.600000000000119,0.24008671478459073,0.04815028533994573
9.800000000000008,0.25896075338395136,0.10386581235702906
10.000999999999896,0.27571585712499275,0.16463291020822768
10.200999999999786,0.2908819032444301,0.22808149939552327
10.400999999999675,0.3201956102532079,0.29548968075795823
10.600999999999564,0.3616729020430417,0.34992489010207095
10.800999999999453,0.4044894144227015,0.37910668266543807
11.000999999999342,0.45454301245346873,0.3790908194657121
11.200999999999231,0.5013938242387392,0.3512835424831478
11.40099999999912,0.5210121132315106,0.30054342749687424
11.60099999999901,0.5068581439239664,0.23868579346562221
11.800999999998899,0.4669709390856735,0.1768738195360806
12.000999999998788,0.41091679255424157,0.13677023957262574
12.200999999998677,0.355007266589842,0.131649726352183
12.400999999998566,0.30114118884574165,0.13179737238968606
12.600999999998455,0.25595841913275935,0.1432941045066987
12.800999999998345,0.2275101057848565,0.1686097822265143
13.000999999998234,0.22026603520526167,0.21122506423710694
13.200999999998123,0.22309163398280302,0.25869902552763707
13.400999999998012,0.24071507711145454,0.3069221129046434
13.600999999997901,0.26125387410150985,0.35913289104765794
13.80099999999779,0.29602040922307027,0.3953800983448767
14.00099999999768,0.34704570213165076,0.4036665221251904
14.200999999997569,0.4054782517242768,0.3952722428161147
14.400999999997458,0.4662774968688108,0.37534018046196976
14.600999999997347,0.5256487210646826,0.34490494153314133
14.800999999997236,0.569563185748464,0.303720847832169
15.000999999997125,0.5951868365742456,0.2519575737217217
15.200999999997014,0.5920913115690931,0.19839056541953787
15.400999999996904,0.5535814005625811,0.1420832513281467
15.600999999996793,0.5087516288796616,0.08958228512245975
15.800999999996682,0.46506052263679093,0.052870409968374873
16.000999999996573,0.41854383859666,0.03620692418597468
16.200999999996817,0.36242096615770053,0.039623515033189394
16.40099999999706,0.31664155347581674,0.05897221314337277
16.600999999997306,0.2897839807497565,0.1007632858744752
16.80099999999755,0.2842680610263527,0.15648462306070696
17.000999999997795,0.29008831382474864,0.21254230246143113
17.20099999999804,0.3100931267224364,0.2683403271727015
17.400999999998284,0.34484263748700494,0.3014205671486297
17.60099999999853,0.3908358479423618,0.31233376577476063
17.800999999998773,0.43666335903221715,0.3125116216941909
18.000999999999017,0.48727672362103847,0.3020120985575829
18.20099999999926,0.5366724891277818,0.28672364768494396
18.400999999999506,0.5882490403690189,0.26957340776923944
18.60099999999975,0.6468457599162757,0.22577560667927835
18.799999999999994,0.6918494665040831,0.16556407996433029
19.000000000000238,0.6988016024134758,0.10079782521257089
19.200000000000482,0.6697029076340567,0.03255207543230965
19.400000000000727,0.6381595454525028,-0.021082808509363282
19.60000000000097,0.600782583399504,-0.05246110685753678
19.800000000001216,0.5498926502828053,-0.056615726402813156
20.00000000000146,0.4936375571718375,-0.036581370130577814
