Time (s),X (m),Y (m)
0.001,-0.0007759513068619564,0.00026688599193002506
0.20000000000000015,0.008132886569801186,-0.0019961357997628658
0.4000000000000003,0.007815767101590654,-0.001599376974461768
0.6000000000000004,0.012376421838497194,0.001224647683548223
0.8000000000000006,0.025735918649175692,0.005946397211069109
1.0000000000000007,0.04881704916837539,-0.009235526065835975
1.2009999999999785,0.07509438709543757,-0.011880016318426318
1.4009999999999565,0.10984729067207698,-0.01984037897027988
1.6009999999999345,0.13388855689148285,-0.022307852697997264
1.8009999999999124,0.16079540139626342,-0.03897714864515276
2.0009999999998906,0.182643949229319,-0.06426342607245357
2.2009999999998686,0.18636555684570685,-0.09961131772350457
2.4009999999998466,0.17897060644780927,-0.13526721775531697
2.6009999999998246,0.15871457072259218,-0.1740300113922061
2.8009999999998025,0.14346309782216013,-0.20816380195413406
3.0009999999997805,0.11475976077360613,-0.252719441522667
3.2009999999997585,0.06839415955633783,-0.28277410896899957
3.4009999999997365,0.0243071837768436,-0.2976271346367164
3.6009999999997144,-0.016942958811576272,-0.30136182985547877
3.8009999999996924,-0.05733932853270277,-0.2851783449852552
4.000999999999671,-0.09234425173483359,-0.2557206793590492
4.200999999999738,-0.10575184210954983,-0.21243325840578234
4.400999999999804,-0.08463563280066319,-0.16061696921855276
4.600999999999871,-0.05803668485483754,-0.11373828018358696
4.800999999999938,-0.03186822173520562,-0.07915487747636438
5.000000000000004,-0.00212794091034361,-0.061899971846230854
5.200000000000071,0.027119761123105178,-0.053669648649474815
5.400000000000138,0.06523846681106107,-0.05589127265302009
5.600000000000205,0.08883715667027162,-0.057217579288769374
5.800000000000272,0.11731811218307292,-0.06335154781750837
6.000000000000338,0.15053434124342496,-0.06658520800064872
6.200000000000405,0.18236708550478986,-0.07119945728522516
6.400000000000472,0.21951383011850953,-0.07523768265249668
6.600000000000539,0.2641572995217598,-0.0944952081525315
6.800000000000606,0.3186821406814827,-0.13002650785542635
7.000000000000672,0.36486143104027424,-0.15958414777605032
7.200000000000739,0.3909750840774431,-0.19228791933930117
7.400000000000806,0.3935822390414493,-0.24253570797879376
7.600000000000873,0.375343440656272,-0.29606469742497554
7.8000000000009395,0.35346102813466856,-0.35020534125693514
8.000000000001005,0.3306866129158036,-0.40494631760431904
8.200000000000895,0.30868925324047203,-0.4596009671999639
8.400000000000784,0.2819610820519157,-0.5099206594349144
8.600000000000673,0.24341635810929116,-0.5494515304821675
8.800000000000562,0.20434657828605662,-0.5734938160824092
9.000000000000451,0.163184883985976,-0.5787965613250556
9.20000000000034,0.1109698901806086,-0.567869112467138
9.40000000000023,0.056828478085382064,-0.5530766551196482
9.600000000000119,-0.0021046241257385283,-0.5252774589274134
9.800000000000008,-0.05733877947181309,-0.4896570487005866
10.000999999999896,-0.09437323923388023,-0.44299542532771
10.200999999999786,-0.11179487838421877,-0.390890779796064
10.400999999999675,-0.11086833881278113,-0.3385769115027512
10.600999999999564,-0.09813406221943251,-0.28341574946312903
10.800999999999453,-0.0787312575749222,-0.22867226718452263
11.000999999999342,-0.051876855891771184,-0.1687958490935839
11.200999999999231,-0.0286641214334213,-0.11900499499220349
11.40099999999912,0.012022432424270828,-0.07129533558645723
11.60099999999901,0.05856920529435931,-0.04137568938387755
11.800999999998899,0.11624785085906844,-0.03867493766312795
12.000999999998788,0.1702273000653966,-0.055919162319110316
12.200999999998677,0.22427717239929904,-0.094605784330381
12.400999999998566,0.2648103208301194,-0.1426846865287643
12.600999999998455,0.2875282420016193,-0.1828131776534426
12.800999999998345,0.2874652143638092,-0.23132337763022193
13.000999999998234,0.26541041472786986,-0.2967476879257685
13.200999999998123,0.22943840027033469,-0.3680345259511684
13.400999999998012,0.18533762207517507,-0.43708813420406556
13.600999999997901,0.14156498488886918,-0.498047615708157
13.80099999999779,0.08941101380312755,-0.5302659210424239
14.00099999999768,0.035440228588789785,-0.5349398665359341
14.200999999997569,-0.02282232953643202,-0.522825995376054
14.400999999997458,-0.09168993474640093,-0.4965274210575699
14.600999999997347,-0.1613863680960212,-0.4630414495388796
14.800999999997236,-0.21967354387919844,-0.42321772852453055
15.000999999997125,-0.25825990382161174,-0.3953825795723574
15.200999999997014,-0.2713515138918138,-0.3517689065190143
15.400999999996904,-0.2661792146495813,-0.30096935266483066
15.600999999996793,-0.2475789664055533,-0.24439587879561225
15.800999999996682,-0.21763105967219962,-0.18580767942861798
16.000999999996573,-0.1787601784723491,-0.12432629664661461
16.200999999996817,-0.13196196837416255,-0.07574544659015377
16.40099999999706,-0.07947884497070298,-0.05621600121442577
16.600999999997306,-0.03111061436235687,-0.052108994398981374
16.80099999999755,0.029372769379104383,-0.06404936610295106
17.000999999997795,0.0951129557826342,-0.08161059857379686
17.20099999999804,0.16144306652294582,-0.10576788391439298
17.400999999998284,0.23104319637835638,-0.13821678913026286
17.60099999999853,0.2942409419632899,-0.1767724094381878
17.800999999998773,0.344721832335494,-0.21625598727705017
18.000999999999017,0.36442516567398653,-0.27273032752709175
18.20099999999926,0.3475367773067914,-0.338681404525139
18.400999999999506,0.3191075428757923,-0.4071190992694062
18.60099999999975,0.2785586576663647,-0.4701824956729597
18.799999999999994,0.23917652200945835,-0.5170871385567335
19.000000000000238,0.18649123385477967,-0.5320168499966025
19.200000000000482,0.1301927520585102,-0.524638786481583
19.400000000000727,0.07806295149357523,-0.5178754069361601
19.60000000000097,0.03660865414941597,-0.5004944141177349
19.800000000001216,0.019089402686702412,-0.45300442696505894
20.00000000000146,0.02250794147174588,-0.40326566571128764
