Time (s),X (m),Y (m)
0.001,0.0011890620069237587,-0.00035268032603768894
0.20000000000000015,0.000300205784623428,0.0017047083833904965
0.4000000000000003,0.001803208162982624,0.00028419833462757233
0.6000000000000004,0.0042490657328125144,-0.0021189039848553927
0.8000000000000006,0.011153857027107713,-0.006042517137005397
1.0000000000000007,0.020139144659487317,-0.00833043591151734
1.2009999999999785,0.02905537015995325,-0.005228790326267881
1.4009999999999565,0.035537536331965026,-0.0018052501117539301
1.6009999999999345,0.04761271855790023,-0.006120992386807752
1.8009999999999124,0.06475440051012762,-0.012915338541272442
2.0009999999998906,0.0722719050039082,-0.022977377688084687
2.2009999999998686,0.0820643534583638,-0.030425430895427572
2.4009999999998466,0.0919752902953659,-0.037301092488581655
2.6009999999998246,0.09972818329027182,-0.0422335976854758
2.8009999999998025,0.11850505010375428,-0.05205775683354944
3.0009999999997805,0.13121084082775353,-0.053512650548544274
3.2009999999997585,0.14492885986727697,-0.0608679946268716
3.4009999999997365,0.1609803730993169,-0.06513597006432033
3.6009999999997144,0.1791365955711664,-0.07026600650526757
3.8009999999996924,0.18821733464786605,-0.07506413886391997
4.000999999999671,0.20181179177300665,-0.07778566797653433
4.200999999999738,0.22050436041805252,-0.08279176163888506
4.400999999999804,0.2419152750170514,-0.08348324212267916
4.600999999999871,0.25282430943474393,-0.0901763077570719
4.800999999999938,0.2624857496692617,-0.09478445519746889
5.000000000000004,0.27632170866584316,-0.09604156953416772
5.200000000000071,0.2973615558471042,-0.1006382484739463
5.400000000000138,0.32250151553017314,-0.11563888566177744
5.600000000000205,0.34089368492187855,-0.12452535983481582
5.800000000000272,0.3598863300104082,-0.13098503588346724
6.000000000000338,0.38486635158852356,-0.14680154847056137
6.200000000000405,0.40373624700081595,-0.15813430807394796
6.400000000000472,0.4303505133187657,-0.1746131323245177
6.600000000000539,0.4584484769353576,-0.1826486186955809
6.800000000000606,0.4860337847994439,-0.18957078267316826
7.000000000000672,0.5061084767986566,-0.19790830426541073
7.200000000000739,0.5302446671136488,-0.20650538450548267
7.400000000000806,0.5543832796552461,-0.21890139345509138
7.600000000000873,0.5734084245455336,-0.21621486784017754
7.8000000000009395,0.5872950302415523,-0.22477309381047897
8.000000000001005,0.6050271560673882,-0.23442917052540535
8.200000000000895,0.6240113845248784,-0.25108587719247416
8.400000000000784,0.6417023082453697,-0.2701552464245225
8.600000000000673,0.6605599974327615,-0.2761870519495191
8.800000000000562,0.6742584680681961,-0.281868757800438
9.000000000000451,0.682875397230138,-0.2906825606105088
9.20000000000034,0.6868089528211566,-0.2955626447419067
9.40000000000023,0.6934336246474272,-0.3133514845084593
9.600000000000119,0.6956272444361089,-0.3383136758026609
9.800000000000008,0.6882333259529917,-0.3700937714200777
10.000999999999896,0.6829672007924643,-0.393666716029304
10.200999999999786,0.6775289827128903,-0.4241209582131805
10.400999999999675,0.6712748472501258,-0.45596731968945103
10.600999999999564,0.6696582337746433,-0.47438434551678166
10.800999999999453,0.6627226590561738,-0.4957103298667391
11.000999999999342,0.6550900848433262,-0.5193434988381536
11.200999999999231,0.6417233887978954,-0.5507305807623272
11.40099999999912,0.6291773797500138,-0.5792683170813385
11.60099999999901,0.6232436159605921,-0.6021254556862435
11.800999999998899,0.6130806924851449,-0.6244565179140089
12.000999999998788,0.6010684122807023,-0.6528057443935246
12.200999999998677,0.5965809682594596,-0.6743331627647742
12.400999999998566,0.5864706702078539,-0.6975290282528089
12.600999999998455,0.5780702832527271,-0.7192331551566599
12.800999999998345,0.5645764828524384,-0.7427758193976443
13.000999999998234,0.5414864281593855,-0.7716305857679469
13.200999999998123,0.5233443151556647,-0.7933641332887824
13.400999999998012,0.5124229521295598,-0.811174000245165
13.600999999997901,0.5003899871044583,-0.8284771819525354
13.80099999999779,0.4814246740375397,-0.8443256934465371
14.00099999999768,0.4696177476774667,-0.8592171287035892
14.200999999997569,0.44712895654844076,-0.8663332525593967
14.400999999997458,0.42171562297117166,-0.866567432538468
14.600999999997347,0.39003073365533986,-0.8657670320105532
14.800999999997236,0.3689976853917519,-0.861904008151685
15.000999999997125,0.3451436903422559,-0.8540111003683881
15.200999999997014,0.3222292370972851,-0.8447495636319066
15.400999999996904,0.2997835192023381,-0.8345691462025843
15.600999999996793,0.2738348470438936,-0.8246572404515549
15.800999999996682,0.2502122110079506,-0.8170911482866275
16.000999999996573,0.2306792290576466,-0.808932805474943
16.200999999996817,0.21205857673523382,-0.8058497862230727
16.40099999999706,0.18921427891576614,-0.798068116502662
16.600999999997306,0.16406829901386868,-0.7896632614797696
16.80099999999755,0.1318175931476587,-0.7788443648266842
17.000999999997795,0.1048506339884245,-0.7673517918346648
17.20099999999804,0.07904964654720585,-0.7603535643802378
17.400999999998284,0.052453981625753196,-0.7518901613111538
17.60099999999853,0.02535382741829351,-0.7441932533403718
17.800999999998773,0.0029394080467371763,-0.7366038749904701
18.000999999999017,-0.01836528155485359,-0.7240964308836237
18.20099999999926,-0.05238843725061094,-0.7049549176369738
18.400999999999506,-0.0826624355795253,-0.6837517145948694
18.60099999999975,-0.11507654424807277,-0.6675425545597184
18.799999999999994,-0.143713498102598,-0.6465152387404532
19.000000000000238,-0.1718964239409673,-0.6232026213710021
19.200000000000482,-0.19832913949920208,-0.5978646995735127
19.400000000000727,-0.2214345572973299,-0.577038689129754
19.60000000000097,-0.23401243907271305,-0.5561522565476038
19.800000000001216,-0.24381723006547776,-0.5366904591189087
20.00000000000146,-0.24927388614747154,-0.5184987359601473
