Time (s),X (m),Y (m)
0.001,-0.0004427414248986554,-0.0007899207378008392
0.20000000000000015,0.007019009532218636,0.0049952531392460165
0.4000000000000003,0.0149303485919869,0.0069117163532770275
0.6000000000000004,0.02176304663658609,0.007703541905515967
0.8000000000000006,0.036913202305688175,0.02000783563035276
1.0000000000000007,0.061610079868798934,0.026993982736292676
1.2009999999999785,0.084189817535807,0.03129271634900219
1.4009999999999565,0.10085860863126071,0.04143381276099621
1.6009999999999345,0.11977372215251568,0.044299992454053784
1.8009999999999124,0.1410283659906302,0.04942113586010489
2.0009999999998906,0.15792950873615658,0.04908533294373484
2.2009999999998686,0.1749109620866742,0.05618138802616773
2.4009999999998466,0.19354814443335647,0.0699617296501366
2.6009999999998246,0.21073055685456646,0.0734296625075807
2.8009999999998025,0.24130642781190634,0.07923844457022015
3.0009999999997805,0.2682267085206105,0.08286316079573691
3.2009999999997585,0.2927787895667797,0.0812170483703889
3.4009999999997365,0.31067170625647805,0.08428148564671838
3.6009999999997144,0.33629464505538803,0.08837437343968678
3.8009999999996924,0.3644466417432194,0.09284379836574201
4.000999999999671,0.390557921970798,0.11029451285448513
4.200999999999738,0.4220028966830496,0.12678958884179092
4.400999999999804,0.4508433449149782,0.1405762597895284
4.600999999999871,0.48121533332428995,0.1501085710838371
4.800999999999938,0.5073671803444997,0.1641416303943366
5.000000000000004,0.5382988947901489,0.1864219332098404
5.200000000000071,0.5685196576926119,0.2056456572620704
5.400000000000138,0.5988683751831785,0.22351823505791232
5.600000000000205,0.6307209227430183,0.23272326811044688
5.800000000000272,0.6682193856265557,0.24515595138323606
6.000000000000338,0.7035955636863959,0.2580887740448538
6.200000000000405,0.7300142898896569,0.2875935241526708
6.400000000000472,0.759069976637301,0.3117730735635936
6.600000000000539,0.7841547689079876,0.32394181605850597
6.800000000000606,0.8080810203133324,0.34480255787712993
7.000000000000672,0.8357478422117501,0.3530567874162914
7.200000000000739,0.8661543459575628,0.36253543515867914
7.400000000000806,0.8942617103822785,0.3796018622647814
7.600000000000873,0.9209508350681764,0.40584084853231606
7.8000000000009395,0.9419923434891354,0.43120689788652955
8.000000000001005,0.9688918911704253,0.45591584437977395
8.200000000000895,0.9967211897155082,0.49342817580162784
8.400000000000784,1.0254555481270735,0.5273075919178563
8.600000000000673,1.056111713059012,0.5564234124794263
8.800000000000562,1.0781887454888537,0.5835073387435145
9.000000000000451,1.1004922959318086,0.6057169955368185
9.20000000000034,1.118447869503696,0.6314259877026778
9.40000000000023,1.1394988646613178,0.667816720338784
9.600000000000119,1.1585778056845775,0.6941681481235698
9.800000000000008,1.1756731389142658,0.7235208970561443
10.000999999999896,1.1880889015260656,0.7529693244305555
10.200999999999786,1.2055604034792262,0.7772500730384035
10.400999999999675,1.2281897953219754,0.809460877606472
10.600999999999564,1.2513004085054413,0.8422485189222826
10.800999999999453,1.2752600127423073,0.874020839157648
11.000999999999342,1.30637675363262,0.9000172262025183
11.200999999999231,1.3392675946502128,0.9309808739048728
11.40099999999912,1.3685213533447194,0.9680054795395743
11.60099999999901,1.390176454466207,0.999189624795611
11.800999999998899,1.412901993856607,1.0158099963882308
12.000999999998788,1.4314465509725305,1.053594909976502
12.200999999998677,1.4531218722137063,1.091053915580815
12.400999999998566,1.4746939472325966,1.1238753474659509
12.600999999998455,1.482361418160817,1.1575317962791896
12.800999999998345,1.4930875219578363,1.1934303330474367
13.000999999998234,1.49711143396119,1.229165186314035
13.200999999998123,1.5065045327518185,1.2594144651563999
13.400999999998012,1.523602740469189,1.2911454943557235
13.600999999997901,1.5464810428974318,1.3262649512039633
13.80099999999779,1.5716641928979247,1.3512875252867929
14.00099999999768,1.6012620120863577,1.3863489804173
14.200999999997569,1.6313094168620759,1.4152133021141224
14.400999999997458,1.658381785809447,1.4413527199483043
14.600999999997347,1.6790334026710962,1.4852941876455676
14.800999999997236,1.7045666797762147,1.5184893323724746
15.000999999997125,1.7307444979031397,1.5491462437130163
15.200999999997014,1.7514687683918446,1.5849680236768262
15.400999999996904,1.7769364753646366,1.6221866958167706
15.600999999996793,1.803597865934845,1.6488903863636297
15.800999999996682,1.8238969106782805,1.6793598035794892
16.000999999996573,1.842460311524339,1.715991642844111
16.200999999996817,1.8642724529429602,1.7495418187197302
16.40099999999706,1.884182635232969,1.778191069161248
16.600999999997306,1.9010797275252196,1.7987001887052267
16.80099999999755,1.9139349647313513,1.823069745751476
17.000999999997795,1.925773864404426,1.8598257114506462
17.20099999999804,1.9410802684225277,1.901423907173301
17.400999999998284,1.9502922628084163,1.9359885429328234
17.60099999999853,1.9640938556148746,1.9681681319424242
17.800999999998773,1.985347284764735,1.9945091211679475
18.000999999999017,2.007365218240091,2.0160300653416487
18.20099999999926,2.0259523435083615,2.0445200106403303
18.400999999999506,2.0470946840770408,2.0741531834410676
18.60099999999975,2.066171031214622,2.1051034341846258
18.799999999999994,2.0785393294847854,2.137435914514407
19.000000000000238,2.0926862178034957,2.179014924355561
19.200000000000482,2.10230227898885,2.2150611013446686
19.400000000000727,2.1101211291384794,2.2416292425721736
19.60000000000097,2.1185023554521445,2.2629158149892397
19.800000000001216,2.130255815981191,2.2861224142912437
20.00000000000146,2.1434839988451637,2.3197216036582904
