Time (s),X (m),Y (m)
0.001,-0.00013259955118837574,-0.0009689812320744441
0.20000000000000015,0.00245902215324088,0.004038633183045499
0.4000000000000003,0.004352464088189297,0.0038116593663814423
0.6000000000000004,0.0035460293658599795,0.0005207010134922788
0.8000000000000006,0.006751285245904163,-0.00024458413597911295
1.0000000000000007,0.00911611658141565,0.0005779992523849254
1.2009999999999785,0.012983958512969565,0.004922304599686008
1.4009999999999565,0.016560926733939385,0.005848294597278042
1.6009999999999345,0.02151353599809076,0.008059526542535762
1.8009999999999124,0.02457462465777779,0.009328930343981436
2.0009999999998906,0.028268120347947075,0.01351319789974923
2.2009999999998686,0.03169587908627344,0.0138858060698581
2.4009999999998466,0.03538600082487805,0.0175796203468089
2.6009999999998246,0.038890540384068105,0.017066293912614834
2.8009999999998025,0.04286129347042689,0.0198941956678701
3.0009999999997805,0.0470548759972209,0.022872606396528064
3.2009999999997585,0.051443278424375925,0.025210444980098452
3.4009999999997365,0.05506599985021532,0.025074842260739662
3.6009999999997144,0.05895230342266875,0.029438188097132955
3.8009999999996924,0.062499348175125154,0.033440607358197004
4.000999999999671,0.0667913670007298,0.03599992103808213
4.200999999999738,0.07132569255162564,0.03596379953439477
4.400999999999804,0.07504019262067654,0.03836169814950629
4.600999999999871,0.07892916553435847,0.04088764667489401
4.800999999999938,0.08247814020591838,0.04305213453738645
5.000000000000004,0.08560502768358043,0.046621915524314
5.200000000000071,0.08870681711437645,0.04989080724424795
5.400000000000138,0.09219963691416434,0.053768953734442675
5.600000000000205,0.09616011094962106,0.056219075060090454
5.800000000000272,0.09972266552431157,0.059771479096739896
6.000000000000338,0.10318322872659999,0.06400819608398892
6.200000000000405,0.1066272919615999,0.06806345842630189
6.400000000000472,0.10965948009270675,0.0716871273572724
6.600000000000539,0.11241387171683268,0.07620567731027293
6.800000000000606,0.11567912442698514,0.07950394345524542
7.000000000000672,0.11855514479248201,0.08224570953907702
7.200000000000739,0.12203479118383007,0.08568881970309196
7.400000000000806,0.12568650902622017,0.08950257025406204
7.600000000000873,0.12840847262421112,0.0939471456018612
7.8000000000009395,0.1310084701447375,0.0984748867952559
8.000000000001005,0.1332984975579477,0.10280225215986619
8.200000000000895,0.13602760156944416,0.10719788479736164
8.400000000000784,0.1380222660818088,0.112009004801083
8.600000000000673,0.1401041375407596,0.11664046821771615
8.800000000000562,0.14267239674581214,0.1214068297341817
9.000000000000451,0.14424380819584118,0.12655242105459819
9.20000000000034,0.14706822068619005,0.13098213866212285
9.40000000000023,0.14886336087373087,0.13594457536852658
9.600000000000119,0.15007808743388817,0.14048321429436172
9.800000000000008,0.15203789557519748,0.1445102393530297
10.000999999999896,0.15329115233572496,0.1497483759676651
10.200999999999786,0.15420270881718642,0.1545947246326454
10.400999999999675,0.15501243843696366,0.16033914181423534
10.600999999999564,0.15610353413959266,0.16598951271655854
10.800999999999453,0.15645144311998807,0.17217351512465054
11.000999999999342,0.15712181282783255,0.1775632243462247
11.200999999999231,0.15607452692725174,0.18414648695549865
11.40099999999912,0.15709735874734876,0.18901741445676873
11.60099999999901,0.15656788908775,0.19464096383563984
11.800999999998899,0.15537166009314016,0.20035840792430518
12.000999999998788,0.15461002947344893,0.2063282545159023
12.200999999998677,0.15545398572309838,0.2114855786719303
12.400999999998566,0.1560081196708888,0.2164599824634146
12.600999999998455,0.15717554519614788,0.22154883670890407
12.800999999998345,0.15729107660586458,0.22679691506572738
13.000999999998234,0.15680409695252184,0.23212803695157855
13.200999999998123,0.15512416469021,0.237774840198256
13.400999999998012,0.15380081989741262,0.2430729234785665
13.600999999997901,0.1513082155405862,0.2490750820428286
13.80099999999779,0.150128339087959,0.25432408271064283
14.00099999999768,0.14779803024570795,0.26054655124352005
14.200999999997569,0.1459399530670265,0.2668768247992986
14.400999999997458,0.1437450259135989,0.27272503955162997
14.600999999997347,0.1425136181925878,0.27803007335112506
14.800999999997236,0.13963281463823715,0.28381929080307744
15.000999999997125,0.13695193382591447,0.2894218677159223
15.200999999997014,0.13551342945627037,0.29516755694249674
15.400999999996904,0.13354417432183496,0.3002574695642171
15.600999999996793,0.13128930738591013,0.3055638406227301
15.800999999996682,0.1311059944127672,0.31128163523006147
16.000999999996573,0.127903887401444,0.3169952503407887
16.200999999996817,0.1260618101886043,0.32194139364068286
16.40099999999706,0.12325247875121031,0.32645647660089516
16.600999999997306,0.11971188197849363,0.3310626886192503
16.80099999999755,0.1173812119849814,0.33614077085559524
17.000999999997795,0.11412839042362337,0.34114759000169753
17.20099999999804,0.11180469254109551,0.34576537717337275
17.400999999998284,0.10906153867553747,0.3506764112765213
17.60099999999853,0.10689014500853256,0.355608923745872
17.800999999998773,0.10313116494018296,0.3603035084671695
18.000999999999017,0.09908132406216964,0.364654255818246
18.20099999999926,0.09563098875099829,0.3685862139793868
18.400999999999506,0.09212309728506676,0.3724295072451664
18.60099999999975,0.08929808118835812,0.37646810209373216
18.799999999999994,0.08655381270487819,0.38079963661672017
19.000000000000238,0.08266456988425114,0.3848922669254134
19.200000000000482,0.07887217861304728,0.38901229717427865
19.400000000000727,0.07377776722177218,0.3926074200338836
19.60000000000097,0.0698020441260816,0.3963915349693974
19.800000000001216,0.06554785383183206,0.40003310288116056
20.00000000000146,0.061078783374297986,0.4030160158953186
