Time (s),X (m),Y (m)
0.001,0.0011130987088041246,-0.000515584144559974
0.20000000000000015,0.0008575813810588382,0.00012431968320908426
0.4000000000000003,0.00500341957032613,0.0012908057116142128
0.6000000000000004,0.015318247145657465,-0.004639471553267127
0.8000000000000006,0.026052220749137076,-0.007810232274532833
1.0000000000000007,0.044803975109303895,-0.007392407812138803
1.2009999999999785,0.06922320062005749,-0.0053666472079606925
1.4009999999999565,0.10062774788260469,-0.017821746066650296
1.6009999999999345,0.13119167368453685,-0.027430677771803195
1.8009999999999124,0.17061356515119935,-0.040290301028242444
2.0009999999998906,0.21234386118679105,-0.06307991890576799
2.2009999999998686,0.25128089910450846,-0.07752252293001702
2.4009999999998466,0.28345249575124304,-0.10448737425530079
2.6009999999998246,0.3062246763036621,-0.13865780396441063
2.8009999999998025,0.31343932805089036,-0.17601188956122021
3.0009999999997805,0.30786220756339716,-0.21858483797997488
3.2009999999997585,0.30499773468837826,-0.2496738468476265
3.4009999999997365,0.29391726710877053,-0.2891528129293438
3.6009999999997144,0.2828563194338348,-0.33436623829030426
3.8009999999996924,0.2570060813489806,-0.3669751212092932
4.000999999999671,0.22270346872822971,-0.3690087661749087
4.200999999999738,0.1858311092989279,-0.3646651794572822
4.400999999999804,0.14945303675108884,-0.35767190597462023
4.600999999999871,0.1091101105852749,-0.3266230190426207
4.800999999999938,0.07252024129329052,-0.2904247115343515
5.000000000000004,0.04539418730614748,-0.2451044231264946
5.200000000000071,0.039906460431818766,-0.19405834959288398
5.400000000000138,0.05442655032944797,-0.13118795343670853
5.600000000000205,0.06394462690938275,-0.08170820377799337
5.800000000000272,0.06720120215586009,-0.041556348578312904
6.000000000000338,0.07167382735454751,-0.0028064989265425243
6.200000000000405,0.07752453850223691,0.03862962976002788
6.400000000000472,0.08496717542424112,0.07941312658170203
6.600000000000539,0.10034508235899153,0.12429810237858568
6.800000000000606,0.11721504208531115,0.16678060951233023
7.000000000000672,0.1443695859089984,0.1928958462566021
7.200000000000739,0.17344092296413785,0.19881579647773723
7.400000000000806,0.20114221930370577,0.19834714817467766
7.600000000000873,0.24336464812462377,0.1732035954834394
7.8000000000009395,0.2903760360641584,0.1498131061352602
8.000000000001005,0.3363535705548691,0.1273202367727765
8.200000000000895,0.37580488968090653,0.09592712991532418
8.400000000000784,0.40258775718567175,0.0607069766051304
8.600000000000673,0.4191336038343526,0.026011862282921447
8.800000000000562,0.42776820197974413,-0.013842903728236017
9.000000000000451,0.43007608003304265,-0.05947634712717866
9.20000000000034,0.41716138422203675,-0.111617131795773
9.40000000000023,0.4042282933511933,-0.16277488772860527
9.600000000000119,0.3897877942542867,-0.21774094400543773
9.800000000000008,0.364795958350674,-0.2720848277598358
10.000999999999896,0.325750538193401,-0.32476466760091177
10.200999999999786,0.27200860425323004,-0.36033597557130265
10.400999999999675,0.2215470893737511,-0.38187031233462043
10.600999999999564,0.1703717083845751,-0.3878289295261294
10.800999999999453,0.11859656470076929,-0.37638062968910957
11.000999999999342,0.06747017068983036,-0.3633913602509775
11.200999999999231,0.012955558469418047,-0.3517509139495703
11.40099999999912,-0.041724129104045014,-0.3418862204096631
11.60099999999901,-0.09280494167812194,-0.3244640767814036
11.800999999998899,-0.12748154288101227,-0.2922248515346995
12.000999999998788,-0.14339701829374346,-0.24917305588409241
12.200999999998677,-0.14726431337273052,-0.20615000478782997
12.400999999998566,-0.14633632612923136,-0.1600528367909408
12.600999999998455,-0.12890597046862487,-0.10776855514410344
12.800999999998345,-0.1023547579967266,-0.05259146963364621
13.000999999998234,-0.05408893963527534,-0.005248954326229386
13.200999999998123,-0.005165922603748371,0.01594416744924774
13.400999999998012,0.04518131645302103,0.0228984346451886
13.600999999997901,0.0980852427617754,0.018011394451780505
13.80099999999779,0.1518698361449429,0.008945778651813792
14.00099999999768,0.2163481112393965,-0.00788444447328479
14.200999999997569,0.27713034934195774,-0.027741991273678674
14.400999999997458,0.33686114894912433,-0.05091770975609841
14.600999999997347,0.3943925771451447,-0.07644182900747647
14.800999999997236,0.4398651749456526,-0.1197843088739831
15.000999999997125,0.4632326080333223,-0.17496776212066517
15.200999999997014,0.45191899689320014,-0.23769100336581767
15.400999999996904,0.422538103240711,-0.29095389359326734
15.600999999996793,0.39733073757289333,-0.32766480625982797
15.800999999996682,0.3649715613411798,-0.3453308288920189
16.000999999996573,0.3224650244902704,-0.3493904355214847
16.200999999996817,0.279833049469274,-0.34950168007786614
16.40099999999706,0.23510069646411125,-0.3483766884775445
16.600999999997306,0.2007740723500184,-0.3416031455152579
16.80099999999755,0.16429266359532865,-0.345926632566501
17.000999999997795,0.1197725003954094,-0.3350478307455247
17.20099999999804,0.06630425174863305,-0.3186268433443237
17.400999999998284,0.014829546376592822,-0.2971314345960395
17.60099999999853,-0.03174703388195425,-0.2766907648935364
17.800999999998773,-0.06749613366508918,-0.2600696256402901
18.000999999999017,-0.09233127636474991,-0.22940374838616226
18.20099999999926,-0.1077419834346604,-0.20247505586109873
18.400999999999506,-0.11160931961613178,-0.16702809283983458
18.60099999999975,-0.10862139684458685,-0.11995152204820649
18.799999999999994,-0.08734172279510936,-0.055749118392743276
19.000000000000238,-0.042658259946705857,0.017077050513937975
19.200000000000482,0.010573063253412254,0.06940235894559528
19.400000000000727,0.07082267837806114,0.08272379265272886
19.60000000000097,0.12500054536161748,0.07882634785461548
19.800000000001216,0.17816725937122666,0.05601738048615219
20.00000000000146,0.21296445626574456,0.030645368389738598
