Time (s),X (m),Y (m)
0.001,0.00048696676677933824,0.00099603208171127
0.20000000000000015,0.0025114278987671207,0.0014652452962134249
0.4000000000000003,0.006090870251793862,-0.0008406971700558963
0.6000000000000004,0.012586611169779195,-0.0010942441052312183
0.8000000000000006,0.01752632679786582,-0.004383715647505018
1.0000000000000007,0.024871235198855975,-0.015111061773185826
1.2009999999999785,0.029729762944307195,-0.018159268068169466
1.4009999999999565,0.04112589792565964,-0.00932905450247816
1.6009999999999345,0.05464197112027184,-0.005239057182020712
1.8009999999999124,0.06870601752669876,0.005346318927236069
2.0009999999998906,0.08055865553588487,0.009569418693442648
2.2009999999998686,0.08881222066976892,-0.003612015202888664
2.4009999999998466,0.0979246626765304,-0.006931314205025182
2.6009999999998246,0.11062586895339797,-0.0062278161755101105
2.8009999999998025,0.12030783698204067,-0.008031223738133931
3.0009999999997805,0.13295293232699132,-0.010188699354022564
3.2009999999997585,0.14295629597853068,-0.0048630198348191015
3.4009999999997365,0.15560683355048036,-0.0008714011834147063
3.6009999999997144,0.16943261418759986,0.005226078033027828
3.8009999999996924,0.18229994607137276,0.009105953115863255
4.000999999999671,0.1910873836645152,0.012912726452078886
4.200999999999738,0.1978927150507058,0.014035846519607242
4.400999999999804,0.2091082157878534,0.0217413433583016
4.600999999999871,0.2229126960496008,0.019640635939765273
4.800999999999938,0.23514877660239805,0.02238343469426773
5.000000000000004,0.246416110057388,0.02620209074463915
5.200000000000071,0.25810808907346733,0.036384210267356325
5.400000000000138,0.27160649666443804,0.049107975739148
5.600000000000205,0.2850822972952691,0.061383259314258885
5.800000000000272,0.29786602354478986,0.05477048733735868
6.000000000000338,0.3093289510093024,0.066036737927526
6.200000000000405,0.32182280349486553,0.07047360619018632
6.400000000000472,0.3365702629386146,0.07726502286500517
6.600000000000539,0.3512759683691974,0.09100645929571657
6.800000000000606,0.36594362559161214,0.09662030565631848
7.000000000000672,0.37620144510507364,0.10679895166815456
7.200000000000739,0.3871116515582421,0.11655644321792338
7.400000000000806,0.39923762465626284,0.12481411545626404
7.600000000000873,0.4135781970506557,0.13354931935881384
7.8000000000009395,0.4264406150394342,0.14056191915233518
8.000000000001005,0.4421111593225073,0.14042599096376607
8.200000000000895,0.4558629725103217,0.1468119405498965
8.400000000000784,0.4719949966295836,0.15035090380255892
8.600000000000673,0.48706359364996965,0.15686874959982822
8.800000000000562,0.5037322427570874,0.1676943332690099
9.000000000000451,0.5195191644052873,0.17605452525948892
9.20000000000034,0.5361799823808093,0.1889793279294984
9.40000000000023,0.5531617734916066,0.2010549718073146
9.600000000000119,0.5708096310301806,0.2116962442500146
9.800000000000008,0.5883143028766201,0.21833058882964287
10.000999999999896,0.6046592228693521,0.22744386785382656
10.200999999999786,0.6175103401976675,0.23270649524123455
10.400999999999675,0.6330679156395237,0.23709081325167242
10.600999999999564,0.6462244091825624,0.23957132276015103
10.800999999999453,0.661833319832282,0.246671808588503
11.000999999999342,0.6759740388084512,0.24662283558774317
11.200999999999231,0.6884183754784698,0.2486532490589758
11.40099999999912,0.7039293935368347,0.2553254433371862
11.60099999999901,0.7212136469180203,0.2553577955098998
11.800999999998899,0.7352105867133567,0.2604502689347701
12.000999999998788,0.7516745091966828,0.2716614650965215
12.200999999998677,0.77041868660525,0.27733049595376225
12.400999999998566,0.786894634513811,0.28230549462157717
12.600999999998455,0.8012764978550041,0.2980130614860196
12.800999999998345,0.8123101651007056,0.3074032074788774
13.000999999998234,0.8251622641481627,0.31124712747502836
13.200999999998123,0.836731294691571,0.3230022699716142
13.400999999998012,0.852274331277628,0.3274159093160957
13.600999999997901,0.8694072203590736,0.3352266052426651
13.80099999999779,0.8876770483293387,0.3368080674186453
14.00099999999768,0.9042702490881914,0.337189751801377
14.200999999997569,0.9168817459184424,0.34028215082875607
14.400999999997458,0.9344132202855043,0.3481604905950618
14.600999999997347,0.9478976841260012,0.3597995916883962
14.800999999997236,0.9593602211648652,0.37250041905313835
15.000999999997125,0.9759673004490753,0.3857410473071473
15.200999999997014,0.99257675248143,0.3968102606542684
15.400999999996904,1.0078777261352887,0.40426210373818444
15.600999999996793,1.0219299725122113,0.40801432123268
15.800999999996682,1.0389648406655825,0.41900982584015906
16.000999999996573,1.0576470738654746,0.43458651999533854
16.200999999996817,1.0731658150260444,0.4387186023851394
16.40099999999706,1.0894356723440297,0.44663861442026676
16.600999999997306,1.1064421593099718,0.46318018797106497
16.80099999999755,1.1237987209046567,0.4736119926724133
17.000999999997795,1.1402033437931127,0.4801483199474515
17.20099999999804,1.1526314253012162,0.4948634351478933
17.400999999998284,1.1678492713513275,0.5030061514038724
17.60099999999853,1.1838836434885611,0.5151003494741305
17.800999999998773,1.2000735703357308,0.5258056944775855
18.000999999999017,1.2114033578005277,0.5371680507726261
18.20099999999926,1.2208230406797893,0.5398975278195776
18.400999999999506,1.2310715298024693,0.5521703204834558
18.60099999999975,1.244111371187074,0.5555572888775243
18.799999999999994,1.2551687200117865,0.5595985905157945
19.000000000000238,1.2683165623992425,0.5611934752314102
19.200000000000482,1.2794899835502551,0.5706801041473726
19.400000000000727,1.2917259819055436,0.5818164318398379
19.60000000000097,1.301989941098126,0.5912766137053594
19.800000000001216,1.3100888022164143,0.6066091521224243
20.00000000000146,1.3207505151973202,0.6206666704251961
