Time (s),X (m),Y (m)
0.001,0.0011130987088041246,0.0005155841445599734
0.20000000000000015,-0.0007670597590595029,-0.0010515912383774523
0.4000000000000003,0.002652750050365535,-0.0016968260640094878
0.6000000000000004,0.00846915828279957,-0.00307553886385282
0.8000000000000006,0.014905402688049569,-0.003804095874635687
1.0000000000000007,0.02114712344991115,-0.008598772567562528
1.2009999999999785,0.029539155171544464,-0.016288425120987916
1.4009999999999565,0.035422143682164065,-0.02176313410545481
1.6009999999999345,0.04223338985817211,-0.024724781958622946
1.8009999999999124,0.05172902708532533,-0.028836623581044347
2.0009999999998906,0.06470973364771201,-0.02452284935656695
2.2009999999998686,0.07142526888428886,-0.012993623941282369
2.4009999999998466,0.07648222137013362,-0.01218419486092255
2.6009999999998246,0.08161110839467102,-0.010183202826857958
2.8009999999998025,0.09368213546451949,-0.00604508073218039
3.0009999999997805,0.09990304459257948,-0.010060118990612424
3.2009999999997585,0.11375573294343612,-0.01666128784323398
3.4009999999997365,0.12597279336347517,-0.02322090666733919
3.6009999999997144,0.1386195393329434,-0.02891060961620124
3.8009999999996924,0.14422364705668808,-0.03307711941362342
4.000999999999671,0.1536175481880626,-0.03800512496974224
4.200999999999738,0.16293235983336185,-0.04572190620227639
4.400999999999804,0.16879109309436985,-0.04358766112340267
4.600999999999871,0.18358358290530513,-0.04054969560588746
4.800999999999938,0.18830475724386736,-0.044120124732901764
5.000000000000004,0.19758793569592206,-0.04470197195474205
5.200000000000071,0.2071435967056421,-0.05221539011103222
5.400000000000138,0.22106097620306275,-0.06661876893282745
5.600000000000205,0.22472810357786224,-0.07266932140227975
5.800000000000272,0.23918489781181274,-0.0826650562650784
6.000000000000338,0.2504046017901423,-0.09217843424181252
6.200000000000405,0.26601076179379984,-0.09475330862371159
6.400000000000472,0.2879677009061988,-0.09909587245523456
6.600000000000539,0.3109849457017517,-0.10663902142462386
6.800000000000606,0.33338126054765904,-0.11471663372183441
7.000000000000672,0.35206978286726104,-0.12822203094245274
7.200000000000739,0.37063269292743034,-0.14197758667181865
7.400000000000806,0.3811843013027637,-0.15655706752663157
7.600000000000873,0.39286940340763704,-0.17136438157270167
7.8000000000009395,0.40592480054319563,-0.183206113390083
8.000000000001005,0.42339900147704174,-0.19731320337793876
8.200000000000895,0.44031174230173026,-0.21092339241298058
8.400000000000784,0.4447038642674943,-0.21748624742762449
8.600000000000673,0.46471106497898035,-0.22507329451951305
8.800000000000562,0.4854126809874574,-0.23396807721470778
9.000000000000451,0.5039502871108363,-0.24318453570652282
9.20000000000034,0.525173084379635,-0.25215086972046286
9.40000000000023,0.5450196103589738,-0.257429741620855
9.600000000000119,0.5580517021110855,-0.2654128533704579
9.800000000000008,0.5723237364816058,-0.27782234265160094
10.000999999999896,0.5968434563047192,-0.28668541752924565
10.200999999999786,0.6148735278513304,-0.2947145595406173
10.400999999999675,0.6249116306411163,-0.30708309513884374
10.600999999999564,0.6393288024719257,-0.31273543906200063
10.800999999999453,0.6448366481872797,-0.32468510126400457
11.000999999999342,0.6560577315424203,-0.3419271903752179
11.200999999999231,0.6695877441945293,-0.35267700392280177
11.40099999999912,0.6866894631897507,-0.36470398681164534
11.60099999999901,0.6977826850677256,-0.37123028382749923
11.800999999998899,0.7082238811380122,-0.3771802081946055
12.000999999998788,0.7236531656663924,-0.38752845286529203
12.200999999998677,0.7439351038631714,-0.392900366732304
12.400999999998566,0.7628819732057265,-0.39736062433753017
12.600999999998455,0.7833317159467947,-0.3974732032553963
12.800999999998345,0.7961970605519285,-0.400716813026382
13.000999999998234,0.8142589406938017,-0.405824305510916
13.200999999998123,0.833646245882297,-0.40766309322756755
13.400999999998012,0.8520160728609315,-0.41705321662425754
13.600999999997901,0.8662322833753746,-0.4164695808633943
13.80099999999779,0.8838233467827225,-0.4160621785462794
14.00099999999768,0.8976710942147584,-0.4258338670989962
14.200999999997569,0.9225107114718418,-0.4379545806400064
14.400999999997458,0.9434585925639325,-0.44893423830579193
14.600999999997347,0.9608351024057346,-0.4640829185115291
14.800999999997236,0.9875408344515841,-0.47370707228685055
15.000999999997125,1.0094481645484958,-0.4798971010975524
15.200999999997014,1.0312653513114167,-0.4920509334671823
15.400999999996904,1.046925852914316,-0.5032710301604262
15.600999999996793,1.057336822623373,-0.506213135641805
15.800999999996682,1.0704459555459278,-0.5128375846893894
16.000999999996573,1.0834116877522784,-0.524312722409857
16.200999999996817,1.0966979568390978,-0.5314254160481099
16.40099999999706,1.114177667738455,-0.5368516172412485
16.600999999997306,1.1327839957067458,-0.5370701224714498
16.80099999999755,1.1500465642348543,-0.5412140616358243
17.000999999997795,1.1667822501796594,-0.5446044078708356
17.20099999999804,1.1781238386219421,-0.551802847917653
17.400999999998284,1.1892593542585388,-0.560328389431548
17.60099999999853,1.2021163360104465,-0.5721803549341757
17.800999999998773,1.2102383712748785,-0.5837972608958154
18.000999999999017,1.2203164625761342,-0.5924999025308844
18.20099999999926,1.234528488541041,-0.600856360899044
18.400999999999506,1.25545432328995,-0.6118963287947091
18.60099999999975,1.2769004478453974,-0.6185074910863059
18.799999999999994,1.2986473391511917,-0.6219596891786178
19.000000000000238,1.3252943615087727,-0.6216618984700454
19.200000000000482,1.3427104783847588,-0.6257168638359596
19.400000000000727,1.3649416668040784,-0.626085311459529
19.60000000000097,1.3837311667594976,-0.6285356287809771
19.800000000001216,1.4046335775104308,-0.6338104217247666
20.00000000000146,1.4207737099874584,-0.6378817570425468
