Time (s),X (m),Y (m)
0.001,-0.00013259955118837574,-0.0009689812320744441
0.20000000000000015,-0.0007779212853765191,-0.00473701263040214
0.4000000000000003,0.002283059649301524,-0.0016012474158737429
0.6000000000000004,0.007351697060501183,0.003782688937911997
0.8000000000000006,0.013232174809788689,0.00521943633955389
1.0000000000000007,0.019288732929607148,0.006986179639712839
1.2009999999999785,0.02438173956795835,0.0049320307425690475
1.4009999999999565,0.03204136977774452,0.008565651232719794
1.6009999999999345,0.04291963905693664,0.010047669245282862
1.8009999999999124,0.050065316034491464,0.012417239446138463
2.0009999999998906,0.05934275352431358,0.015722306031871244
2.2009999999998686,0.06612844937430767,0.019556220567814805
2.4009999999998466,0.07464265438206333,0.029736315885810587
2.6009999999998246,0.08208490874493403,0.03172744014916318
2.8009999999998025,0.09227595155714274,0.035867121164716374
3.0009999999997805,0.09815641921941486,0.03371286943614926
3.2009999999997585,0.1060315067812307,0.036828081858173635
3.4009999999997365,0.11527131393450572,0.03726098883632592
3.6009999999997144,0.12242050919558324,0.03980176418893544
3.8009999999996924,0.13106672412654147,0.04007400963637922
4.000999999999671,0.13909729212715535,0.04799299785046929
4.200999999999738,0.1464817840417346,0.045987269446853433
4.400999999999804,0.15237836544467304,0.05098936350560109
4.600999999999871,0.16269464471934522,0.0585717527951154
4.800999999999938,0.17459761619099448,0.06896891813073146
5.000000000000004,0.18426669712454966,0.07514402818279059
5.200000000000071,0.193403302045716,0.07972537875870721
5.400000000000138,0.20219012561480224,0.09183394948302746
5.600000000000205,0.21163542934571536,0.1002165233930122
5.800000000000272,0.21863521552484505,0.10581835948522704
6.000000000000338,0.22692494657179646,0.11172922875354845
6.200000000000405,0.234969696915061,0.11932381062828477
6.400000000000472,0.24155039895009647,0.12425813150904876
6.600000000000539,0.24949090017593376,0.13105087930766332
6.800000000000606,0.2555991226595185,0.13854906310516854
7.000000000000672,0.25995130000248606,0.14945167429801426
7.200000000000739,0.2658747222889977,0.1619613786619748
7.400000000000806,0.27520524829545107,0.16587917151081644
7.600000000000873,0.2806538701871194,0.17008035088591614
7.8000000000009395,0.2860953760253746,0.17162957452863792
8.000000000001005,0.29505318279887083,0.17734250439733776
8.200000000000895,0.3011060731519856,0.1821720106609201
8.400000000000784,0.3083630047108032,0.18398962045257494
8.600000000000673,0.3163904133436925,0.19096102792867942
8.800000000000562,0.3250526192907927,0.19574306885689602
9.000000000000451,0.33473185509022313,0.20460884023998047
9.20000000000034,0.3419183428920085,0.2137001648854853
9.40000000000023,0.3476197639214112,0.22226668536582647
9.600000000000119,0.3550505077197377,0.23327767650125059
9.800000000000008,0.36395677567834844,0.24456177942242774
10.000999999999896,0.371763370615325,0.25367222180745075
10.200999999999786,0.38158063995254626,0.2692215306102946
10.400999999999675,0.3887075634625776,0.2720388432001402
10.600999999999564,0.39596009422000633,0.27566437902844276
10.800999999999453,0.4021425071322773,0.2836936596012881
11.000999999999342,0.41122925267835214,0.29655608369365133
11.200999999999231,0.41743613567594784,0.30689077591449476
11.40099999999912,0.4251044599024102,0.31325815348150243
11.60099999999901,0.43153311443674797,0.3200300136359851
11.800999999998899,0.438068561153739,0.328543564798669
12.000999999998788,0.4473050186800578,0.33814584762005223
12.200999999998677,0.4526682319862078,0.3476753527038582
12.400999999998566,0.4602167252776383,0.3541740339076082
12.600999999998455,0.4695679057054947,0.35799729880089437
12.800999999998345,0.4749101710398002,0.37055476908348384
13.000999999998234,0.4842563161263785,0.3690290789351943
13.200999999998123,0.488182756463517,0.37437295124144904
13.400999999998012,0.49236867255765304,0.38740362480963386
13.600999999997901,0.4981991000338544,0.401156079877877
13.80099999999779,0.5044837438693427,0.41388520561558845
14.00099999999768,0.5107120819082313,0.42422188861511523
14.200999999997569,0.5181928663145149,0.4271677874248375
14.400999999997458,0.522850209272743,0.438749572595548
14.600999999997347,0.5312126172586741,0.4407544219703403
14.800999999997236,0.5349089697728032,0.44959619984447635
15.000999999997125,0.5370117150497343,0.4627167680117587
15.200999999997014,0.5368470257598276,0.4732174018250639
15.400999999996904,0.5429889503459642,0.482349521294534
15.600999999996793,0.5483081442256719,0.4873561636566988
15.800999999996682,0.5529569392695406,0.49552289755688766
16.000999999996573,0.5574320921764102,0.506962093381452
16.200999999996817,0.5620956638778057,0.512987303753463
16.40099999999706,0.5685317560569362,0.5209499458617391
16.600999999997306,0.5654201729021597,0.5302710320465573
16.80099999999755,0.5690154233984541,0.541416815078799
17.000999999997795,0.5750573256280663,0.5501259912038629
17.20099999999804,0.5718223683810393,0.5591895981977607
17.400999999998284,0.5729911814073149,0.5703799821217147
17.60099999999853,0.571491038882662,0.5822964669364309
17.800999999998773,0.5684379721669662,0.5942728755180714
18.000999999999017,0.5648869458127285,0.6058437684719551
18.20099999999926,0.5635383265814639,0.6157429747643123
18.400999999999506,0.5625548886468363,0.6257450734176128
18.60099999999975,0.5598954201988557,0.6373211672325221
18.799999999999994,0.5549660603013894,0.6495298697901687
19.000000000000238,0.5470973464001757,0.6624503108213345
19.200000000000482,0.5417644268298364,0.6755661765709542
19.400000000000727,0.5334098522740396,0.6875192067261752
19.60000000000097,0.5306265951204729,0.698510246978924
19.800000000001216,0.531454949507804,0.7126797919489958
20.00000000000146,0.5253640590109967,0.7245277665922297
