Time (s),X (m),Y (m)
0.001,-0.0007489004572251305,0.00035268032603768894
0.20000000000000015,0.005008045436765253,-0.0015695889782505528
0.4000000000000003,0.007835090306206587,-0.00048628829229457464
0.6000000000000004,0.009865448374362477,0.0012571738843313801
0.8000000000000006,0.01424794951035478,-0.00010431494088225709
1.0000000000000007,0.019624278615981244,-0.0017668541737969803
1.2009999999999785,0.023776778813677554,-0.0037133879768084183
1.4009999999999565,0.028386993241273605,-0.0040620182953467285
1.6009999999999345,0.03132486557625084,-0.003573200206209945
1.8009999999999124,0.03554958558752161,-0.003825829260321893
2.0009999999998906,0.040444887456883,-0.004604480437784274
2.2009999999998686,0.04344549075472172,-0.005157489765470433
2.4009999999998466,0.04847316993235259,-0.0049251158122516235
2.6009999999998246,0.05260784330052424,-0.0040358072635333095
2.8009999999998025,0.05681652118381692,-0.003501110689707291
3.0009999999997805,0.059701713457959396,-0.002900893798861734
3.2009999999997585,0.06359320187288985,-0.0013377094800818758
3.4009999999997365,0.06553831263722765,-0.000652334397099635
3.6009999999997144,0.06622442986750961,0.0007861413281381019
3.8009999999996924,0.06680652770411977,0.0023880366887443012
4.000999999999671,0.06764967531097282,0.0039196979021882405
4.200999999999738,0.06863407389384962,0.005204938859040193
4.400999999999804,0.06934804893788288,0.006378797691822095
4.600999999999871,0.07062890245737505,0.0077614638818166
4.800999999999938,0.07124695461846164,0.009496981851152738
5.000000000000004,0.07227593990086,0.01121910381051012
5.200000000000071,0.07343550878113494,0.012544388566577558
5.400000000000138,0.07407792047207801,0.014343868452402465
5.600000000000205,0.07534750699241237,0.015782804035195185
5.800000000000272,0.07662897136964862,0.01812256496695162
6.000000000000338,0.07803672454600208,0.01983537509099636
6.200000000000405,0.07968518825445273,0.022531423850115882
6.400000000000472,0.08087758340873588,0.024857757449773796
6.600000000000539,0.08277483150218311,0.026938601813787922
6.800000000000606,0.08444946220641045,0.0300509097330018
7.000000000000672,0.08603735298447505,0.03328781256589268
7.200000000000739,0.08800490622314673,0.03659351216419939
7.400000000000806,0.08962686056053708,0.04002358317066708
7.600000000000873,0.09165691423762978,0.0431689492928615
7.8000000000009395,0.09276374799894127,0.04634676601187568
8.000000000001005,0.09417778696513265,0.049511967703298104
8.200000000000895,0.09572374154917283,0.053193430457216265
8.400000000000784,0.09742115468827915,0.05689156004530915
8.600000000000673,0.0996958132524942,0.0611773938000904
8.800000000000562,0.10143432995738562,0.06478784081577307
9.000000000000451,0.103493583067103,0.06963688988186646
9.20000000000034,0.10529327911769217,0.07341957019202307
9.40000000000023,0.10733072123530853,0.07723501417359936
9.600000000000119,0.10911613572559292,0.08169617344979052
9.800000000000008,0.1111097513475797,0.08646934871792683
10.000999999999896,0.11249533803753263,0.09047560948204125
10.200999999999786,0.11474971143588583,0.09465515266836508
10.400999999999675,0.11642355090795646,0.0984900949420236
10.600999999999564,0.11883327661624023,0.10364050734383475
10.800999999999453,0.12085893915720466,0.10805934988848294
11.000999999999342,0.12305381311237307,0.11281710206974689
11.200999999999231,0.1254564118839071,0.11783942444069082
11.40099999999912,0.12763386671786053,0.1229404503978502
11.60099999999901,0.12945871911552526,0.12810206650613626
11.800999999998899,0.13160144165372123,0.13307594420957183
12.000999999998788,0.13394600135948537,0.13769163744976382
12.200999999998677,0.13624143780309933,0.14289580024699164
12.400999999998566,0.13857568403529077,0.14780507533056897
12.600999999998455,0.14118766335526214,0.15299669161660773
12.800999999998345,0.14299209744588956,0.15808301075995138
13.000999999998234,0.14543302846623185,0.16358947590564646
13.200999999998123,0.14849615865479096,0.16943981198708047
13.400999999998012,0.15120586723212684,0.17421233399346675
13.600999999997901,0.15321282016126223,0.17977893125845706
13.80099999999779,0.1556497980854925,0.18529890327825227
14.00099999999768,0.15794042421605733,0.19159672775378647
14.200999999997569,0.16025423015282142,0.1972631912820074
14.400999999997458,0.1628287663501259,0.20337624053616857
14.600999999997347,0.1651956300322712,0.20882860820034913
14.800999999997236,0.1680505373072026,0.21561612724497667
15.000999999997125,0.1707655193635696,0.22205689858310562
15.200999999997014,0.17380297986265839,0.22801935321893899
15.400999999996904,0.17705455493677905,0.23507373191865738
15.600999999996793,0.17995274407953474,0.2403257998039594
15.800999999996682,0.18342082027788809,0.24683132878788372
16.000999999996573,0.18642989918904132,0.2539283626025746
16.200999999996817,0.18890784885543377,0.25983012705532377
16.40099999999706,0.1915223331784826,0.2659574998569301
16.600999999997306,0.19336320315437086,0.2728695304434073
16.80099999999755,0.19602437134699915,0.2795737817693558
17.000999999997795,0.19798764951628875,0.2866922495318589
17.20099999999804,0.20043770588560378,0.2928847962534552
17.400999999998284,0.20268260538170269,0.2994440444964374
17.60099999999853,0.20551289076123103,0.30664866200239077
17.800999999998773,0.20811821909408235,0.3148378390106328
18.000999999999017,0.21052251831818045,0.3216938069287003
18.20099999999926,0.21332851672945286,0.32901863185053337
18.400999999999506,0.2153975117205229,0.33447843612207917
18.60099999999975,0.2175659814252043,0.3415015815220889
18.799999999999994,0.2205006399955974,0.34790978334288347
19.000000000000238,0.2230638194124445,0.35477983115708256
19.200000000000482,0.22571962642350882,0.36219371122466
19.400000000000727,0.22797971937657546,0.3693691107550203
19.60000000000097,0.23041349933829183,0.3769366054151725
19.800000000001216,0.23228809367712666,0.38356632318515116
20.00000000000146,0.23502875217580865,0.38970135452201543
