Time (s),X (m),Y (m)
0.001,0.0012355833006349724,0.00017906049427360518
0.20000000000000015,-0.0019354717204012797,-0.0004279039381334432
0.4000000000000003,-0.00759777796099188,-0.002690594521618941
0.6000000000000004,-0.006164489233426188,-0.0019495105262227876
0.8000000000000006,-0.006908068514983912,0.0018516538283345643
1.0000000000000007,0.003104421390996708,0.006901188993524864
1.2009999999999785,0.0009423347509909626,0.01345775192273654
1.4009999999999565,0.007836488990114927,0.020366057732385763
1.6009999999999345,0.004132231691829908,0.024561544725759256
1.8009999999999124,0.011365205466208932,0.028798711963842455
2.0009999999998906,0.03464902363891764,0.03311993431381786
2.2009999999998686,0.043492169918235866,0.0379153927822266
2.4009999999998466,0.05797070238377303,0.040002592409431534
2.6009999999998246,0.07355666199062245,0.036503566099818634
2.8009999999998025,0.09285663270251926,0.03463300688571393
3.0009999999997805,0.10576465435569195,0.030066889877022912
3.2009999999997585,0.12147786075214433,0.025210778738651643
3.4009999999997365,0.12962428894987582,0.01956688781707141
3.6009999999997144,0.13555377832580404,0.013921083055512401
3.8009999999996924,0.1520034794432637,0.009262703856975715
4.000999999999671,0.1716490221505779,0.003665276934126946
4.200999999999738,0.1959480598378964,0.0007896608630752752
4.400999999999804,0.21816900574690062,-0.008896778338080422
4.600999999999871,0.23823667922522762,-0.021939684414974955
4.800999999999938,0.2532272691528441,-0.03210720349785443
5.000000000000004,0.2648848584003538,-0.04471915036472094
5.200000000000071,0.27279290847754134,-0.047645707608823314
5.400000000000138,0.28492514665173513,-0.05097241389437267
5.600000000000205,0.2976938618354271,-0.058554156073599345
5.800000000000272,0.3086771626001945,-0.06122950937470301
6.000000000000338,0.324119617529957,-0.06334855841898102
6.200000000000405,0.3387245212579242,-0.07093443973086025
6.400000000000472,0.36325015145709066,-0.08010950508100273
6.600000000000539,0.37462038224416394,-0.08751029284565515
6.800000000000606,0.382891388672843,-0.09667914075119793
7.000000000000672,0.4004054515685636,-0.10511529576733304
7.200000000000739,0.42529622012737206,-0.11918323116729942
7.400000000000806,0.44336391844037865,-0.13139091465284228
7.600000000000873,0.4562579035018071,-0.13766863440877752
7.8000000000009395,0.462683974156386,-0.14392850663862003
8.000000000001005,0.47867439999170885,-0.15261985324371483
8.200000000000895,0.4954387236735731,-0.16218104113440118
8.400000000000784,0.5087974387236416,-0.17582211464730746
8.600000000000673,0.5219961391609608,-0.18243998971792458
8.800000000000562,0.5438812227396181,-0.1869359755312727
9.000000000000451,0.555773078098525,-0.19357605885634144
9.20000000000034,0.5693884105799726,-0.1980275667010831
9.40000000000023,0.5921362767451135,-0.20834797622248832
9.600000000000119,0.6120324300342279,-0.2228953872829422
9.800000000000008,0.6360463492948408,-0.23281797682411678
10.000999999999896,0.6549110365067766,-0.24961425810259844
10.200999999999786,0.6719462917007861,-0.25840805800251637
10.400999999999675,0.6874590478862226,-0.26740086679305636
10.600999999999564,0.7040574977139656,-0.279169208888932
10.800999999999453,0.7229924391000829,-0.29492713843159185
11.000999999999342,0.7466702491934719,-0.3121358911707774
11.200999999999231,0.7635623727059452,-0.3248910311679856
11.40099999999912,0.7848478470257099,-0.3370654397946644
11.60099999999901,0.8052107926083247,-0.3517566736099725
11.800999999998899,0.8261409648916949,-0.3643951854506147
12.000999999998788,0.8426391718480786,-0.37543642831412766
12.200999999998677,0.8605128626726158,-0.3860982621454536
12.400999999998566,0.8785635919398784,-0.3997538320703199
12.600999999998455,0.8903813736217037,-0.41069560027316904
12.800999999998345,0.9075734021584619,-0.4238093910068538
13.000999999998234,0.9302467641518329,-0.4359466113798115
13.200999999998123,0.9437555059181462,-0.44544436122405706
13.400999999998012,0.9598753081791637,-0.4556453841209799
13.600999999997901,0.976251423204464,-0.4699418456494615
13.80099999999779,1.0054489551366872,-0.49149735602355066
14.00099999999768,1.0260856205271514,-0.5098311882072313
14.200999999997569,1.0475647105433996,-0.5205954676397495
14.400999999997458,1.0719715995354797,-0.5335771904663645
14.600999999997347,1.1073434562108428,-0.5502044964965366
14.800999999997236,1.1322980458728138,-0.5651925741210523
15.000999999997125,1.153942114070117,-0.5754430428212862
15.200999999997014,1.1689613743732055,-0.5873664282296845
15.400999999996904,1.186013039579974,-0.6003156455679672
15.600999999996793,1.202954800759799,-0.6096777365920244
15.800999999996682,1.2187639104764147,-0.6114588015486281
16.000999999996573,1.233218980483549,-0.6146254124834101
16.200999999996817,1.2553056333217727,-0.62134424597729
16.40099999999706,1.272839390565237,-0.6353873133914075
16.600999999997306,1.3096931656495738,-0.6552712366521528
16.80099999999755,1.3366088426090255,-0.6726871445350812
17.000999999997795,1.3696964422392348,-0.6855179563592261
17.20099999999804,1.3986091461536048,-0.6990159749829814
17.400999999998284,1.4181253837559853,-0.7158311311467713
17.60099999999853,1.440575765237538,-0.73114271235587
17.800999999998773,1.4612241216483368,-0.7448006447468588
18.000999999999017,1.4881191737665245,-0.7637152768196859
18.20099999999926,1.5095122286587037,-0.7786055358849397
18.400999999999506,1.5252408049478752,-0.7869249550617633
18.60099999999975,1.53058306508333,-0.7945756268583235
18.799999999999994,1.5464241975471174,-0.8087392793598757
19.000000000000238,1.568264838735375,-0.8234367958756703
19.200000000000482,1.5835358813152025,-0.8363013445200933
19.400000000000727,1.6011467697684707,-0.8432829973894364
19.60000000000097,1.619397029305979,-0.8543661571252527
19.800000000001216,1.6483129684380033,-0.8685361347871384
20.00000000000146,1.6740655611867639,-0.886918514057985
