Time (s),X (m),Y (m)
0.001,-0.0002955033697106609,-0.00089301793395481
0.20000000000000015,0.006058850145408637,0.0054862227910698795
0.4000000000000003,0.011544580871926752,0.006450344416684497
0.6000000000000004,0.022620576647609292,0.011915686010865907
0.8000000000000006,0.044909717220425444,0.028050578694591616
1.0000000000000007,0.06683005802358416,0.04654093782989403
1.2009999999999785,0.0873976226787808,0.05381136720867425
1.4009999999999565,0.10890434962491893,0.06147516322375389
1.6009999999999345,0.1351630885378345,0.06558582829076373
1.8009999999999124,0.16612523287048891,0.07375752184202095
2.0009999999998906,0.2059211210763056,0.08364944749327118
2.2009999999998686,0.24030060912167597,0.0920826075700104
2.4009999999998466,0.27308045901381967,0.09677564226425564
2.6009999999998246,0.3044689016556796,0.09138936416877765
2.8009999999998025,0.3347431256858207,0.08479643402739992
3.0009999999997805,0.36254476242537104,0.07615220031703546
3.2009999999997585,0.3869620331560727,0.06468485081989087
3.4009999999997365,0.40902904278714464,0.06406888881674039
3.6009999999997144,0.4339410578555115,0.06122287649012231
3.8009999999996924,0.467087070879658,0.05701010589369151
4.000999999999671,0.4944202885283481,0.04714867035059316
4.200999999999738,0.5301576616116979,0.04219391626259068
4.400999999999804,0.5606783937387063,0.0356548951743866
4.600999999999871,0.5889256905709839,0.03642319198571119
4.800999999999938,0.6188731849554059,0.04291619928721476
5.000000000000004,0.6563259394406011,0.05400155777279502
5.200000000000071,0.6955617927701294,0.06274257129990816
5.400000000000138,0.7306962789926236,0.06418213509686052
5.600000000000205,0.7679234431249862,0.07938943024945647
5.800000000000272,0.8029172615751182,0.09015828889581853
6.000000000000338,0.8409442656271285,0.10135146801373468
6.200000000000405,0.876100413189392,0.10802258167426193
6.400000000000472,0.9085213120506821,0.10946089542689116
6.600000000000539,0.9490581952319775,0.1249853297321074
6.800000000000606,0.9888432920941514,0.13420305937476412
7.000000000000672,1.02632090608993,0.14277501244510393
7.200000000000739,1.0581426766645985,0.16185536516626295
7.400000000000806,1.0912421937969858,0.19126564710750246
7.600000000000873,1.1210899995892922,0.21357537123710957
7.8000000000009395,1.1576618565800072,0.24530509719388105
8.000000000001005,1.2003451699912318,0.271720686105202
8.200000000000895,1.2428053446094043,0.3016416932319165
8.400000000000784,1.2844259249810899,0.3297310053836226
8.600000000000673,1.3355278100280759,0.3600850891742998
8.800000000000562,1.3896845594814604,0.39254974518171903
9.000000000000451,1.434580870247149,0.4257317261311645
9.20000000000034,1.4796273966481646,0.4656428884399003
9.40000000000023,1.523799544620102,0.5018117927652576
9.600000000000119,1.5615670076809662,0.530382729931504
9.800000000000008,1.5977902482405797,0.5483278521075475
10.000999999999896,1.628250564206788,0.5604880747846943
10.200999999999786,1.658770639099276,0.5729493907586258
10.400999999999675,1.691170430681853,0.6015519456402857
10.600999999999564,1.7248818008741518,0.6393193276219893
10.800999999999453,1.759759810003755,0.667639834885958
11.000999999999342,1.797546203624554,0.6939812439638631
11.200999999999231,1.837437029265223,0.7285447912157145
11.40099999999912,1.8755099861830034,0.7530062596457588
11.60099999999901,1.913102119795114,0.760447775175699
11.800999999998899,1.9492082536937516,0.771554438726103
12.000999999998788,1.9836225907434977,0.7862883311679445
12.200999999998677,2.015230728683949,0.8045443508291923
12.400999999998566,2.047147414978113,0.8251981152841054
12.600999999998455,2.0788304853223956,0.8506797943807153
12.800999999998345,2.1079842273533727,0.8653386662965061
13.000999999998234,2.1366767370010384,0.8911452014214377
13.200999999998123,2.1648713742638432,0.9166991156895077
13.400999999998012,2.1848955232806535,0.9632890274457625
13.600999999997901,2.2105988588896457,1.001547093125884
13.80099999999779,2.2350957433830843,1.0248040251647668
14.00099999999768,2.2504073818096475,1.06658219651018
14.200999999997569,2.266870563027449,1.0992164129011746
14.400999999997458,2.2822363970079325,1.1377244717031292
14.600999999997347,2.2899392191675463,1.1836865373455394
14.800999999997236,2.293349999518922,1.2361967014393809
15.000999999997125,2.301247208137309,1.2839367037174187
15.200999999997014,2.3058288794440127,1.3314063310269968
15.400999999996904,2.307091899270659,1.3773606000959477
15.600999999996793,2.307721411483827,1.4255204396148065
15.800999999996682,2.309952387477645,1.4642220491577242
16.000999999996573,2.3181819463715736,1.5094052998148328
16.200999999996817,2.327846844348994,1.5362607356567293
16.40099999999706,2.3459356138928373,1.5512129019860759
16.600999999997306,2.3654190767660928,1.5652938299758699
16.80099999999755,2.38868304675545,1.5884500755105218
17.000999999997795,2.4141785360189845,1.5994372507722774
17.20099999999804,2.4456177961659957,1.6201966989074161
17.400999999998284,2.478168593502759,1.6508817192704324
17.60099999999853,2.5084706827758767,1.6809566821026531
17.800999999998773,2.535461263807846,1.7144143377350742
18.000999999999017,2.561842878686614,1.7461361287620105
18.20099999999926,2.595344409872506,1.761173595331282
18.400999999999506,2.622664464930169,1.7823657578582688
18.60099999999975,2.6442446064311484,1.81982928914229
18.799999999999994,2.653843806838735,1.8517030739452471
19.000000000000238,2.6649864508883225,1.8884131787836846
19.200000000000482,2.6753857736523563,1.933993656238248
19.400000000000727,2.6753775560770774,1.9797706592972815
19.60000000000097,2.684008158161566,2.024747139103745
19.800000000001216,2.6790226326578326,2.0825966782997383
20.00000000000146,2.667088375922521,2.1391489640120676
