Time (s),X (m),Y (m)
0.001,0.0011130987088041246,-0.000515584144559974
0.20000000000000015,0.0005960132470347046,0.0008051658835918258
0.4000000000000003,0.002615285975187866,0.00022608393440211807
0.6000000000000004,0.00228716327945736,0.0006699286804869613
0.8000000000000006,0.005135512265024111,-0.0007282901976556917
1.0000000000000007,0.00788083762496207,-0.002720672398955178
1.2009999999999785,0.010416199099440642,-0.0030793919613544417
1.4009999999999565,0.013015181912450805,-0.003948632572705982
1.6009999999999345,0.015741798482730218,-0.005100745758990828
1.8009999999999124,0.018338604116985225,-0.0060873777744692575
2.0009999999998906,0.020970317938647908,-0.0071859604032482195
2.2009999999998686,0.02347177902984078,-0.008271419363558212
2.4009999999998466,0.02625239444035532,-0.009271795172316771
2.6009999999998246,0.029617341945728317,-0.01038607664139222
2.8009999999998025,0.03242993367589765,-0.011406382832829121
3.0009999999997805,0.035534348448536104,-0.012500306406754593
3.2009999999997585,0.03830069698598612,-0.0133577511724157
3.4009999999997365,0.04118003360549062,-0.014293107974241047
3.6009999999997144,0.044686219252487634,-0.01503083531755973
3.8009999999996924,0.047641477245453034,-0.01595567539434476
4.000999999999671,0.05035256321422703,-0.016765883753585793
4.200999999999738,0.05329299734056514,-0.017409640350321557
4.400999999999804,0.05663522983178406,-0.01796803703334023
4.600999999999871,0.05928614056076588,-0.018735607113388487
4.800999999999938,0.061661799249169175,-0.01920869115459436
5.000000000000004,0.06423153430999415,-0.019624748927661605
5.200000000000071,0.06713080185884646,-0.019945195703745748
5.400000000000138,0.07031387522746668,-0.020475579074039865
5.600000000000205,0.07344078537601981,-0.020718391563065902
5.800000000000272,0.07618837497670061,-0.0211485403459903
6.000000000000338,0.07868229070488486,-0.021736091642277314
6.200000000000405,0.08102765396887102,-0.021877340753137145
6.400000000000472,0.08430336210718348,-0.021999722708531174
6.600000000000539,0.08753659620196258,-0.022174227091635704
6.800000000000606,0.09101422243045895,-0.022072047983009175
7.000000000000672,0.09354205543889367,-0.02208799773067874
7.200000000000739,0.09612314628622522,-0.022365809320240522
7.400000000000806,0.09894302108103938,-0.022116552741364013
7.600000000000873,0.10157567489822468,-0.02228361319671045
7.8000000000009395,0.10411064544835426,-0.022328156111037476
8.000000000001005,0.10696742753644799,-0.022156347018872924
8.200000000000895,0.10903805676595078,-0.022204359705990516
8.400000000000784,0.11136163188331848,-0.022172217572542435
8.600000000000673,0.11379019245988832,-0.022019847976032406
8.800000000000562,0.11653068953801671,-0.021539683043192932
9.000000000000451,0.11909454645126981,-0.02089509123250905
9.20000000000034,0.12173252857521463,-0.02013461675656421
9.40000000000023,0.12453542209717343,-0.018987966768986512
9.600000000000119,0.12733761825425977,-0.01780931027895224
9.800000000000008,0.13023474440458047,-0.01649140624383353
10.000999999999896,0.13308770373435433,-0.015079069210017528
10.200999999999786,0.13587941509150347,-0.013484978920888933
10.400999999999675,0.13840613672942095,-0.011849355311477185
10.600999999999564,0.14103962598922623,-0.010187399201269438
10.800999999999453,0.1438277276482343,-0.008328110028577253
11.000999999999342,0.1466195866253638,-0.006523058242515408
11.200999999999231,0.14937991850645138,-0.004565909848212196
11.40099999999912,0.15203118311309005,-0.002526957848257491
11.60099999999901,0.15456621292064276,-0.0003628380488782411
11.800999999998899,0.15687257233052357,0.001855849987180767
12.000999999998788,0.15936146111590765,0.0043167304803078625
12.200999999998677,0.16146510966152552,0.006814447636678286
12.400999999998566,0.16372537341289464,0.00947976511728667
12.600999999998455,0.1654848922490506,0.012160749314342951
12.800999999998345,0.16573991575948965,0.019700387009941006
13.000999999998234,0.16599092471819424,0.02764861784324623
13.200999999998123,0.16707480011225587,0.03637057766039496
13.400999999998012,0.16735793333577065,0.044838639203659617
13.600999999997901,0.16816348633876396,0.05368666808447402
13.80099999999779,0.16797390676676438,0.061961075147168976
14.00099999999768,0.16770057470802555,0.06989959132623474
14.200999999997569,0.1674484536433154,0.07870678552585769
14.400999999997458,0.16714458091578113,0.0863602776346249
14.600999999997347,0.16577349463052488,0.0943780177620848
14.800999999997236,0.16490057517978213,0.10206924380471699
15.000999999997125,0.16315088631823357,0.10939076442549342
15.200999999997014,0.162137438744687,0.11724420524531545
15.400999999996904,0.16033357008423393,0.12357434943962364
15.600999999996793,0.1592404929789283,0.13111063755893865
15.800999999996682,0.15691372700115214,0.13744890211812572
16.000999999996573,0.15520025936721268,0.14516227927470157
16.200999999996817,0.15273403234298405,0.1519434811997534
16.40099999999706,0.1504519044153645,0.15847322028406483
16.600999999997306,0.1478125568674288,0.1648111663365552
16.80099999999755,0.14556761133257798,0.17152158453332123
17.000999999997795,0.14219733626255335,0.17676370305315905
17.20099999999804,0.13931415186992266,0.1822013600922057
17.400999999998284,0.1361913437578776,0.18839641360442083
17.60099999999853,0.13332765873920766,0.1936229184824314
17.800999999998773,0.1299197061939173,0.19893264108159753
18.000999999999017,0.12684374747581043,0.20355915797088428
18.20099999999926,0.12317029372374201,0.2077137608056928
18.400999999999506,0.12021796898394631,0.21215325676135466
18.60099999999975,0.1163424428968554,0.2163621299319282
18.799999999999994,0.11292790236966198,0.22068277695763136
19.000000000000238,0.1090110232175092,0.22383729904890637
19.200000000000482,0.10557212273730539,0.2276956041041542
19.400000000000727,0.1015240712730601,0.23063336860735917
19.60000000000097,0.09812060182796414,0.23448945091699716
19.800000000001216,0.0940365151586841,0.23713737132003554
20.00000000000146,0.0903004071011806,0.24037111851116574
