Time (s),X (m),Y (m)
0.001,-0.0007144750753253542,0.00043579054991000265
0.20000000000000015,0.004820411616427541,-0.0018967947290652958
0.4000000000000003,0.009626390898639477,-0.0036806932530489564
0.6000000000000004,0.011074364161271772,-0.0016913379983312146
0.8000000000000006,0.012638039271331896,-0.0007378354130786176
1.0000000000000007,0.01654764993472928,-0.002489450043123782
1.2009999999999785,0.02043088283730051,-0.0036384542505024575
1.4009999999999565,0.023260528428809765,-0.005673891481476776
1.6009999999999345,0.027558957697230428,-0.008260319457599197
1.8009999999999124,0.0313928071640026,-0.0098835109447396
2.0009999999998906,0.032350691363690474,-0.007893491880133973
2.2009999999998686,0.03129738061201011,-0.00439645533683398
2.4009999999998466,0.030507860680390148,-0.0012978028918480156
2.6009999999998246,0.029395954301639347,0.001995791476256644
2.8009999999998025,0.028200140114417405,0.00515740900142895
3.0009999999997805,0.027111000995585957,0.00814690403799365
3.2009999999997585,0.02615593776929611,0.010745332432785165
3.4009999999997365,0.02540437610882757,0.013538747287011887
3.6009999999997144,0.02449561820702448,0.01633169099825676
3.8009999999996924,0.023520308724413165,0.01908469526777375
4.000999999999671,0.02293750110544753,0.02149940160848322
4.200999999999738,0.022346677229473644,0.024086805092674572
4.400999999999804,0.02169577938854339,0.02647449294972998
4.600999999999871,0.020975082314186166,0.02891927545715533
4.800999999999938,0.020256220644429734,0.03137192517777493
5.000000000000004,0.01953117455567113,0.03383041206052833
5.200000000000071,0.01882973315228842,0.036313909849486146
5.400000000000138,0.01822428108216568,0.03872084542745995
5.600000000000205,0.01793752574132911,0.040974741038733165
5.800000000000272,0.01735438187908568,0.043522566412907394
6.000000000000338,0.01707646552376601,0.04602207742487903
6.200000000000405,0.016709090425063335,0.04841774868476126
6.400000000000472,0.016468152404295375,0.05056084670903166
6.600000000000539,0.015889972315285737,0.0534612607434247
6.800000000000606,0.015458107103648913,0.05595967004757201
7.000000000000672,0.015282259817547562,0.05807676606828202
7.200000000000739,0.015019238678704298,0.060417744612719586
7.400000000000806,0.014638586174548761,0.0629448964683205
7.600000000000873,0.014664345743101069,0.06539795342214523
7.8000000000009395,0.014149150099019386,0.06795778317764861
8.000000000001005,0.013807457918774487,0.07084999382001864
8.200000000000895,0.013765635113937316,0.07349054596523065
8.400000000000784,0.013633967448378175,0.07598758884750369
8.600000000000673,0.013041405128996352,0.07875658591178512
8.800000000000562,0.012599628829594053,0.08150265779908276
9.000000000000451,0.012036415273234697,0.08426071630406479
9.20000000000034,0.011580909430907714,0.0871444333860733
9.40000000000023,0.011017762929101333,0.08999481202022368
9.600000000000119,0.010771265178834104,0.09304154003050734
9.800000000000008,0.010402515285574688,0.0960904817302949
10.000999999999896,0.010163607670908755,0.09946863000201443
10.200999999999786,0.00972061702016482,0.10292012812947395
10.400999999999675,0.009681350429499615,0.1068201833950216
10.600999999999564,0.009469032451890805,0.11081039364212802
10.800999999999453,0.009071124273390851,0.11481522136790058
11.000999999999342,0.00909311993941239,0.1188945224374098
11.200999999999231,0.009094511863625757,0.12306748335989909
11.40099999999912,0.008696423946115408,0.12667781532368036
11.60099999999901,0.008009983979006539,0.13021873003736742
11.800999999998899,0.007830534262376294,0.1343695713355818
12.000999999998788,0.007659069551306957,0.1383344687227152
12.200999999998677,0.007588327884583663,0.142652537150959
12.400999999998566,0.007383971156545038,0.14689106980408526
12.600999999998455,0.006872938825237675,0.1513192268050795
12.800999999998345,0.0063833071134491584,0.15569417498826812
13.000999999998234,0.005821975615701351,0.15997275536237937
13.200999999998123,0.0052628824886399965,0.16430926472828533
13.400999999998012,0.004749231142366867,0.16880480882968038
13.600999999997901,0.004276221259943065,0.1734519430457367
13.80099999999779,0.003999284162026236,0.17840088882735883
14.00099999999768,0.00411051247724204,0.18378457653675878
14.200999999997569,0.004700862953473646,0.18868993512910545
14.400999999997458,0.004995697857488594,0.19288714680338445
14.600999999997347,0.005224742275171038,0.19689648096910933
14.800999999997236,0.005277254490778032,0.20155873765534557
15.000999999997125,0.005772739785154676,0.20652312876496062
15.200999999997014,0.006399892400752063,0.21162827304813112
15.400999999996904,0.00705054757097458,0.21658157803258182
15.600999999996793,0.007883218457684669,0.22215804576384215
15.800999999996682,0.008885402357229418,0.22787309308532225
16.000999999996573,0.009937814775541861,0.23319428151894514
16.200999999996817,0.010490527193950314,0.23872027618804664
16.40099999999706,0.011235020120762043,0.24450878490394376
16.600999999997306,0.011343812273817465,0.24988683263309386
16.80099999999755,0.011823782807469804,0.25564701712372434
17.000999999997795,0.011491648484675768,0.261371435103915
17.20099999999804,0.011498222254809296,0.26683615974319985
17.400999999998284,0.01137854251459183,0.2724851681246684
17.60099999999853,0.011512536540429536,0.2783725040968146
17.800999999998773,0.012145408236598366,0.2843874965799343
18.000999999999017,0.012241802152779105,0.29023296852025454
18.20099999999926,0.012634016386317694,0.2964831809261401
18.400999999999506,0.012101440581349933,0.3021473647103676
18.60099999999975,0.012179708915980242,0.30804187041755193
18.799999999999994,0.011521961421093099,0.3136419349236882
19.000000000000238,0.011015674810765597,0.3192557942844037
19.200000000000482,0.010239093491722157,0.3244162184501392
19.400000000000727,0.009777477764191777,0.3298187578193127
19.60000000000097,0.009010403677542859,0.33513131315167394
19.800000000001216,0.00791960570752083,0.34058236554966886
20.00000000000146,0.006997081055912427,0.3457757886704467
