Time (s),X (m),Y (m)
0.001,4.1020280575708355e-05,0.0010155025257856582
0.20000000000000015,0.0017760764300350925,-0.0022743438671231006
0.4000000000000003,0.0035916935312819277,0.0060992176432115765
0.6000000000000004,0.009641360784579917,0.009660508128692473
0.8000000000000006,0.02427793620697787,-0.00027967630994126723
1.0000000000000007,0.045409739957116294,-0.013175902496026437
1.2009999999999785,0.06992689347474361,-0.03534918180117695
1.4009999999999565,0.09591364443075714,-0.044593863190440806
1.6009999999999345,0.11158282071202302,-0.07159828680158883
1.8009999999999124,0.13126597013540459,-0.09164310520535544
2.0009999999998906,0.15090622465044887,-0.10324105997647619
2.2009999999998686,0.16949542117169503,-0.1214848167906037
2.4009999999998466,0.19228058258786704,-0.14797123434773848
2.6009999999998246,0.22209266834413072,-0.1451040582314033
2.8009999999998025,0.2513595036350408,-0.14455069195473005
3.0009999999997805,0.28069126096680247,-0.1522320666267282
3.2009999999997585,0.3108151070435731,-0.1603149496854399
3.4009999999997365,0.3305154749765777,-0.17677185792034406
3.6009999999997144,0.3546363024714979,-0.19633725969551666
3.8009999999996924,0.3860047188025277,-0.20433596418235353
4.000999999999671,0.4195370383253366,-0.21002559365526707
4.200999999999738,0.44815481742923197,-0.21873476590697194
4.400999999999804,0.47500911974980903,-0.22551051241412037
4.600999999999871,0.5005306229959581,-0.23889894933730677
4.800999999999938,0.5280355154236211,-0.2607855439494018
5.000000000000004,0.5521974114372823,-0.28367016217244423
5.200000000000071,0.5761624389434483,-0.29813328262841754
5.400000000000138,0.5987525141682678,-0.3162685520344482
5.600000000000205,0.630996039131351,-0.33468959034770784
5.800000000000272,0.6672322839939031,-0.33622893417898697
6.000000000000338,0.703850883704299,-0.3431038151055063
6.200000000000405,0.7396359345740852,-0.35155571804551217
6.400000000000472,0.7720614313126546,-0.3584787594486107
6.600000000000539,0.7962799499919669,-0.3977791337267094
6.800000000000606,0.8206104754930418,-0.43933294999211864
7.000000000000672,0.8532715497786674,-0.46299851189975283
7.200000000000739,0.8790506882970078,-0.49752074437659516
7.400000000000806,0.9032717412200362,-0.5312180484727708
7.600000000000873,0.9303138210266025,-0.5579237481027889
7.8000000000009395,0.9519078670386868,-0.585454451707623
8.000000000001005,0.9652813304926309,-0.6209085215506177
8.200000000000895,0.9884482211221143,-0.6545032926864105
8.400000000000784,1.0222489429270516,-0.6833452290087396
8.600000000000673,1.0571975797918134,-0.706186492874182
8.800000000000562,1.0907044714186638,-0.728312593400665
9.000000000000451,1.1169019986987772,-0.748435835552278
9.20000000000034,1.1220393554231045,-0.7715683436979047
9.40000000000023,1.1351822266157412,-0.8037381516324194
9.600000000000119,1.1329894753870924,-0.8461006057516246
9.800000000000008,1.1322082023499238,-0.8786558295063164
10.000999999999896,1.1243836503199742,-0.9069372096352291
10.200999999999786,1.1151445713636414,-0.9342459709688627
10.400999999999675,1.1090527450649363,-0.9601498392876787
10.600999999999564,1.1033626773498384,-0.9904001998888315
10.800999999999453,1.0849306456621728,-1.0213100034292049
11.000999999999342,1.045209802715624,-1.049835691815595
11.200999999999231,1.0124254726830648,-1.0847343090698576
11.40099999999912,1.0081467337165595,-1.124125181846677
11.60099999999901,0.9983871331426937,-1.1604973486735795
11.800999999998899,0.9705062887127105,-1.1884619261801284
12.000999999998788,0.9299306041133882,-1.2170428629352217
12.200999999998677,0.8918461631252519,-1.2396709231671474
12.400999999998566,0.8452106576872631,-1.2613810039455298
12.600999999998455,0.8124070393122406,-1.287105834985489
12.800999999998345,0.7841292566622148,-1.3053186251253859
13.000999999998234,0.7510901908268854,-1.325753678055655
13.200999999998123,0.7211034723379626,-1.3262287764318013
13.400999999998012,0.7001500368243986,-1.3124728016305192
13.600999999997901,0.6791187557216097,-1.2918027620613555
13.80099999999779,0.6565744455828377,-1.2690613494212835
14.00099999999768,0.6523564760207233,-1.245244594704792
14.200999999997569,0.648516553912862,-1.2237278212113343
14.400999999997458,0.6460824958793627,-1.1950640322082826
14.600999999997347,0.6462969795177915,-1.1617218067757316
14.800999999997236,0.6582998908900222,-1.1253835660410454
15.000999999997125,0.6612969178729076,-1.089698724694721
15.200999999997014,0.6522397161803923,-1.0514356250288075
15.400999999996904,0.6480893604181246,-1.0152324168484246
15.600999999996793,0.6676696374321383,-0.9865173267596915
15.800999999996682,0.6810762939384191,-0.9511651682185835
16.000999999996573,0.6958082724619193,-0.9198792100527605
16.200999999996817,0.691434293110301,-0.889610748426572
16.40099999999706,0.7127326095427521,-0.8595114779316142
16.600999999997306,0.7235710262127657,-0.8286461216826545
16.80099999999755,0.7486257593830992,-0.7961198562526332
17.000999999997795,0.771541405599227,-0.7680982820363501
17.20099999999804,0.7891489803168288,-0.738821137787224
17.400999999998284,0.8237974414930792,-0.7117775564907055
17.60099999999853,0.8559842616588074,-0.6867365340173845
17.800999999998773,0.8680746018804806,-0.658053961592097
18.000999999999017,0.9026101905662406,-0.63169027155312
18.20099999999926,0.9442586282231943,-0.621132253763058
18.400999999999506,0.977794590846116,-0.6019633123404824
18.60099999999975,1.0120897319270616,-0.5791433288844778
18.799999999999994,1.044200051516487,-0.5648294912606767
19.000000000000238,1.0801787144054333,-0.5498124035661579
19.200000000000482,1.1040619048944447,-0.5268219794741572
19.400000000000727,1.113035634387703,-0.5059043486196575
19.60000000000097,1.1243756602582713,-0.4804551702770597
19.800000000001216,1.1386819134374362,-0.4496410360854941
20.00000000000146,1.1651336853003285,-0.4232333267800692
