Time (s),X (m),Y (m)
0.001,-0.0007489004572251305,0.00035268032603768894
0.20000000000000015,0.0026821129912560095,-0.0011738932393661878
0.4000000000000003,0.008898560328258755,-0.0028131920547366206
0.6000000000000004,0.01955444128802732,-0.007006337273544236
0.8000000000000006,0.02781651377667649,-0.012924911125758621
1.0000000000000007,0.03577807915205738,-0.01699026261443635
1.2009999999999785,0.038606894160169686,-0.01925713517573944
1.4009999999999565,0.04225527101189827,-0.021116516593451297
1.6009999999999345,0.05051083374138611,-0.02332526266001354
1.8009999999999124,0.04994528685897501,-0.022339586141945953
2.0009999999998906,0.0578595098093529,-0.018828058660300958
2.2009999999998686,0.07266145244538125,-0.017803378946788333
2.4009999999998466,0.0809149650167491,-0.016144481520427592
2.6009999999998246,0.08651311634252166,-0.008171973072155675
2.8009999999998025,0.0988860419003083,-0.00849611647354399
3.0009999999997805,0.1142436050979051,-0.014378866702464322
3.2009999999997585,0.1368997958929795,-0.02015943593652405
3.4009999999997365,0.155780987066654,-0.026596811586944356
3.6009999999997144,0.1751104522574216,-0.030946603754087053
3.8009999999996924,0.1981258744142372,-0.041530165009936414
4.000999999999671,0.2178711614141709,-0.051639789047294916
4.200999999999738,0.2335785619739799,-0.055790363133393535
4.400999999999804,0.25553457569375093,-0.06124663019420221
4.600999999999871,0.2755046443714131,-0.06281198174892054
4.800999999999938,0.2956730001030902,-0.06679290056589147
5.000000000000004,0.30556284737176426,-0.06958260120114203
5.200000000000071,0.32090374653688397,-0.07864541976503352
5.400000000000138,0.34881292954070403,-0.08611840698900741
5.600000000000205,0.3660237791143885,-0.09606549368209287
5.800000000000272,0.38454999730969175,-0.10657528845833122
6.000000000000338,0.39439863541493486,-0.10602341278221546
6.200000000000405,0.40993487583427135,-0.10662571690252952
6.400000000000472,0.4347503550088201,-0.11404035481759237
6.600000000000539,0.45825978992226607,-0.12113782614310081
6.800000000000606,0.48764993508153337,-0.12733799957992425
7.000000000000672,0.5161402165313234,-0.1350046114262649
7.200000000000739,0.5408429850256616,-0.14437415034023582
7.400000000000806,0.5664312333003573,-0.15104232616493027
7.600000000000873,0.5905154079703279,-0.15699709950923013
7.8000000000009395,0.6181544153516201,-0.1628970443545381
8.000000000001005,0.6431011782080915,-0.16845408375253465
8.200000000000895,0.6712895356606625,-0.17689092933997624
8.400000000000784,0.6874477643138888,-0.18760047194179852
8.600000000000673,0.7055215554286656,-0.19668575616855513
8.800000000000562,0.7198170499398159,-0.19937576589467854
9.000000000000451,0.7399205051464346,-0.20782622284570038
9.20000000000034,0.7654073187486486,-0.22118627753935174
9.40000000000023,0.7894351464063023,-0.2336267120068003
9.600000000000119,0.8089820904216608,-0.24081001119346823
9.800000000000008,0.8242154412627868,-0.24609130211682345
10.000999999999896,0.8450431034576438,-0.25944654929081806
10.200999999999786,0.8675551981269857,-0.2736673662477693
10.400999999999675,0.8853933126992795,-0.2856745827442622
10.600999999999564,0.9081334227635554,-0.2952805249258893
10.800999999999453,0.9263239776638086,-0.30248147524132585
11.000999999999342,0.9414700966230527,-0.3218073902387661
11.200999999999231,0.9627395633963005,-0.33924488363684746
11.40099999999912,0.9812709812275348,-0.3536071125718586
11.60099999999901,0.9967232136175791,-0.37373476663286576
11.800999999998899,1.0146004752344178,-0.3899042137241958
12.000999999998788,1.0402548954757207,-0.4126559009260794
12.200999999998677,1.0664770069757723,-0.42787647094074543
12.400999999998566,1.0810289241327231,-0.44250897544679685
12.600999999998455,1.0949010137546875,-0.46604163748430766
12.800999999998345,1.1049607442867073,-0.4868929332869872
13.000999999998234,1.1115020281655716,-0.5108209770677243
13.200999999998123,1.1118700216330268,-0.5358626715009033
13.400999999998012,1.1096946160399468,-0.5562381640006524
13.600999999997901,1.1037105919160217,-0.5821594002573961
13.80099999999779,1.0991162445604024,-0.6041560243890824
14.00099999999768,1.0955881343149723,-0.6259812140796945
14.200999999997569,1.0899394963736597,-0.6504655351785318
14.400999999997458,1.0852677741971029,-0.6735069793789593
14.600999999997347,1.077791543441213,-0.699223008567461
14.800999999997236,1.0729646441732141,-0.7233027764371579
15.000999999997125,1.0640391624312773,-0.752146027105392
15.200999999997014,1.0542456750370959,-0.7806084296402471
15.400999999996904,1.0513693408955305,-0.80232873792834
15.600999999996793,1.0429842016428101,-0.8266877566399924
15.800999999996682,1.0372892076322406,-0.8454500073690605
16.000999999996573,1.0276763766037202,-0.8718268831040409
16.200999999996817,1.0224727092107095,-0.8883282089339422
16.40099999999706,1.0110956258117472,-0.914223408156262
16.600999999997306,0.9952760894161997,-0.9447240907442719
16.80099999999755,0.9847114892805514,-0.9680917119585049
17.000999999997795,0.9673121840603258,-0.9953307008961048
17.20099999999804,0.9523616296856728,-1.0236628860387467
17.400999999998284,0.9430728716911448,-1.0458412282054992
17.60099999999853,0.9267365106577341,-1.0672886573798035
17.800999999998773,0.9055549049050997,-1.0883349785878498
18.000999999999017,0.8913016899053808,-1.1100030797393614
18.20099999999926,0.8797460778575076,-1.1266518203417166
18.400999999999506,0.8731371812852622,-1.142488786061425
18.60099999999975,0.8625560540473145,-1.1509907022462254
18.799999999999994,0.8443689153918474,-1.1575606408505428
19.000000000000238,0.8254222972198664,-1.1672694388774738
19.200000000000482,0.8031085212657106,-1.1721833637996057
19.400000000000727,0.7830332870579,-1.1777205671083864
19.60000000000097,0.7595822092223492,-1.1808179673585486
19.800000000001216,0.7402961999417198,-1.1788100204766787
20.00000000000146,0.7283377585755499,-1.1772787599945187
