Time (s),X (m),Y (m)
0.001,0.0006558713247593165,-0.0009345558501746678
0.20000000000000015,0.001819346678189355,-0.0007692917651779884
0.4000000000000003,0.006872240773187321,-0.007705038536372944
0.6000000000000004,0.009374444879167942,-0.008906856991309596
0.8000000000000006,0.011240173024213247,-0.00912723306514219
1.0000000000000007,0.01271885081533933,-0.009840010923626363
1.2009999999999785,0.014217491704894326,-0.010630790448084612
1.4009999999999565,0.016095514999921245,-0.013419143742350877
1.6009999999999345,0.017465649900565296,-0.015518797526217775
1.8009999999999124,0.01797895886151183,-0.016524318138075974
2.0009999999998906,0.018426906048647093,-0.017406044323147615
2.2009999999998686,0.018951184466479972,-0.018165808185012792
2.4009999999998466,0.019527227601386293,-0.019063424000878335
2.6009999999998246,0.019993217266739555,-0.019621443767290178
2.8009999999998025,0.020600122621211758,-0.020476516495626155
3.0009999999997805,0.02117185449487984,-0.021213214356659967
3.2009999999997585,0.02184887044776025,-0.02220261731723804
3.4009999999997365,0.02263801590274435,-0.02343468233182051
3.6009999999997144,0.02349791384336149,-0.024761742972373844
3.8009999999996924,0.02437932103144772,-0.02611574081848995
4.000999999999671,0.02518589560362992,-0.027234783356277735
4.200999999999738,0.026170484148344973,-0.02869776620333705
4.400999999999804,0.027162205280854796,-0.030167587126594144
4.600999999999871,0.028221001030194898,-0.03168079410336769
4.800999999999938,0.029200709503488978,-0.033054143746268555
5.000000000000004,0.03017731215648098,-0.03440561749919087
5.200000000000071,0.031341965484847814,-0.03596829528499908
5.400000000000138,0.032473771748107665,-0.03748690118191796
5.600000000000205,0.03351640062690618,-0.038789530023362155
5.800000000000272,0.03456212542058861,-0.040139528046855846
6.000000000000338,0.03562004874455298,-0.04143034131421841
6.200000000000405,0.03666308505658901,-0.04274676697343062
6.400000000000472,0.03770134242870802,-0.0440043648358399
6.600000000000539,0.038726113989853546,-0.045255252496553273
6.800000000000606,0.039828983713055544,-0.04655726482391326
7.000000000000672,0.04083237508682953,-0.047765185273960536
7.200000000000739,0.041898312560097364,-0.048984315456566875
7.400000000000806,0.04287930495892206,-0.05011526563677791
7.600000000000873,0.04386641912656864,-0.05121970526042798
7.8000000000009395,0.0448471417226623,-0.05231049950092584
8.000000000001005,0.04577827168394493,-0.05328014211779725
8.200000000000895,0.046795870856934166,-0.05440751915299259
8.400000000000784,0.047824842242454084,-0.055536903710248046
8.600000000000673,0.04877396416592748,-0.05650259237232399
8.800000000000562,0.049731655880580365,-0.05750966774289553
9.000000000000451,0.050755007670542675,-0.05858321540365683
9.20000000000034,0.05175536258714407,-0.05961432671630089
9.40000000000023,0.05272924941031511,-0.06059055823484121
9.600000000000119,0.05370195365090598,-0.061538220189755195
9.800000000000008,0.05470950755190566,-0.06253507195846962
10.000999999999896,0.055749644233592036,-0.06353364470411234
10.200999999999786,0.05677692934494373,-0.06449922142851519
10.400999999999675,0.057809718088889815,-0.06545493486311822
10.600999999999564,0.05886261199479987,-0.06642167488608733
10.800999999999453,0.059887199821781076,-0.0673515610061467
11.000999999999342,0.06095522040472062,-0.06831490727918876
11.200999999999231,0.06202876673245992,-0.06923565780120837
11.40099999999912,0.06309745997061839,-0.0701618896216059
11.60099999999901,0.06415935998924034,-0.07106926852932645
11.800999999998899,0.06523270349928523,-0.07195453710555351
12.000999999998788,0.06631384384880432,-0.07283174413139247
12.200999999998677,0.06747065014347133,-0.07374173097648551
12.400999999998566,0.06857039857938457,-0.07459119571211048
12.600999999998455,0.0697149613994186,-0.07546964133185495
12.800999999998345,0.07072890699889775,-0.07624728684095185
13.000999999998234,0.07174845166895627,-0.07701448730718989
13.200999999998123,0.07277397927365051,-0.07777297810678152
13.400999999998012,0.07375961472943945,-0.07848084594785525
13.600999999997901,0.07479501158768671,-0.07922079054409861
13.80099999999779,0.07582743254926116,-0.07994253772442225
14.00099999999768,0.07687119704588401,-0.08065543027423634
14.200999999997569,0.07792215562165762,-0.08135947260849395
14.400999999997458,0.0789830579878666,-0.08205459892969885
14.600999999997347,0.08004989150509306,-0.08274091837164835
14.800999999997236,0.08117065247982284,-0.08343697851322354
15.000999999997125,0.0822934380377496,-0.08412344065145146
15.200999999997014,0.08344864311934003,-0.08480431564809306
15.400999999996904,0.08465677599900462,-0.0855197904476252
15.600999999996793,0.08584305836129703,-0.08617917168604206
15.800999999996682,0.08706338686297321,-0.0868683422507256
16.000999999996573,0.08829361236098568,-0.08752675139384973
16.200999999996817,0.0894897573131966,-0.0881442353759085
16.40099999999706,0.09072988551626437,-0.08878570809314343
16.600999999997306,0.09191404052559275,-0.08936946599978798
16.80099999999755,0.09315274877956352,-0.08996659173171995
17.000999999997795,0.0943997163875737,-0.09055149080857282
17.20099999999804,0.09557368444011859,-0.09108686404310268
17.400999999998284,0.09675607448739273,-0.09161927199584374
17.60099999999853,0.09792424772190544,-0.09211318283651754
17.800999999998773,0.09909534928248506,-0.09261326444243201
18.000999999999017,0.10026492275113115,-0.09307664367841824
18.20099999999926,0.10144374937002479,-0.09353542706922859
18.400999999999506,0.10258707191042211,-0.09397097905969604
18.60099999999975,0.10378281003144996,-0.09442793515695005
18.799999999999994,0.10486915343230829,-0.09480467469235243
19.000000000000238,0.10598465980764518,-0.09519813940813478
19.200000000000482,0.10714814104656464,-0.09557732997322224
19.400000000000727,0.10826186519062765,-0.09595119902560426
19.60000000000097,0.10935503294437333,-0.09629523094710807
19.800000000001216,0.11044448182122277,-0.09662512703331419
20.00000000000146,0.11155677809761347,-0.09694821256644283
