Time (s),X (m),Y (m)
0.001,-0.0006246028371892732,0.000591453832551625
0.20000000000000015,0.004689724194025844,-0.0009274403693604684
0.4000000000000003,0.015832802518421285,-0.007503474216135285
0.6000000000000004,0.03836552860903043,-0.008713299966032774
0.8000000000000006,0.07149125035316435,-0.012241061155110672
1.0000000000000007,0.11139171734507762,-0.012481314575741994
1.2009999999999785,0.15638588092153366,-0.02215338704712849
1.4009999999999565,0.20319362941542485,-0.022799122130950835
1.6009999999999345,0.24844228226742907,-0.027593558719412103
1.8009999999999124,0.28253440706030913,-0.04869543736052932
2.0009999999998906,0.3111185953241158,-0.07665466788181166
2.2009999999998686,0.32733554264346476,-0.11193170402345928
2.4009999999998466,0.331051250689188,-0.16101294503476385
2.6009999999998246,0.3240307531159039,-0.21308969158319008
2.8009999999998025,0.28985672851834615,-0.27149149235398423
3.0009999999997805,0.2425553528236216,-0.3234764925612744
3.2009999999997585,0.1795391747765884,-0.34053513973460764
3.4009999999997365,0.11839019250553252,-0.32618601303663647
3.6009999999997144,0.07445240539426397,-0.28108404932114056
3.8009999999996924,0.036993415065491156,-0.2369777972332409
4.000999999999671,0.01731129592032696,-0.18959888376845052
4.200999999999738,0.025165221397688446,-0.13741220144136737
4.400999999999804,0.053302035277378486,-0.0803066099927642
4.600999999999871,0.08794753315049553,-0.011367068587160918
4.800999999999938,0.11868165056963652,0.05716392343895837
5.000000000000004,0.1647317417116768,0.11736641126133433
5.200000000000071,0.22067997582454446,0.15545442740025983
5.400000000000138,0.28297703087543263,0.16899268483634988
5.600000000000205,0.3413371242348794,0.1761643564426379
5.800000000000272,0.3933206931162442,0.15943194367084113
6.000000000000338,0.41982212247820533,0.12899263647112286
6.200000000000405,0.4057223117661439,0.09788969857589581
6.400000000000472,0.3725082043287377,0.0899833689341594
6.600000000000539,0.3321063724833395,0.10427843137293012
6.800000000000606,0.3070223026685744,0.1419606226348717
7.000000000000672,0.2976337013312852,0.18252335708576267
7.200000000000739,0.28446094673713074,0.22392672927976018
7.400000000000806,0.2895711767466533,0.2729523872066419
7.600000000000873,0.3067764860364215,0.32724317133066694
7.8000000000009395,0.3411338278640259,0.36821147068285137
8.000000000001005,0.3857326250237897,0.3893606149082194
8.200000000000895,0.4386578762489646,0.3865912650666592
8.400000000000784,0.4968919151225145,0.36580367942979664
8.600000000000673,0.5462611438553354,0.3459704879842439
8.800000000000562,0.5802202098497719,0.319673690799892
9.000000000000451,0.5920975462712268,0.27890396375230464
9.20000000000034,0.5954248346924738,0.23322308705567435
9.40000000000023,0.5719070177443892,0.19281683412635076
9.600000000000119,0.5341259020893996,0.16144643858894708
9.800000000000008,0.4753715349645126,0.15036095807528796
10.000999999999896,0.4066044129598982,0.1611518646033923
10.200999999999786,0.3417458436249018,0.18651021931716977
10.400999999999675,0.27280729974039714,0.21686112311949982
10.600999999999564,0.20891833953723613,0.23887254149263537
10.800999999999453,0.16728370050909486,0.28926936262380437
11.000999999999342,0.14446989399889454,0.34180971862076864
11.200999999999231,0.16128930848997636,0.3848485886198241
11.40099999999912,0.197557440393552,0.4058413278394715
11.60099999999901,0.23224919656061072,0.41273113148489826
11.800999999998899,0.2702974054010924,0.4053932571574125
12.000999999998788,0.31465242021368084,0.3837994760126847
12.200999999998677,0.3555076560753694,0.35468634065266935
12.400999999998566,0.38100453164087,0.3122396413784715
12.600999999998455,0.3867234734303655,0.24931635658239332
12.800999999998345,0.38119374454186616,0.18775095683792747
13.000999999998234,0.3589477882838028,0.11459094141361757
13.200999999998123,0.31117625515778047,0.036047939045000685
13.400999999998012,0.2534635970244616,-0.02891791829435676
13.600999999997901,0.19548627851079722,-0.06502258088516644
13.80099999999779,0.1408639288334764,-0.05854147197101007
14.00099999999768,0.10956381196173061,-0.02319703118216428
14.200999999997569,0.11427790734260519,0.02191237152741741
14.400999999997458,0.14480003055364216,0.06604980705001434
14.600999999997347,0.17809034036127194,0.10810935177136527
14.800999999997236,0.21772788992646155,0.13787411514052836
15.000999999997125,0.2666815913886057,0.15497634170138896
15.200999999997014,0.32144429559786375,0.1580958198894542
15.400999999996904,0.38497620616945977,0.14454792390570417
15.600999999996793,0.45039795234673324,0.13251517402261398
15.800999999996682,0.5074891167272708,0.12362695175991995
16.000999999996573,0.5485415082456719,0.10008554262375156
16.200999999996817,0.5711002962194259,0.06094443363551276
16.40099999999706,0.574184341094347,0.011385515835055496
16.600999999997306,0.558859179611438,-0.04597305975664289
16.80099999999755,0.5288669723258272,-0.10550920017118173
17.000999999997795,0.48549014450093436,-0.15126115462146758
17.20099999999804,0.4331988340573672,-0.17345901546890438
17.400999999998284,0.37055477825927075,-0.1673299129648391
17.60099999999853,0.3068075943507691,-0.14854296460710067
17.800999999998773,0.2527214390608773,-0.12273108449685005
18.000999999999017,0.2038776464764681,-0.08717016717998598
18.20099999999926,0.167618289655138,-0.03218760257227221
18.400999999999506,0.14866006116938743,0.017255117014762733
18.60099999999975,0.13547368623834702,0.07402848772640724
18.799999999999994,0.14049390849202942,0.13747276055290344
19.000000000000238,0.16310097659581493,0.19949781461763388
19.200000000000482,0.2006345293316828,0.2372416907126906
19.400000000000727,0.24904399153419893,0.2464397734319547
19.60000000000097,0.30201532832276307,0.23135407298004168
19.800000000001216,0.3549057227102386,0.20104197363706944
20.00000000000146,0.39469282531890554,0.17632296146883847
