Time (s),X (m),Y (m)
0.001,0.00013020853671323254,0.0010272443824616275
0.20000000000000015,0.0013505741433857401,-0.0024820192840488736
0.4000000000000003,0.00516395128564771,-0.0009323445784077214
0.6000000000000004,0.01612981838511681,0.007827547919802948
0.8000000000000006,0.03436031852798666,0.005121854427060833
1.0000000000000007,0.04732964237360375,0.0011721357671895367
1.2009999999999785,0.054031728159968866,-0.016454682931755876
1.4009999999999565,0.06300013299708557,-0.018500986631708627
1.6009999999999345,0.07800946104887722,-0.013444661487274122
1.8009999999999124,0.08872134813255331,-0.023379729937587853
2.0009999999998906,0.10024992806738585,-0.04399600373410304
2.2009999999998686,0.10673509884367985,-0.06367270759052118
2.4009999999998466,0.11917602947805044,-0.07777320497443044
2.6009999999998246,0.1365343801185437,-0.09471249845318669
2.8009999999998025,0.14995576026623827,-0.10380336644085005
3.0009999999997805,0.1671863695028783,-0.10795272707801451
3.2009999999997585,0.19185616368797218,-0.12038852093664137
3.4009999999997365,0.20845569844006637,-0.1380495488198455
3.6009999999997144,0.211564475123269,-0.1560461753276951
3.8009999999996924,0.22721721897662117,-0.16037131817918623
4.000999999999671,0.2533207987967212,-0.16113928435414154
4.200999999999738,0.2737811225727875,-0.16724330615302704
4.400999999999804,0.2882217008612755,-0.17609572043203858
4.600999999999871,0.30756184093484307,-0.18036356522196756
4.800999999999938,0.3226219803697945,-0.20466589138161523
5.000000000000004,0.3379283574870721,-0.21409685656507993
5.200000000000071,0.35613924541843117,-0.22236633613770224
5.400000000000138,0.3731708834448968,-0.23034524675156387
5.600000000000205,0.38926747448250326,-0.23943394618905667
5.800000000000272,0.40154822293043346,-0.26469902936942935
6.000000000000338,0.41533111716321935,-0.28334232429625417
6.200000000000405,0.44027929965992924,-0.28162794413835784
6.400000000000472,0.4715422846554772,-0.28678196099163983
6.600000000000539,0.49911027091279214,-0.2937874288235594
6.800000000000606,0.5248405702783964,-0.3094934334846498
7.000000000000672,0.5460538022650788,-0.3213684780399863
7.200000000000739,0.5735410837628084,-0.32339632495926607
7.400000000000806,0.6006302070532762,-0.326261828012909
7.600000000000873,0.6180968267912459,-0.3475633545109187
7.8000000000009395,0.6243878818185801,-0.36752890034374497
8.000000000001005,0.647914147232995,-0.371000162475578
8.200000000000895,0.6581361273741364,-0.39129403173565996
8.400000000000784,0.667238970461183,-0.4109320736502584
8.600000000000673,0.6799925658903341,-0.41531094544854924
8.800000000000562,0.6993206601303684,-0.42315679977131315
9.000000000000451,0.716660682727681,-0.4383191062343859
9.20000000000034,0.7371168824980142,-0.4516653778348596
9.40000000000023,0.7610100589719733,-0.46174727394461385
9.600000000000119,0.781731528096233,-0.47295306465341136
9.800000000000008,0.7949370398862516,-0.49179738136930523
10.000999999999896,0.814460511982055,-0.5108647531323877
10.200999999999786,0.8309047071387733,-0.527517243011383
10.400999999999675,0.848809429524726,-0.543494165096777
10.600999999999564,0.86858205621441,-0.5421271751069455
10.800999999999453,0.8893154008612468,-0.5441957797838162
11.000999999999342,0.9105111310650624,-0.5516395124465874
11.200999999999231,0.9348651439441024,-0.5622204140688364
11.40099999999912,0.9504312724969086,-0.5783614775457022
11.60099999999901,0.9651245946402381,-0.5815540607136365
11.800999999998899,0.9787339140597471,-0.59775027847356
12.000999999998788,0.9962870194030449,-0.604785613196697
12.200999999998677,1.0215051815432197,-0.6075499914210388
12.400999999998566,1.0491320203816634,-0.6213385589890619
12.600999999998455,1.0757976653279255,-0.6304674541321593
12.800999999998345,1.0962918709476666,-0.6390872944743519
13.000999999998234,1.1182994128041785,-0.6468719416594434
13.200999999998123,1.1414374031427303,-0.6586123531187743
13.400999999998012,1.160742170102667,-0.6660988005308487
13.600999999997901,1.183592893858966,-0.6581153585125427
13.80099999999779,1.1965211947312158,-0.6628579266195269
14.00099999999768,1.2127961401206218,-0.6779667026974744
14.200999999997569,1.2272056274563645,-0.6898982856336668
14.400999999997458,1.2422444901780911,-0.7027649890855947
14.600999999997347,1.2581614595480959,-0.7255745823179647
14.800999999997236,1.2807295634333034,-0.7402124550604636
15.000999999997125,1.301190730623275,-0.7565054289116278
15.200999999997014,1.319724352732221,-0.7678664415353548
15.400999999996904,1.3457860611348973,-0.7729772824461494
15.600999999996793,1.3689602640837075,-0.7775662191003097
15.800999999996682,1.3842739909679194,-0.7935314646933496
16.000999999996573,1.3996507399525298,-0.8126573290776881
16.200999999996817,1.417110476552822,-0.8242611618831275
16.40099999999706,1.4352009130078307,-0.830322569984334
16.600999999997306,1.4548071615770706,-0.8313570358815393
16.80099999999755,1.4753519398468409,-0.838937524656704
17.000999999997795,1.4979660521785065,-0.8454632764897846
17.20099999999804,1.5172160148896974,-0.8526512641595689
17.400999999998284,1.533489278703059,-0.8641845575261533
17.60099999999853,1.5582904237647413,-0.8745036842805028
17.800999999998773,1.5882146768426875,-0.8761751835666101
18.000999999999017,1.6095506143622507,-0.8940632606613961
18.20099999999926,1.6201833634202947,-0.9235263947095115
18.400999999999506,1.6399191510943376,-0.9381797221067784
18.60099999999975,1.6612405144082885,-0.9458372797390017
18.799999999999994,1.6816976341032581,-0.9610589682652863
19.000000000000238,1.7046170731960815,-0.9655873283477029
19.200000000000482,1.730869360718368,-0.9639154214698847
19.400000000000727,1.7663082887534147,-0.9649227519051541
19.60000000000097,1.7901543813042136,-0.987259425498066
19.800000000001216,1.8124457438831576,-1.0025349791067883
20.00000000000146,1.8307349777878157,-1.0112152576858666
