Time (s),X (m),Y (m)
0.001,0.0010100015126501532,0.0006628221997479689
0.20000000000000015,-0.0012230959551830553,-0.0022222040826895156
0.4000000000000003,0.0009584652155300935,-0.0028114307388442585
0.6000000000000004,0.004508466029057355,0.0016529950840175015
0.8000000000000006,0.010900941373488626,0.0005886826014908604
1.0000000000000007,0.01974494379979673,-0.0005468402429525073
1.2009999999999785,0.03366607127744487,-0.00013092796147312963
1.4009999999999565,0.04953618168198669,0.0059982495894856346
1.6009999999999345,0.05831962050732067,0.0018886153205193267
1.8009999999999124,0.07344502014070498,0.0016774420540137114
2.0009999999998906,0.08118372816701692,0.01050110273160308
2.2009999999998686,0.0977778365796501,0.022830427960051282
2.4009999999998466,0.11297431460545765,0.027788140785913126
2.6009999999998246,0.12890730126189767,0.03336223772848468
2.8009999999998025,0.14381778046285987,0.03376204825594515
3.0009999999997805,0.15605208911036178,0.035051167739679874
3.2009999999997585,0.1719622233315122,0.03347683716172569
3.4009999999997365,0.19142759494924888,0.030077800248082993
3.6009999999997144,0.20586712953720313,0.043575576648425846
3.8009999999996924,0.2262913741880872,0.06938264714603465
4.000999999999671,0.2496901352175982,0.07965530970359708
4.200999999999738,0.26878030765501015,0.09096515900537828
4.400999999999804,0.28700615044693883,0.10534308324903259
4.600999999999871,0.3060021914167534,0.12294366656858993
4.800999999999938,0.323762518124704,0.13228802662982156
5.000000000000004,0.34960062937685654,0.15118537763152393
5.200000000000071,0.37003726736897863,0.15994709008383318
5.400000000000138,0.38682626988876534,0.18275767731776277
5.600000000000205,0.4031683828124887,0.19951461723827874
5.800000000000272,0.42068572678184335,0.20705149726592464
6.000000000000338,0.4340922874869789,0.21665007555502266
6.200000000000405,0.448450760293121,0.22891547268189777
6.400000000000472,0.4628700720771571,0.24668442077429703
6.600000000000539,0.4721588397658074,0.26350051847817313
6.800000000000606,0.47837007652355285,0.2755324342314385
7.000000000000672,0.49255746831564284,0.2879135663593137
7.200000000000739,0.5093787765465515,0.3126336490379359
7.400000000000806,0.5219275079480158,0.3318380742247425
7.600000000000873,0.5397037977169826,0.34488395748689693
7.8000000000009395,0.5516810382754687,0.36913643234065696
8.000000000001005,0.5644145472024186,0.38675946042020254
8.200000000000895,0.5753507466618913,0.3964951670243562
8.400000000000784,0.585500275576611,0.4072822257068789
8.600000000000673,0.6005783211471092,0.4193107449204238
8.800000000000562,0.6155672220302275,0.4296893352652203
9.000000000000451,0.6326958450288772,0.4487292509789417
9.20000000000034,0.6475313534016387,0.47277574250085747
9.40000000000023,0.6573685543741352,0.48326508242246236
9.600000000000119,0.6708786915109635,0.49386535778586654
9.800000000000008,0.6853693292187307,0.5112054483185368
10.000999999999896,0.6954026678942308,0.5293227408299195
10.200999999999786,0.7035394908098873,0.5507476127091528
10.400999999999675,0.7128761915665636,0.5686784460746127
10.600999999999564,0.7222951882485127,0.5842067562854191
10.800999999999453,0.7363999809135505,0.6010028824744146
11.000999999999342,0.7488172326816375,0.6156637181832696
11.200999999999231,0.755647863465864,0.6391054631640464
11.40099999999912,0.75588888814318,0.6658042152910296
11.60099999999901,0.7591841591165415,0.6799662958774507
11.800999999998899,0.7666607281196476,0.7008409221045786
12.000999999998788,0.7801868465029789,0.7132286157037317
12.200999999998677,0.7844546187475904,0.7366280528856527
12.400999999998566,0.7925044020440645,0.7581424855862088
12.600999999998455,0.7977570141395152,0.777982117177318
12.800999999998345,0.799290765888711,0.8017235099797803
13.000999999998234,0.8111402809458116,0.8106914463069377
13.200999999998123,0.8195824476215772,0.8157747517433621
13.400999999998012,0.831531644416693,0.8298577386230924
13.600999999997901,0.8411929220960952,0.846751618130128
13.80099999999779,0.8569970793048449,0.8654523002913262
14.00099999999768,0.8705665655337581,0.8805985598626757
14.200999999997569,0.8787075171945924,0.8983729120816173
14.400999999997458,0.8908383369249742,0.9084909209574785
14.600999999997347,0.9027148074467174,0.9204711552229784
14.800999999997236,0.9137760598522308,0.9422836842674647
15.000999999997125,0.9222609259205331,0.9667084299040122
15.200999999997014,0.9330598136198277,0.9857988824262799
15.400999999996904,0.94435868461176,1.0007796266255096
15.600999999996793,0.9554105202918288,1.021606743719532
15.800999999996682,0.9575720652568882,1.041907918018599
16.000999999996573,0.9659284272517267,1.0669810665515926
16.200999999996817,0.9703381326923364,1.0878160541570225
16.40099999999706,0.9803411047924226,1.1051379937268886
16.600999999997306,0.9865671258482022,1.12579452311302
16.80099999999755,0.9925600998631069,1.1508243104335683
17.000999999997795,1.0054098199126058,1.1753304270807425
17.20099999999804,1.0140462404696688,1.1921266337318335
17.400999999998284,1.0212723950987912,1.2138954141907703
17.60099999999853,1.0295001698409794,1.22977959043614
17.800999999998773,1.0325305739797743,1.2561090920971918
18.000999999999017,1.0402289737921522,1.2777078321375186
18.20099999999926,1.0427612875471348,1.294187382530729
18.400999999999506,1.0487785698570178,1.3030658704293905
18.60099999999975,1.0481219065168506,1.3302470213391033
18.799999999999994,1.0582071517459721,1.355227749263372
19.000000000000238,1.0655754703662272,1.3771609445172988
19.200000000000482,1.0758682172881853,1.396647246411634
19.400000000000727,1.0799935264152796,1.424019417769222
19.60000000000097,1.0857031596951756,1.4413938167383022
19.800000000001216,1.0875775110101682,1.4649988114880053
20.00000000000146,1.090228177082942,1.4936157083013188
