Time (s),X (m),Y (m)
0.001,0.0011890620069237587,0.00035268032603768894
0.20000000000000015,-0.004105361217562491,-0.0016900580637389242
0.4000000000000003,0.00189064971988695,-0.0020958507548930194
0.6000000000000004,0.009752226925157887,0.0029612021031648846
0.8000000000000006,0.020001722788685172,0.0007846984855092744
1.0000000000000007,0.029959328072774325,-0.0008176820001919991
1.2009999999999785,0.050751794592332006,-0.007588786104068449
1.4009999999999565,0.06721954957937544,-0.017161671996750952
1.6009999999999345,0.07558061891540675,-0.03155301962041027
1.8009999999999124,0.09799986900347474,-0.0460199954163664
2.0009999999998906,0.12934422419168104,-0.07309136380414705
2.2009999999998686,0.15638405653546458,-0.09214933428416433
2.4009999999998466,0.18453229060099802,-0.11248998305816225
2.6009999999998246,0.21366562233788258,-0.14054520212393773
2.8009999999998025,0.23277670127495462,-0.1685356771325939
3.0009999999997805,0.26443406514370993,-0.19888137206578826
3.2009999999997585,0.30858799680716986,-0.22987399803984293
3.4009999999997365,0.35635838715717716,-0.265430330403679
3.6009999999997144,0.40001168284780403,-0.3034391113067015
3.8009999999996924,0.43602071938120784,-0.33881174043545736
4.000999999999671,0.47029631134403405,-0.3747695960695305
4.200999999999738,0.5100536173833274,-0.4129421285474876
4.400999999999804,0.5556944697010446,-0.45099330564706536
4.600999999999871,0.6039778798976927,-0.49333282427354497
4.800999999999938,0.6483953450977459,-0.5315167150815342
5.000000000000004,0.6915164950061959,-0.5745046258444916
5.200000000000071,0.7353792540252853,-0.6177272361620735
5.400000000000138,0.7690562699329132,-0.6533950454345067
5.600000000000205,0.780438889681136,-0.701002922501921
5.800000000000272,0.7718503658325969,-0.7541033863556484
6.000000000000338,0.750524563226985,-0.8007520518009189
6.200000000000405,0.7227666142011278,-0.8412571682701144
6.400000000000472,0.6928780973559668,-0.882198704613331
6.600000000000539,0.6519884014334615,-0.9375490459457692
6.800000000000606,0.6085460761494855,-0.9926195752910616
7.000000000000672,0.5484527087613768,-1.0430093320491554
7.200000000000739,0.483545482776668,-1.0752825582228656
7.400000000000806,0.4281621037367325,-1.0832201595206268
7.600000000000873,0.37648698656207313,-1.066963813697196
7.8000000000009395,0.3259680252836662,-1.0417009278220812
8.000000000001005,0.2749134336711702,-1.012522287753156
8.200000000000895,0.22040820730853874,-0.9810009890732079
8.400000000000784,0.17767619434454893,-0.9479284429680103
8.600000000000673,0.140716280659132,-0.9163577651858724
8.800000000000562,0.11307936663711134,-0.883687484104844
9.000000000000451,0.0866230686890183,-0.8553084941253206
9.20000000000034,0.038688021275436954,-0.8394315728653078
9.40000000000023,0.008239007689105815,-0.8304644982877913
9.600000000000119,-0.017707941129714987,-0.8137283446012058
9.800000000000008,-0.05613225060728321,-0.7986507934871506
10.000999999999896,-0.10809202212897152,-0.7770640899572969
10.200999999999786,-0.14868639066969447,-0.7468799600775342
10.400999999999675,-0.18528141694809372,-0.7143339312745662
10.600999999999564,-0.2309852737678689,-0.6794935559170114
10.800999999999453,-0.27994749972857375,-0.6445272900019224
11.000999999999342,-0.32861095998254575,-0.6124166024612286
11.200999999999231,-0.38316947612838925,-0.5794161660193559
11.40099999999912,-0.45354438954890713,-0.5395488937204385
11.60099999999901,-0.5176168067038958,-0.4980884658945989
11.800999999998899,-0.576934593859303,-0.4507989037642634
12.000999999998788,-0.6323552393559523,-0.39742343698971294
12.200999999998677,-0.6910544640584959,-0.3351223997554633
12.400999999998566,-0.7441275833163976,-0.26713064271834985
12.600999999998455,-0.7825332132781901,-0.2058961162812811
12.800999999998345,-0.7875114449962477,-0.14487532688134813
13.000999999998234,-0.7683397832453214,-0.09753697668017501
13.200999999998123,-0.7307530114080024,-0.05104292213403695
13.400999999998012,-0.6883220175413817,-0.018408672762568863
13.600999999997901,-0.6494519719494487,-0.013383021806247978
13.80099999999779,-0.6111968129440981,-0.02944291123074687
14.00099999999768,-0.5629409459140838,-0.056399861300282704
14.200999999997569,-0.5075928437995889,-0.0887490717700271
14.400999999997458,-0.4533046298576991,-0.12320398340591368
14.600999999997347,-0.402213671212829,-0.16034090897351236
14.800999999997236,-0.35369259273235226,-0.19807015740906916
15.000999999997125,-0.2991683155373444,-0.2399626955156811
15.200999999997014,-0.2413974789713078,-0.2853197347292544
15.400999999996904,-0.18400817725612784,-0.3323379694423817
15.600999999996793,-0.13048770188150136,-0.38094682677855846
15.800999999996682,-0.08154745533497146,-0.42679717222624525
16.000999999996573,-0.030730391458869893,-0.4715871644975923
16.200999999996817,0.018297191811421303,-0.5122162059606588
16.40099999999706,0.06291724639382945,-0.559056583958534
16.600999999997306,0.12085650380797759,-0.6079267450453655
16.80099999999755,0.1718531412933385,-0.6490571395852983
17.000999999997795,0.22040570290070727,-0.6838207049122024
17.20099999999804,0.27373127840134226,-0.720351140100118
17.400999999998284,0.3298456407668114,-0.7597504045818767
17.60099999999853,0.3784446773218801,-0.8008844939450781
17.800999999998773,0.42479746187351825,-0.8419516305951937
18.000999999999017,0.48087240265641545,-0.8815617547378146
18.20099999999926,0.5371119645983129,-0.9195025140947907
18.400999999999506,0.5949399931402836,-0.9628249339199721
18.60099999999975,0.6575659769222324,-1.0148065209548367
18.799999999999994,0.7150476067191184,-1.0654533013688618
19.000000000000238,0.7477622400992933,-1.1046476889456605
19.200000000000482,0.7760448343693159,-1.1402139447720725
19.400000000000727,0.8241702520272147,-1.1770045442284698
19.60000000000097,0.87031375806749,-1.2116397068747313
19.800000000001216,0.9277182817986317,-1.2507506618377908
20.00000000000146,0.9794220500616555,-1.2941049962358269
