Time (s),X (m),Y (m)
0.001,0.0012161128565605834,0.00026688599193002506
0.20000000000000015,-0.0021913133562261843,-0.0008180605881504365
0.4000000000000003,0.0034070081344907506,3.131441040842169e-05
0.6000000000000004,0.013652404139797037,0.0034870207398133538
0.8000000000000006,0.013147890862933654,0.005978318744467055
1.0000000000000007,0.011543977671262098,0.0030911414173157696
1.2009999999999785,0.01686889422052142,-0.0021389190487959503
1.4009999999999565,0.021552679083949287,-0.007816362613409827
1.6009999999999345,0.01753376670346115,-0.008147423388614655
1.8009999999999124,0.02214048204411268,-0.009989128977144386
2.0009999999998906,0.027847973541832886,-0.012386849671253692
2.2009999999998686,0.04505282571967587,-0.014258396112384528
2.4009999999998466,0.05377149615297445,-0.02126739126817036
2.6009999999998246,0.062176340640418576,-0.03166513035801458
2.8009999999998025,0.08911205679987687,-0.04523493250906927
3.0009999999997805,0.10788640859600475,-0.05765470761395226
3.2009999999997585,0.11558880099879087,-0.06844919795366167
3.4009999999997365,0.12656654631531902,-0.08107177154787186
3.6009999999997144,0.14356201159745566,-0.09117771456261763
3.8009999999996924,0.15857177355411084,-0.1008457714923242
4.000999999999671,0.16629811567383473,-0.11008154015313242
4.200999999999738,0.18567992066563271,-0.1227756401907301
4.400999999999804,0.20309350406993237,-0.14109960463907845
4.600999999999871,0.22483657349220115,-0.15919374018904156
4.800999999999938,0.24611984912867335,-0.17739230362334374
5.000000000000004,0.2764417476859387,-0.1999635768406522
5.200000000000071,0.30412486696224195,-0.22146414117077276
5.400000000000138,0.3312126832580348,-0.24188505300357555
5.600000000000205,0.3665891010141828,-0.2631403279158066
5.800000000000272,0.3893173878598707,-0.2787549874549468
6.000000000000338,0.4120923619148327,-0.296472027324808
6.200000000000405,0.4400499245372209,-0.31293810837655406
6.400000000000472,0.45591604886623355,-0.330449564807184
6.600000000000539,0.4743203374582322,-0.35025131583459745
6.800000000000606,0.49051099740885173,-0.3633181171271429
7.000000000000672,0.5070331731550307,-0.378698744096797
7.200000000000739,0.534257606199644,-0.3959389975015901
7.400000000000806,0.5644993420194,-0.4162223285709439
7.600000000000873,0.595187333609647,-0.43214128887281883
7.8000000000009395,0.6295693726387598,-0.441984193403741
8.000000000001005,0.6538710361044734,-0.45431986746771336
8.200000000000895,0.681975413977541,-0.4700379053439488
8.400000000000784,0.7105094873570049,-0.4843443221057488
8.600000000000673,0.7348558952012122,-0.4940886225511897
8.800000000000562,0.7655528881562381,-0.5092852833135448
9.000000000000451,0.7812350984098603,-0.5265589046647359
9.20000000000034,0.7977253467909299,-0.5441305162624114
9.40000000000023,0.8272048437922258,-0.5548507831998546
9.600000000000119,0.8689586612877318,-0.570386492793176
9.800000000000008,0.9086403972702313,-0.5864973786068872
10.000999999999896,0.9411747675495447,-0.6029857843268286
10.200999999999786,0.9671468944062204,-0.6164594631005474
10.400999999999675,0.994093690904231,-0.6291250950356169
10.600999999999564,1.0287294478244302,-0.6460394637940047
10.800999999999453,1.0590337126032299,-0.6658768931674554
11.000999999999342,1.0916028850061796,-0.6827370872995232
11.200999999999231,1.1207520814048866,-0.6996090432692614
11.40099999999912,1.1393530117814934,-0.7213842359664893
11.60099999999901,1.1681730781262358,-0.7487609533111668
11.800999999998899,1.2052461161828145,-0.7750768236225505
12.000999999998788,1.2374669695332314,-0.7983168732933136
12.200999999998677,1.2813303218768028,-0.8201045116568764
12.400999999998566,1.322552501151258,-0.8441565912811989
12.600999999998455,1.353760066701276,-0.869097668131311
12.800999999998345,1.375585696291065,-0.8852254961160128
13.000999999998234,1.3958314560842728,-0.9037550666921614
13.200999999998123,1.4184580904404265,-0.9223807098687992
13.400999999998012,1.4340289893074971,-0.9422004258302605
13.600999999997901,1.4576781814741437,-0.9554731892187692
13.80099999999779,1.4873719705470883,-0.9712332311802266
14.00099999999768,1.511214991196719,-0.991997479918493
14.200999999997569,1.521442865107237,-1.0084970353358478
14.400999999997458,1.535842176345196,-1.0247728910185983
14.600999999997347,1.5704218138786938,-1.0378879753130625
14.800999999997236,1.600763863880265,-1.0437763223513083
15.000999999997125,1.6323001275861542,-1.0510198487423548
15.200999999997014,1.6509095859094225,-1.0668467449022527
15.400999999996904,1.6654184074326301,-1.0842231158295252
15.600999999996793,1.6893263164192183,-1.0974033463872848
15.800999999996682,1.731670342191647,-1.1121218704542866
16.000999999996573,1.7685426204190788,-1.123749806089531
16.200999999996817,1.8035606887495466,-1.136018372671343
16.40099999999706,1.8433639936295076,-1.1464895400877178
16.600999999997306,1.887556649770049,-1.1555862517271291
16.80099999999755,1.9165490943424768,-1.1669393707500497
17.000999999997795,1.9579767786267142,-1.1775443685898168
17.20099999999804,1.9917107407688628,-1.1902982013231822
17.400999999998284,2.02300522132172,-1.210355617185889
17.60099999999853,2.052575508525879,-1.232111636661639
17.800999999998773,2.0868507004265924,-1.25220039581116
18.000999999999017,2.1189588998510662,-1.2720455984963746
18.20099999999926,2.1465010419878405,-1.2911380216978925
18.400999999999506,2.1777715044299146,-1.3111676625336453
18.60099999999975,2.200050629981615,-1.3306149030679517
18.799999999999994,2.2298767993461395,-1.353481890714993
19.000000000000238,2.265699799168528,-1.3738002409839836
19.200000000000482,2.2880705420823384,-1.3915982218889473
19.400000000000727,2.318302039165834,-1.411798195216998
19.60000000000097,2.3495304652255746,-1.4326280590775033
19.800000000001216,2.3831603782209307,-1.4542392599699347
20.00000000000146,2.413748397189514,-1.4773736542740679
