Time (s),X (m),Y (m)
0.001,0.0001302085367132322,-0.0010272443824616275
0.20000000000000015,0.0014661712243901177,-0.0005334214706499721
0.4000000000000003,0.004043704803441268,-0.006218217934635975
0.6000000000000004,0.008057078645541468,-0.002155506611763118
0.8000000000000006,0.016819547126646864,-0.005379508231858551
1.0000000000000007,0.025622538698922167,-0.007938393108201285
1.2009999999999785,0.036678014289420746,-0.010367640282142342
1.4009999999999565,0.047861688669695465,-0.005578718872219335
1.6009999999999345,0.05914397097903756,0.00710638477372551
1.8009999999999124,0.07041482714561002,0.0060851452386741405
2.0009999999998906,0.08240988701114639,0.008151387385096107
2.2009999999998686,0.0928190818908468,0.0029281490847077878
2.4009999999998466,0.10576437396869975,0.012491374454776466
2.6009999999998246,0.12274944998951645,0.021289960217289475
2.8009999999998025,0.13878121805255084,0.013819886962533143
3.0009999999997805,0.14748289136722095,0.005002797616723302
3.2009999999997585,0.16226912062329799,0.003796559604899107
3.4009999999997365,0.17561990792857662,0.005904180719297503
3.6009999999997144,0.18795779491266945,0.002786170928904137
3.8009999999996924,0.2028526148658636,0.012865115703933505
4.000999999999671,0.21517326763073283,0.019855906071907025
4.200999999999738,0.22737514489128505,0.02247378543292298
4.400999999999804,0.24062548609038728,0.02664071138096933
4.600999999999871,0.2587316314410383,0.026469111480557615
4.800999999999938,0.27295477518226063,0.0240623255051897
5.000000000000004,0.28867025194305646,0.023258447042323997
5.200000000000071,0.3022075550204538,0.022204340798963492
5.400000000000138,0.31335399378387435,0.019390867605205708
5.600000000000205,0.3266127716085355,0.022427123693886514
5.800000000000272,0.34289426362581515,0.022300891622641508
6.000000000000338,0.35475912769513507,0.028180911197432285
6.200000000000405,0.36790373726243253,0.0299069473081761
6.400000000000472,0.3845152341122358,0.03786004464375511
6.600000000000539,0.40231971394730864,0.039468651518062385
6.800000000000606,0.41784777347888236,0.03706972389810471
7.000000000000672,0.4313939946302048,0.03734579990667316
7.200000000000739,0.4462639358125797,0.04094965192733876
7.400000000000806,0.46121767702966493,0.05106351536520739
7.600000000000873,0.47708025130012494,0.06140921846134864
7.8000000000009395,0.4882598429972261,0.05978653333959462
8.000000000001005,0.49920602884989096,0.05790536673444518
8.200000000000895,0.514328767086361,0.0699500918455638
8.400000000000784,0.5296032075409662,0.07207923568463115
8.600000000000673,0.545131647576585,0.07491167572881927
8.800000000000562,0.562819867467568,0.06907383067471132
9.000000000000451,0.5822686085651487,0.06995815192527402
9.20000000000034,0.5962231317263919,0.06253234905604335
9.40000000000023,0.609046941950003,0.059089309428568125
9.600000000000119,0.6202919597931206,0.06280675258581682
9.800000000000008,0.6374485801273262,0.06927603844277623
10.000999999999896,0.6553410726928397,0.06874591082767927
10.200999999999786,0.6685461618903563,0.07323612895638251
10.400999999999675,0.6857798169107623,0.07777155696182733
10.600999999999564,0.7045329877238902,0.08666525571534893
10.800999999999453,0.7204145961422387,0.0899235878883998
11.000999999999342,0.7368512430672312,0.09555058733336322
11.200999999999231,0.7519560831207327,0.10344026074148996
11.40099999999912,0.7693453763037482,0.10211891528157578
11.60099999999901,0.7886223888063977,0.11144612549686858
11.800999999998899,0.8024265688431612,0.1157425151757912
12.000999999998788,0.8201069429733745,0.11860985496894325
12.200999999998677,0.8361140364543219,0.12880633487857657
12.400999999998566,0.850267130142403,0.13222166030608273
12.600999999998455,0.8624153973033964,0.13918497457073528
12.800999999998345,0.8745902479980918,0.13893314056253162
13.000999999998234,0.8920962739221331,0.1372648826431317
13.200999999998123,0.9116579411240642,0.14654959646212745
13.400999999998012,0.9295015459335383,0.14634416518297305
13.600999999997901,0.9447282980219648,0.1424083039799916
13.80099999999779,0.9596702684624321,0.1397024354107269
14.00099999999768,0.9757782938993312,0.1434370218623368
14.200999999997569,0.9914298369951284,0.14570880201163644
14.400999999997458,1.0065938354896293,0.15057214382141082
14.600999999997347,1.0252445953107638,0.1496445273765309
14.800999999997236,1.0442692610342763,0.15352118537285547
15.000999999997125,1.0576659519472356,0.14745696802851868
15.200999999997014,1.0711225688799981,0.14975983565653728
15.400999999996904,1.0895790629691635,0.1537035066769237
15.600999999996793,1.1060257516802343,0.15639087314241987
15.800999999996682,1.1206742909145297,0.1574648858602916
16.000999999996573,1.1335576965627439,0.16641847090094786
16.200999999996817,1.1494923529047756,0.17588962159195884
16.40099999999706,1.1640343293316737,0.17047880603110474
16.600999999997306,1.1786937268360376,0.16493614094541287
16.80099999999755,1.1937915320041275,0.16216381970345273
17.000999999997795,1.2096721822738032,0.1613857854888799
17.20099999999804,1.2236619051160127,0.16613121254738955
17.400999999998284,1.2398398075605934,0.16637607944267144
17.60099999999853,1.256524327076118,0.17330424912598627
17.800999999998773,1.2704903086057844,0.1696602959957007
18.000999999999017,1.2841604226809935,0.17637624106278577
18.20099999999926,1.2985164224663774,0.18098083396902245
18.400999999999506,1.3133777275694478,0.18590057290454456
18.60099999999975,1.3272480914779234,0.1966536683380067
18.799999999999994,1.341380663374236,0.20064756286216356
19.000000000000238,1.3555348519922212,0.20697256490171237
19.200000000000482,1.3711604795792711,0.21645053840349038
19.400000000000727,1.3898111148860846,0.22006652279536026
19.60000000000097,1.4038172724130427,0.2180457244797973
19.800000000001216,1.420111452386925,0.230353324851389
20.00000000000146,1.431831292777117,0.23447848051075854
