Time (s),X (m),Y (m)
0.001,0.0011890620069237587,-0.00035268032603768894
0.20000000000000015,-0.00012548179739486603,6.84037103458719e-05
0.4000000000000003,0.011026887603322722,-0.0029651588221213335
0.6000000000000004,0.017189479689589258,-0.0052061207506510256
0.8000000000000006,0.023288290227960834,-0.0006355926788494863
1.0000000000000007,0.03775671206396177,0.005868849494964106
1.2009999999999785,0.06314003737081272,0.005106444328988837
1.4009999999999565,0.07600833024707386,0.004555619920810635
1.6009999999999345,0.09357714545378261,0.0021499054072689496
1.8009999999999124,0.10673091504490398,0.0024893134763035673
2.0009999999998906,0.11867357825293491,0.0012791356173449792
2.2009999999998686,0.13062478012087902,0.0028596210121391683
2.4009999999998466,0.13864619706585538,0.0017930943997492748
2.6009999999998246,0.15389847919870933,-0.003164082852523374
2.8009999999998025,0.1713798567943922,-0.01064987844453733
3.0009999999997805,0.18909961562044356,-0.018667425113175422
3.2009999999997585,0.21006379560682442,-0.02845044862939648
3.4009999999997365,0.22710900453372418,-0.041915973640765436
3.6009999999997144,0.24997087558538303,-0.0565207600358675
3.8009999999996924,0.2782123074983938,-0.07034837082439051
4.000999999999671,0.3008997959111653,-0.0777690653892484
4.200999999999738,0.3282754528362304,-0.09407729158656508
4.400999999999804,0.34863745674261193,-0.11308661331868719
4.600999999999871,0.3678060407102503,-0.13699476979848524
4.800999999999938,0.38903715055815485,-0.15592308534998145
5.000000000000004,0.4076529505141453,-0.17801655076196324
5.200000000000071,0.418852514131218,-0.18785584763656768
5.400000000000138,0.42516692905135955,-0.20483012270550152
5.600000000000205,0.4378076249357476,-0.233771801322417
5.800000000000272,0.44341488363396386,-0.26840464873916126
6.000000000000338,0.4466390362471376,-0.2928201412869118
6.200000000000405,0.44462798039169643,-0.32298187476597373
6.400000000000472,0.4309705347422919,-0.3628345199501495
6.600000000000539,0.41561745311083403,-0.39445002274571195
6.800000000000606,0.4019807724692808,-0.4244041306919905
7.000000000000672,0.3942723435345591,-0.4503748172610041
7.200000000000739,0.3856200632299349,-0.47744223471852504
7.400000000000806,0.37919283537073856,-0.5091065103904302
7.600000000000873,0.3689450253465122,-0.5389543134123909
7.8000000000009395,0.35607579319268834,-0.5679820659764058
8.000000000001005,0.344785687450825,-0.5934439427604055
8.200000000000895,0.33632122617519344,-0.614499140655574
8.400000000000784,0.317986485210324,-0.6422260520364179
8.600000000000673,0.2937738970707719,-0.6757616944278285
8.800000000000562,0.27528467166153986,-0.702371419740986
9.000000000000451,0.26035907675208503,-0.7210726816503354
9.20000000000034,0.24098221629814384,-0.733778188525645
9.40000000000023,0.224901063468352,-0.7413455517062401
9.600000000000119,0.1954044161501433,-0.7480254068297852
9.800000000000008,0.16428099339492486,-0.7478077269792613
10.000999999999896,0.13675666875576017,-0.7428666713358437
10.200999999999786,0.11802457813522509,-0.7404958859518846
10.400999999999675,0.09164982129727922,-0.7337106347674047
10.600999999999564,0.06195379261066169,-0.7275324867595042
10.800999999999453,0.03581789234398482,-0.7192561158962354
11.000999999999342,0.01648930709354388,-0.7093848285224792
11.200999999999231,-0.007559096344525485,-0.698122409835419
11.40099999999912,-0.036170500542389725,-0.682638251386359
11.60099999999901,-0.07023149521130576,-0.6582994495230384
11.800999999998899,-0.11793306957768784,-0.6346905766566417
12.000999999998788,-0.1529982901626673,-0.6203936419794955
12.200999999998677,-0.18657328260581652,-0.6034991849633478
12.400999999998566,-0.21581802239642603,-0.5829562965061529
12.600999999998455,-0.24090165617598278,-0.5542264567076662
12.800999999998345,-0.2574326289482773,-0.5141196563812613
13.000999999998234,-0.27078232901873184,-0.4881001576847393
13.200999999998123,-0.27346913860844874,-0.4521158076416212
13.400999999998012,-0.2704916651949733,-0.4150588305536623
13.600999999997901,-0.26960118583565057,-0.39530181422883004
13.80099999999779,-0.2671275702296576,-0.3721499069162367
14.00099999999768,-0.26812664406327846,-0.3493359202184146
14.200999999997569,-0.2685345767218863,-0.32656449295439094
14.400999999997458,-0.26451161578898397,-0.30125035808195605
14.600999999997347,-0.2574808790203895,-0.26708396888876135
14.800999999997236,-0.24630466697103925,-0.2384089971109914
15.000999999997125,-0.23863177684605513,-0.21508945340424687
15.200999999997014,-0.23455941712335335,-0.19485142351902676
15.400999999996904,-0.22706095594780806,-0.16434542514796427
15.600999999996793,-0.21914089370036768,-0.13481538769353632
15.800999999996682,-0.2176434255275065,-0.1131529935547631
16.000999999996573,-0.21032211439324525,-0.08581148474229779
16.200999999996817,-0.2112157635705153,-0.06074230290068583
16.40099999999706,-0.20328906677205566,-0.035513073714204445
16.600999999997306,-0.18946431389453922,-0.006622837839017067
16.80099999999755,-0.17121578200020135,0.023238159587165463
17.000999999997795,-0.15710525786548224,0.04959504142792293
17.20099999999804,-0.13423339003493018,0.0721163642201929
17.400999999998284,-0.10395899295987118,0.10128052287787338
17.60099999999853,-0.08133914703613039,0.13093879442825146
17.800999999998773,-0.05854043852976334,0.15404132482776584
18.000999999999017,-0.034170963944890664,0.16695961808013682
18.20099999999926,-0.013443435865657319,0.17805614250178298
18.400999999999506,0.007702026759060175,0.18442892027354305
18.60099999999975,0.03435094476666992,0.1829837308282164
18.799999999999994,0.06712505156949558,0.18236595833671332
19.000000000000238,0.09213346036556737,0.18107578084793363
19.200000000000482,0.11651539695301144,0.1760842842952651
19.400000000000727,0.14419399549077197,0.16628308053177865
19.60000000000097,0.18116995199345534,0.15575440190834555
19.800000000001216,0.21533869937192865,0.14343758900863396
20.00000000000146,0.24324136032332935,0.13263815835004147
