Time (s),X (m),Y (m)
0.001,-0.0003713730577023104,0.0008446836120385872
0.20000000000000015,0.0008708122029595504,0.0009482899204922734
0.4000000000000003,0.0016114839692618448,0.00538801633170348
0.6000000000000004,0.0005595296090425585,0.002555967363346688
0.8000000000000006,0.0028632143431282574,0.004592594910959729
1.0000000000000007,0.005578319548629146,0.008334403442755494
1.2009999999999785,0.014331522074457932,0.005818339123438781
1.4009999999999565,0.02478257500081781,0.0014377761727613644
1.6009999999999345,0.03244519143339232,-0.00103212021199092
1.8009999999999124,0.04041262422602321,-0.002884050353088029
2.0009999999998906,0.04591327306185245,-0.008911403096393601
2.2009999999998686,0.05331681632730294,-0.009554759569615684
2.4009999999998466,0.06594181071739037,-0.011196683316342401
2.6009999999998246,0.0812895554933569,-0.013350568839870437
2.8009999999998025,0.09823540866555364,-0.02582778641601487
3.0009999999997805,0.1096977289575748,-0.025105190666210572
3.2009999999997585,0.12154717694080698,-0.037740406114040226
3.4009999999997365,0.13050841340687308,-0.04524664359148724
3.6009999999997144,0.143616833752276,-0.05267294841581462
3.8009999999996924,0.15573039616180714,-0.06416954609143877
4.000999999999671,0.1670424799436738,-0.07564252283602026
4.200999999999738,0.1740900495673,-0.08207036742299617
4.400999999999804,0.18731372865738447,-0.08666090410741085
4.600999999999871,0.1995106819190873,-0.09797712188644524
4.800999999999938,0.20823653820960256,-0.10685086777924796
5.000000000000004,0.2143246799029167,-0.12167208423794222
5.200000000000071,0.22086448800032965,-0.12298525515320302
5.400000000000138,0.228719198611692,-0.13567465447929145
5.600000000000205,0.2369222695338512,-0.14262477564391765
5.800000000000272,0.2494298757786158,-0.1450194676387084
6.000000000000338,0.2625642586664594,-0.15496597311445592
6.200000000000405,0.27099577611559617,-0.17107378907763543
6.400000000000472,0.2787644471494743,-0.17395225524423727
6.600000000000539,0.2838593634256906,-0.18603664219363308
6.800000000000606,0.2925950247691806,-0.19588443495811864
7.000000000000672,0.30183822825279133,-0.20786095834370588
7.200000000000739,0.30445045378791097,-0.21981671382293738
7.400000000000806,0.31152260836059487,-0.2315150081930578
7.600000000000873,0.31588625102411266,-0.24067495690407922
7.8000000000009395,0.3234149425007335,-0.25079437059961535
8.000000000001005,0.3306468267097932,-0.2634635939508672
8.200000000000895,0.34054510746712263,-0.2638190341895905
8.400000000000784,0.3469668726223836,-0.27164847278635595
8.600000000000673,0.3530948541980732,-0.2741690440362077
8.800000000000562,0.3574013636016437,-0.2924007604877259
9.000000000000451,0.36275203710964904,-0.30966929445420166
9.20000000000034,0.3680180305511629,-0.3188362808829681
9.40000000000023,0.37232277526405066,-0.32666141258371756
9.600000000000119,0.37919056176387955,-0.33588014475535477
9.800000000000008,0.3856439639168306,-0.3444091408745471
10.000999999999896,0.392938777807321,-0.35406661625704927
10.200999999999786,0.3993642410905522,-0.3649639992522855
10.400999999999675,0.4062430488769292,-0.37222707239159625
10.600999999999564,0.4116935996935357,-0.384217442901869
10.800999999999453,0.4210564324485003,-0.38845097835767745
11.000999999999342,0.4262068231779391,-0.39583333080067645
11.200999999999231,0.4292889449430415,-0.4051257678877016
11.40099999999912,0.4301082090095224,-0.4166160015589171
11.60099999999901,0.4353800914817032,-0.43029272444464184
11.800999999998899,0.44247207173263053,-0.436139823358215
12.000999999998788,0.44300567350356945,-0.4463803173700788
12.200999999998677,0.44237948297244817,-0.455748759838417
12.400999999998566,0.4487449320100328,-0.459858596212971
12.600999999998455,0.457034396226244,-0.4766701928312661
12.800999999998345,0.45905943610494226,-0.48805883365969277
13.000999999998234,0.4646504291064886,-0.4948006243636945
13.200999999998123,0.4697564825291999,-0.5041095481791118
13.400999999998012,0.47062483106443526,-0.5212172481804407
13.600999999997901,0.4755155977391498,-0.5197966692122234
13.80099999999779,0.4842962966692573,-0.5285717108132001
14.00099999999768,0.4919625396538093,-0.5317387068179459
14.200999999997569,0.4979830615177161,-0.5417554090903316
14.400999999997458,0.5004708818373318,-0.5496563163937059
14.600999999997347,0.5036888501938559,-0.5650154871228122
14.800999999997236,0.5071871552781477,-0.576120030795288
15.000999999997125,0.5083241683648095,-0.5900406610590961
15.200999999997014,0.5100358104751402,-0.6059733372305477
15.400999999996904,0.5090577309577637,-0.6193810750306489
15.600999999996793,0.5107198300120742,-0.6278119554514711
15.800999999996682,0.5205316636893089,-0.642505550467166
16.000999999996573,0.5289471350667461,-0.6509964993242741
16.200999999996817,0.5369112796886862,-0.6604735421587268
16.40099999999706,0.5399852711918931,-0.6740447580227884
16.600999999997306,0.545161673756977,-0.6871816342155296
16.80099999999755,0.5471296604009518,-0.7003240857788632
17.000999999997795,0.5468977585226793,-0.7122575349210775
17.20099999999804,0.549383971597425,-0.7234767103733655
17.400999999998284,0.5567877844360672,-0.7374959315537768
17.60099999999853,0.563474739483181,-0.7399422178966967
17.800999999998773,0.566248851575676,-0.7459329965060659
18.000999999999017,0.5767219269786427,-0.7550989861727504
18.20099999999926,0.5831547827298884,-0.7642010158929484
18.400999999999506,0.5878121321414392,-0.778418973751916
18.60099999999975,0.595180176337574,-0.7877812922054351
18.799999999999994,0.6012956988160445,-0.7976731930944402
19.000000000000238,0.6103547071546938,-0.8048388686498814
19.200000000000482,0.6130274317964352,-0.8178609726864183
19.400000000000727,0.6165112711117317,-0.8278827124369279
19.60000000000097,0.6219977691745626,-0.8380900414033895
19.800000000001216,0.6290418184244978,-0.8511330131262143
20.00000000000146,0.6363581988381586,-0.8616512309884425
