Time (s),X (m),Y (m)
0.001,0.000949226864630559,-0.0007291460897812452
0.20000000000000015,-0.0008741298955036185,0.002809576795651511
0.4000000000000003,-0.0006183330644040526,0.003204640320891433
0.6000000000000004,0.0022999569563642705,-0.0010037989257080959
0.8000000000000006,0.005822507184582015,2.441729897943252e-05
1.0000000000000007,0.010833154154729085,-0.0009265756574773414
1.2009999999999785,0.015947142615280126,-0.002028774001187492
1.4009999999999565,0.020607116708515207,-0.0031091097140382223
1.6009999999999345,0.02505961031737521,-0.0040960806327629655
1.8009999999999124,0.030390149691722233,-0.004809975701976219
2.0009999999998906,0.036210367633695395,-0.006544638361879357
2.2009999999998686,0.041912862756201326,-0.008079472535037225
2.4009999999998466,0.04768807582387066,-0.009680431715423595
2.6009999999998246,0.053109399348919846,-0.011268541448913308
2.8009999999998025,0.05859228250460273,-0.011620229086671307
3.0009999999997805,0.0641457910675998,-0.01121918606061162
3.2009999999997585,0.0698057875087505,-0.011769351372006714
3.4009999999997365,0.07587189472592878,-0.01320344583546987
3.6009999999997144,0.08216637967364292,-0.014579994674146498
3.8009999999996924,0.08888127835693435,-0.014969371910001337
4.000999999999671,0.0954283906284262,-0.015425443154141986
4.200999999999738,0.10088917021823406,-0.01529257256776781
4.400999999999804,0.10668714194321582,-0.015123696423399384
4.600999999999871,0.11233603425906459,-0.014816728825464276
4.800999999999938,0.11790075542366371,-0.014874689747197712
5.000000000000004,0.12375662750214281,-0.014263784197544649
5.200000000000071,0.12947811555114924,-0.01338639183575708
5.400000000000138,0.13522403990733461,-0.0131696159479089
5.600000000000205,0.1391420123864341,-0.011919925191158698
5.800000000000272,0.1412957922959645,-0.01023207713373012
6.000000000000338,0.14535791443503226,-0.008892829598541223
6.200000000000405,0.14677681050022595,-0.006369967661218534
6.400000000000472,0.15011023049970865,-0.0048382748631745215
6.600000000000539,0.1527170538729504,-0.0031088092910858353
6.800000000000606,0.15541224793807415,7.013274153169657e-05
7.000000000000672,0.15855377014816427,0.0027726528798922992
7.200000000000739,0.1621696852854624,0.005354733460165595
7.400000000000806,0.1640342467175123,0.008684877619628729
7.600000000000873,0.16754574273068149,0.011360199149449244
7.8000000000009395,0.16987249772881707,0.015204315738342319
8.000000000001005,0.17315273122742877,0.01877132182656984
8.200000000000895,0.17442311895106521,0.02246526959729928
8.400000000000784,0.1773748584436401,0.025852409378889635
8.600000000000673,0.17905627226633505,0.03028196187377802
8.800000000000562,0.18136953453772317,0.03478432710529611
9.000000000000451,0.18412054303394632,0.03937173955843759
9.20000000000034,0.1846288823298527,0.04383996511676037
9.40000000000023,0.18795486014106166,0.04807368443912701
9.600000000000119,0.18811325005534973,0.0525029624184825
9.800000000000008,0.19055978577732818,0.05692386354004076
10.000999999999896,0.19241977632149085,0.06268498733935755
10.200999999999786,0.1921644123208065,0.06837667178593242
10.400999999999675,0.19506339050649785,0.07271650260431599
10.600999999999564,0.19575632114683428,0.07838364438344249
10.800999999999453,0.1969052498273693,0.08313565443398817
11.000999999999342,0.19668920845593976,0.08743119490441195
11.200999999999231,0.1967934347363397,0.09277983680133431
11.40099999999912,0.1968398896325265,0.0978985325413132
11.60099999999901,0.1973337451311503,0.10219731704915037
11.800999999998899,0.1974483794032822,0.10678895610034393
12.000999999998788,0.19768686582036943,0.1114045275129948
12.200999999998677,0.1980136473805088,0.11554006100737199
12.400999999998566,0.19830101692800148,0.11805798792088398
12.600999999998455,0.1975581529019378,0.12264755976417598
12.800999999998345,0.19708335471660607,0.12573758118358716
13.000999999998234,0.19703379059739,0.12852304547905458
13.200999999998123,0.19696689911993934,0.13086379741203716
13.400999999998012,0.19722372180545783,0.13436118232041191
13.600999999997901,0.1966404098114018,0.13690341221210126
13.80099999999779,0.19550110311319485,0.13941448090971617
14.00099999999768,0.19430812508353337,0.14121029907213423
14.200999999997569,0.19360831923404348,0.1433506817981478
14.400999999997458,0.19223281248604493,0.14662337666965664
14.600999999997347,0.19117763664156842,0.1487559894064371
14.800999999997236,0.1892253506443071,0.15142052715434492
15.000999999997125,0.18887155895406144,0.15365253717309654
15.200999999997014,0.18708714745399985,0.1556976588498175
15.400999999996904,0.18438505482019465,0.15819993572485005
15.600999999996793,0.18187901137362017,0.1608071540262149
15.800999999996682,0.17889149757730044,0.16286013187100168
16.000999999996573,0.17616573104366934,0.16481345700310313
16.200999999996817,0.17395656389155245,0.16557766719358497
16.40099999999706,0.17128369539363122,0.16750610734159585
16.600999999997306,0.1673793766374921,0.16901973945491625
16.80099999999755,0.16477939398593683,0.17047658062827642
17.000999999997795,0.16051836080089257,0.17233862322335683
17.20099999999804,0.15718487885045537,0.17366333880232468
17.400999999998284,0.15301050650276685,0.17425380311052738
17.60099999999853,0.15110661996422642,0.17552135718890904
17.800999999998773,0.14689138713254551,0.17759900167783418
18.000999999999017,0.14258468246842837,0.1785743419722454
18.20099999999926,0.1372421250692418,0.17949293316784504
18.400999999999506,0.13232576764512902,0.17989630432158518
18.60099999999975,0.12598799140127256,0.17973104089374195
18.799999999999994,0.11853814233002796,0.18010878229970365
19.000000000000238,0.11203698189741601,0.18003089447371484
19.200000000000482,0.10573063162729203,0.17984227775563325
19.400000000000727,0.09954569275055888,0.17960020346633748
19.60000000000097,0.09352743440386899,0.17885280625283997
19.800000000001216,0.0886848574736608,0.17808535444561732
20.00000000000146,0.08293659654217142,0.1772058768660949
