Time (s),X (m),Y (m)
0.001,-0.0003713730577023104,0.0008446836120385872
0.20000000000000015,0.0029669130936729534,-0.002765925882314378
0.4000000000000003,0.00333946760340783,0.012342293814206458
0.6000000000000004,0.010798732662323174,0.019279928063225236
0.8000000000000006,0.024944604168679125,0.03230427875393363
1.0000000000000007,0.04242310228186409,0.05796313048047089
1.2009999999999785,0.06057574882245309,0.07910260999891047
1.4009999999999565,0.08184859331557821,0.08260930960905052
1.6009999999999345,0.11076944624755374,0.08343607466960894
1.8009999999999124,0.13640142045550988,0.09002062757649901
2.0009999999998906,0.16255477484154376,0.0778288766188705
2.2009999999998686,0.185697627696378,0.06341836414906164
2.4009999999998466,0.20814439578452876,0.03729244843443732
2.6009999999998246,0.23955723597176642,0.021388429802731566
2.8009999999998025,0.2715159118080152,0.00625880471794389
3.0009999999997805,0.3049981419005216,-0.01016657694313931
3.2009999999997585,0.3316768375935929,-0.03412672916672243
3.4009999999997365,0.35708460213622095,-0.04266925453490886
3.6009999999997144,0.3810545594896975,-0.055373577689748446
3.8009999999996924,0.4004872700285119,-0.08235196448694303
4.000999999999671,0.416106602190925,-0.11238764640278318
4.200999999999738,0.4312197011677984,-0.14254952498212545
4.400999999999804,0.4450779254953968,-0.18010108619444398
4.600999999999871,0.4607120101458393,-0.21208926231511313
4.800999999999938,0.4790413564067181,-0.24906270356415067
5.000000000000004,0.49366481893027414,-0.2869184819750917
5.200000000000071,0.505340763578804,-0.32905129977810443
5.400000000000138,0.5147249106796163,-0.3728681082690861
5.600000000000205,0.5308819488930183,-0.4048270186422368
5.800000000000272,0.5495689677537536,-0.436517613534241
6.000000000000338,0.5669587991440446,-0.4663962838417856
6.200000000000405,0.5655033429545249,-0.49471858175459604
6.400000000000472,0.5664436899471345,-0.5266826413395428
6.600000000000539,0.5672238301092547,-0.5580935031476935
6.800000000000606,0.56468695789721,-0.5838834019940926
7.000000000000672,0.549866302276583,-0.6128923214275568
7.200000000000739,0.5253282772892793,-0.6340265652787568
7.400000000000806,0.4868611231427802,-0.6546062463483108
7.600000000000873,0.4415559566790138,-0.6751601846294802
7.8000000000009395,0.392594773706881,-0.6902988351514867
8.000000000001005,0.33850899281380215,-0.6945384856655668
8.200000000000895,0.2938527888023638,-0.7101205588793832
8.400000000000784,0.26009569048811115,-0.7357364092249039
8.600000000000673,0.22510335722916758,-0.7625160971833405
8.800000000000562,0.18640562851057532,-0.7744807616210444
9.000000000000451,0.15434867675523523,-0.7799539156378286
9.20000000000034,0.11996356920762462,-0.787272152317937
9.40000000000023,0.08551029587073648,-0.7691561993557635
9.600000000000119,0.05614206527396594,-0.742999611360868
9.800000000000008,0.02452885727126555,-0.721051440081166
10.000999999999896,-0.0016258008487450074,-0.6913640126803801
10.200999999999786,-0.019153598315566442,-0.6505457518762456
10.400999999999675,-0.026917687860782906,-0.5988880143275819
10.600999999999564,-0.03586682958448072,-0.5521054273850567
10.800999999999453,-0.04978138296712002,-0.5097486650264186
11.000999999999342,-0.06638535827064336,-0.46819006532271445
11.200999999999231,-0.08665473069969568,-0.42856365575729083
11.40099999999912,-0.0900738683836725,-0.3889140766623701
11.60099999999901,-0.09798716508543551,-0.3471154206821772
11.800999999998899,-0.10581528691686594,-0.29848422713953643
12.000999999998788,-0.10463912017915963,-0.2373992599081432
12.200999999998677,-0.09983795989585997,-0.17827868402079974
12.400999999998566,-0.1013479566355627,-0.1312507469994835
12.600999999998455,-0.0971275627694933,-0.08693813510455424
12.800999999998345,-0.08592386787449152,-0.04516744450636614
13.000999999998234,-0.0626949463541971,-0.007486348472846419
13.200999999998123,-0.03583742576666171,0.019124451587521563
13.400999999998012,-0.003936227906431559,0.03878155076657019
13.600999999997901,0.04552039184049587,0.051196041869219486
13.80099999999779,0.09198213618605483,0.06369680396961093
14.00099999999768,0.13144958569920107,0.07854286816986725
14.200999999997569,0.16789847755432724,0.09218733713666011
14.400999999997458,0.20806790643095704,0.10111668588554874
14.600999999997347,0.24378152969890254,0.08477688187143573
14.800999999997236,0.2725834689863024,0.05757928861081872
15.000999999997125,0.30739652066942447,0.02290055099965748
15.200999999997014,0.3376534952559902,-0.004824266263753999
15.400999999996904,0.36751311068917464,-0.025382022788945146
15.600999999996793,0.39340473464413733,-0.05470903001924565
15.800999999996682,0.40895277734123464,-0.10308606405443861
16.000999999996573,0.4244775387677574,-0.15089740337404756
16.200999999996817,0.43974812402081326,-0.19918605882505966
16.40099999999706,0.4455125896533192,-0.25015071746067585
16.600999999997306,0.4493528091867833,-0.29642486345482716
16.80099999999755,0.4423188897445964,-0.34302517101614405
17.000999999997795,0.4409762889143229,-0.3907405397900947
17.20099999999804,0.405023220468083,-0.4190763223291218
17.400999999998284,0.3593654026525758,-0.44130662982529045
17.60099999999853,0.3114198640839257,-0.45456894704329665
17.800999999998773,0.26460136279670415,-0.4646636520464253
18.000999999999017,0.221825058939059,-0.48004448571737646
18.20099999999926,0.1806865402656286,-0.49075762519905614
18.400999999999506,0.13746515988145558,-0.48933901578837574
18.60099999999975,0.08699145928686886,-0.4750802683411362
18.799999999999994,0.034844485003585245,-0.46112232196478004
19.000000000000238,-0.01181786268760127,-0.4515713340128309
19.200000000000482,-0.05304280284688896,-0.4172728792669387
19.400000000000727,-0.08686840168254173,-0.38517834188017164
19.60000000000097,-0.11345877245844803,-0.3541647469128334
19.800000000001216,-0.13597536895144188,-0.3182109873706233
20.00000000000146,-0.1561186963898581,-0.2814459363615595
