Time (s),X (m),Y (m)
0.001,0.0005727611008870025,-0.0009689812320744441
0.20000000000000015,0.0027533402574108456,-0.004801701932120964
0.4000000000000003,0.0047810812160925635,-0.007160380659485999
0.6000000000000004,0.007422276054717116,-0.004724568132834942
0.8000000000000006,0.013081806986533107,-0.009346064834915862
1.0000000000000007,0.018091367665534222,-0.0075056016759588815
1.2009999999999785,0.024966728339545313,-0.009736724738000318
1.4009999999999565,0.03215826432998435,-0.0016001622080306038
1.6009999999999345,0.04582955251247716,-0.005173609943274949
1.8009999999999124,0.05780185775302059,-0.009937578967657264
2.0009999999998906,0.062407069021205915,-0.009221469994716193
2.2009999999998686,0.06862068739740253,-0.012834442948806587
2.4009999999998466,0.07346401401232991,-0.01133501717244932
2.6009999999998246,0.08127839413941083,-0.012395644902448617
2.8009999999998025,0.08852199617599374,-0.01776769116823071
3.0009999999997805,0.08744626173956813,-0.00808862561549085
3.2009999999997585,0.09155327987587204,-0.0033895534973761177
3.4009999999997365,0.09949261522296261,-0.003376483278677513
3.6009999999997144,0.1101043362897623,-0.008702915305749955
3.8009999999996924,0.11892364585125705,-0.011966946678966497
4.000999999999671,0.12819163140664053,-0.01324660667705018
4.200999999999738,0.13500450968410788,-0.0076180096546888286
4.400999999999804,0.14221989139680002,-0.006501500384559969
4.600999999999871,0.1529022374125023,-0.0075781881474340194
4.800999999999938,0.1658624809937019,-0.012460709232279921
5.000000000000004,0.17435930397684382,-0.01211509006570181
5.200000000000071,0.18367454299742958,-0.011134535412030563
5.400000000000138,0.18922148803518438,-0.006915904219017274
5.600000000000205,0.19377899379575295,-0.0027078352791972678
5.800000000000272,0.20140571239796945,-0.0009256858791769536
6.000000000000338,0.2072834166728263,-0.0009287878347793413
6.200000000000405,0.21303433793480037,0.0017535777677266824
6.400000000000472,0.2232661570157614,0.003537673408507205
6.600000000000539,0.23561881060818732,0.005629136300675683
6.800000000000606,0.2426676200780006,0.008451599637297504
7.000000000000672,0.25178671618266923,0.010588298337100932
7.200000000000739,0.2601862014680631,0.01352322864877971
7.400000000000806,0.26692689377427986,0.016844416465605926
7.600000000000873,0.2766096971594735,0.01976996602615487
7.8000000000009395,0.2874046779265195,0.023469967608669838
8.000000000001005,0.29433713097126474,0.027107454690018525
8.200000000000895,0.3006962851683844,0.03213642801244832
8.400000000000784,0.3102623220735297,0.03696881005787124
8.600000000000673,0.31792772500618355,0.04158637762750925
8.800000000000562,0.3221954701424352,0.04709436843955052
9.000000000000451,0.32945237491072976,0.05172984176792146
9.20000000000034,0.3350868654346067,0.05725022552411733
9.40000000000023,0.338926779793353,0.06297520200484445
9.600000000000119,0.34852029651189564,0.06943833626830088
9.800000000000008,0.3563386061881831,0.07507245792611207
10.000999999999896,0.36126855373892297,0.08165051570993295
10.200999999999786,0.3660283017034326,0.08777859932457573
10.400999999999675,0.3632739237629797,0.0929850129331331
10.600999999999564,0.3683466312487093,0.09988128395874064
10.800999999999453,0.37290030763174736,0.10597878757205251
11.000999999999342,0.3753297324850416,0.11285017479572179
11.200999999999231,0.37540917067135043,0.11894085724922532
11.40099999999912,0.3794101854516283,0.12667592843645947
11.60099999999901,0.3844159685821167,0.13261974617568037
11.800999999998899,0.387395857658496,0.1391891771435261
12.000999999998788,0.3920724555838609,0.1459245977284588
12.200999999998677,0.3976928211286395,0.15234805535048684
12.400999999998566,0.398934027655942,0.15969970185606583
12.600999999998455,0.4060851681259319,0.16826778731496994
12.800999999998345,0.4098687849016009,0.1742491258230276
13.000999999998234,0.4131600614410372,0.18211904651512836
13.200999999998123,0.4147966199108651,0.18948829251557014
13.400999999998012,0.41722561262940083,0.1972320852675941
13.600999999997901,0.42005644264438896,0.20429001258154447
13.80099999999779,0.4201649494283905,0.2107627277168381
14.00099999999768,0.42289512206057533,0.21774743358125234
14.200999999997569,0.4246165348314396,0.22711766469016723
14.400999999997458,0.4273911645198018,0.2351306360624409
14.600999999997347,0.4344648373375701,0.24402854882197714
14.800999999997236,0.435305993433643,0.2523531075491592
15.000999999997125,0.4324996710791592,0.25861226945185206
15.200999999997014,0.43813020076877485,0.2683954815640221
15.400999999996904,0.4390794210576528,0.27716834801106827
15.600999999996793,0.44601234273965945,0.28601782652867463
15.800999999996682,0.44733354124685215,0.2935322629324121
16.000999999996573,0.4492673994102521,0.3024211220810456
16.200999999996817,0.44884746549280424,0.31134864889583047
16.40099999999706,0.4462244930403918,0.32052303573875623
16.600999999997306,0.44921357470137624,0.33232530921530673
16.80099999999755,0.4506994244914191,0.3407688807554051
17.000999999997795,0.44930188294694606,0.3487599964233706
17.20099999999804,0.4467234209105951,0.3571439853271196
17.400999999998284,0.4505453273788983,0.3668571206980065
17.60099999999853,0.4485972889327299,0.3779489444716632
17.800999999998773,0.4492993904935997,0.3880827712988047
18.000999999999017,0.4497336337397965,0.399633547310666
18.20099999999926,0.45207161854281175,0.41036034431612584
18.400999999999506,0.45136459265074835,0.42097357298105376
18.60099999999975,0.44729341848444937,0.4273687015216541
18.799999999999994,0.45028597160731104,0.43839484429107817
19.000000000000238,0.4489668163134527,0.4464406319628466
19.200000000000482,0.4471506214772622,0.4550504586892382
19.400000000000727,0.4488446946598818,0.467508289045352
19.60000000000097,0.45046631648608243,0.47840974150634036
19.800000000001216,0.4488466741890412,0.48998153889345053
20.00000000000146,0.4479104080877352,0.5000062271530139
