Time (s),X (m),Y (m)
0.001,0.0010100015126501532,0.0006628221997479689
0.20000000000000015,-0.003096724379192403,-0.0020687961700224617
0.4000000000000003,0.007272301070773159,0.003339549046602722
0.6000000000000004,0.022666710924449242,0.002557882397083752
0.8000000000000006,0.03852821396929326,0.005493187071123785
1.0000000000000007,0.053661168385326766,0.010353059341222095
1.2009999999999785,0.0701488751581488,0.011018500171464687
1.4009999999999565,0.09763595889104718,0.015326008994221934
1.6009999999999345,0.11721523105466564,0.019021329048795943
1.8009999999999124,0.14444845826373784,0.03117435168537793
2.0009999999998906,0.1606383320698669,0.026640200203760053
2.2009999999998686,0.17037145981296822,0.017752513059139222
2.4009999999998466,0.1911119350063929,0.02307480163375635
2.6009999999998246,0.2169664816272914,0.03422469248408175
2.8009999999998025,0.24359208072105343,0.032945993297276564
3.0009999999997805,0.27381542489328026,0.020503781322440434
3.2009999999997585,0.32048353913745475,0.013104974849375565
3.4009999999997365,0.35717009578964953,0.00598512889159463
3.6009999999997144,0.3933228046808443,-0.006095706428833848
3.8009999999996924,0.4182458429528709,-0.01878188181854311
4.000999999999671,0.44022055596011567,-0.04277675710310638
4.200999999999738,0.46775597920690815,-0.07361951225940797
4.400999999999804,0.4942980915448067,-0.10528336436310173
4.600999999999871,0.5147546700888471,-0.14389252555783302
4.800999999999938,0.5242829416541003,-0.17880063270268526
5.000000000000004,0.54662343037661,-0.20693748787199467
5.200000000000071,0.5614455155609848,-0.2307129026931963
5.400000000000138,0.5719594887241594,-0.25391597011441147
5.600000000000205,0.599492918322926,-0.26986060454302524
5.800000000000272,0.6334298413836609,-0.2872717468169801
6.000000000000338,0.6625074607332413,-0.3098812399565086
6.200000000000405,0.685320848883801,-0.33181174466745994
6.400000000000472,0.7223678543767098,-0.3550460477879936
6.600000000000539,0.7616914069888497,-0.37697950049184176
6.800000000000606,0.7935949626347794,-0.40115112577055206
7.000000000000672,0.8237163577411529,-0.4244765288113801
7.200000000000739,0.8599867695529414,-0.44240154913938096
7.400000000000806,0.8788270327117911,-0.4707255488473106
7.600000000000873,0.9025319819907055,-0.4977899141460944
7.8000000000009395,0.9323539686635616,-0.5237594564464989
8.000000000001005,0.9663500530025263,-0.5453583000762549
8.200000000000895,1.0013659025256108,-0.5631007926031418
8.400000000000784,1.0237388572533919,-0.5866232623143398
8.600000000000673,1.0499547254113224,-0.6148261645766249
8.800000000000562,1.0845620326077765,-0.644691301428861
9.000000000000451,1.1131780129906463,-0.6709061223354365
9.20000000000034,1.1521084951577756,-0.6813340028496734
9.40000000000023,1.1930614229090002,-0.6986451055226571
9.600000000000119,1.2474680280298764,-0.7108397753697047
9.800000000000008,1.2882055695983614,-0.7229954268275289
10.000999999999896,1.324269887931601,-0.7385930727434433
10.200999999999786,1.36219885617022,-0.7604807628090765
10.400999999999675,1.3944802180363252,-0.7818867171328194
10.600999999999564,1.4300379665157592,-0.8000711922214956
10.800999999999453,1.4642067072310756,-0.8182387964639833
11.000999999999342,1.4912769221527202,-0.8347379953365734
11.200999999999231,1.5182294092902668,-0.8473473509407116
11.40099999999912,1.5456805228090542,-0.8557449907687553
11.60099999999901,1.5745330788887726,-0.8665284938578771
11.800999999998899,1.6147839227005447,-0.8823831948789848
12.000999999998788,1.6590571495709485,-0.903201808630031
12.200999999998677,1.7032302139972701,-0.9221623094667061
12.400999999998566,1.7463878995610538,-0.9298592915119149
12.600999999998455,1.7957792815994478,-0.9301225642632444
12.800999999998345,1.845114232708529,-0.9273483385952345
13.000999999998234,1.8909998753536135,-0.9259788713499046
13.200999999998123,1.9434038063075205,-0.9204816947752902
13.400999999998012,1.9932164983589713,-0.915337969608032
13.600999999997901,2.0445458310880884,-0.9089720331471401
13.80099999999779,2.09284459324806,-0.9028846424954332
14.00099999999768,2.1370005652910398,-0.8988137711477601
14.200999999997569,2.1736099153985884,-0.8934348335980296
14.400999999997458,2.21044910625181,-0.8870956779068186
14.600999999997347,2.2562247166068325,-0.8841334422368817
14.800999999997236,2.2876446561096033,-0.8890171605953667
15.000999999997125,2.3175487620276773,-0.8890794789318952
15.200999999997014,2.353899030736194,-0.8832903338929724
15.400999999996904,2.3871256719465186,-0.8803416348980003
15.600999999996793,2.4336647004770784,-0.8791835265673457
15.800999999996682,2.4726473636905695,-0.8763040333286543
16.000999999996573,2.5054645268631077,-0.8721008498725487
16.200999999996817,2.5345090027480692,-0.867547813651026
16.40099999999706,2.5864103808188315,-0.8663858883907762
16.600999999997306,2.63128660703662,-0.8668104058212813
16.80099999999755,2.676380652912736,-0.8700103227384847
17.000999999997795,2.733834119229604,-0.8727322805728887
17.20099999999804,2.7787148426848027,-0.8772484404169735
17.400999999998284,2.819161266056949,-0.8833577882599892
17.60099999999853,2.8487878998983,-0.9025772468384138
17.800999999998773,2.8731632064611308,-0.9303725997805987
18.000999999999017,2.900663076865272,-0.966417857553468
18.20099999999926,2.934569995430216,-1.0072929717400894
18.400999999999506,2.9619567395028525,-1.04760571999701
18.60099999999975,2.988543344399765,-1.0845095434708043
18.799999999999994,3.0093232231022364,-1.117593207808322
19.000000000000238,3.0267554189872805,-1.1542161615740782
19.200000000000482,3.038962698831313,-1.1901947335066485
19.400000000000727,3.0644107204180786,-1.2210662023966412
19.60000000000097,3.095167648813997,-1.2563488650652392
19.800000000001216,3.117786946572957,-1.2883614100131449
20.00000000000146,3.142877364229506,-1.3243391672362541
