Time (s),X (m),Y (m)
0.001,0.0003099530129853942,-0.0010272443824616275
0.20000000000000015,0.0011171217234854046,0.00380364327640734
0.4000000000000003,0.004559332778340257,-0.005832203220015025
0.6000000000000004,0.012249047635073717,-0.016962184655196
0.8000000000000006,0.024502018246777457,-0.03025668800168389
1.0000000000000007,0.04546458858088538,-0.0376092535060678
1.2009999999999785,0.07102144593576923,-0.03701285879450932
1.4009999999999565,0.09695769310132187,-0.034029248417315146
1.6009999999999345,0.11394813553798434,-0.03730932579794795
1.8009999999999124,0.13350187393159618,-0.04387088939151903
2.0009999999998906,0.1570911316580844,-0.05468498557553946
2.2009999999998686,0.1828828516856515,-0.062260629036062096
2.4009999999998466,0.208320414046928,-0.06307322183560105
2.6009999999998246,0.23358083054406967,-0.05749295916552294
2.8009999999998025,0.25797793244933864,-0.06660548532285815
3.0009999999997805,0.2901270273302511,-0.06883373500579452
3.2009999999997585,0.3072244237964921,-0.08398375447864337
3.4009999999997365,0.32195671855573255,-0.11401359925129206
3.6009999999997144,0.33008645309147794,-0.14944783616974217
3.8009999999996924,0.3467711080736476,-0.17430484745169045
4.000999999999671,0.36779561972660707,-0.18305039699116915
4.200999999999738,0.39193311892039234,-0.19376911982062098
4.400999999999804,0.4239184909346781,-0.21480335599586436
4.600999999999871,0.4624943837991715,-0.22895633913314414
4.800999999999938,0.4863047037249713,-0.24563321484273226
5.000000000000004,0.5020507197802854,-0.26665533799079655
5.200000000000071,0.5196432342126552,-0.28010116170585575
5.400000000000138,0.5507120631930926,-0.283649308874932
5.600000000000205,0.5700280924487128,-0.30405368632099306
5.800000000000272,0.5921389660554904,-0.30917839047102924
6.000000000000338,0.6209556781710042,-0.3059062839141276
6.200000000000405,0.6389894125433699,-0.3227430858341264
6.400000000000472,0.6547641275311641,-0.33960439128255143
6.600000000000539,0.6755099069978112,-0.3663885313250107
6.800000000000606,0.6930847315950012,-0.3871924638183556
7.000000000000672,0.71810218128209,-0.3982454348403854
7.200000000000739,0.7518397743153115,-0.4088408222665388
7.400000000000806,0.7781892994014704,-0.42916313294116254
7.600000000000873,0.7991334966910231,-0.4505531306733825
7.8000000000009395,0.8205223880100273,-0.4818119099967027
8.000000000001005,0.8441517891439145,-0.4996888590275672
8.200000000000895,0.8772227842299385,-0.5093135423404594
8.400000000000784,0.9061989390759078,-0.5331564976862477
8.600000000000673,0.9273310292623437,-0.5466135573850447
8.800000000000562,0.9534902653395563,-0.558001241399106
9.000000000000451,0.9697330660933164,-0.5729614702013271
9.20000000000034,0.9946927924366956,-0.5694905619625745
9.40000000000023,1.018670506151212,-0.5816594523114194
9.600000000000119,1.0447661199257061,-0.5922530440853806
9.800000000000008,1.0721461041040041,-0.6103282974335601
10.000999999999896,1.1000358132543022,-0.6210601232521844
10.200999999999786,1.1263600750035405,-0.6421779123738769
10.400999999999675,1.1592124395252803,-0.6645384547842672
10.600999999999564,1.1974808321456134,-0.670637755123279
10.800999999999453,1.2263802248362756,-0.6723080882215235
11.000999999999342,1.2470169629700854,-0.6862667241752762
11.200999999999231,1.2820144807479297,-0.6813307455023206
11.40099999999912,1.3085153906703082,-0.681149833296716
11.60099999999901,1.3393722264675318,-0.6875322374587926
11.800999999998899,1.375367413986626,-0.6919478080797832
12.000999999998788,1.408051478729878,-0.696487593285789
12.200999999998677,1.4394434345879161,-0.714316637723844
12.400999999998566,1.4690483948825688,-0.728606750898889
12.600999999998455,1.494223123671095,-0.7350818464276144
12.800999999998345,1.5109632617714919,-0.7667597298462601
13.000999999998234,1.5299478464260368,-0.7844306997631441
13.200999999998123,1.5490729937868721,-0.8029416880382099
13.400999999998012,1.5733092608678494,-0.8213029084770352
13.600999999997901,1.5951211766808662,-0.8308358603867307
13.80099999999779,1.619576560768588,-0.8414860423108056
14.00099999999768,1.6341472624704483,-0.8588280718144312
14.200999999997569,1.655879794948682,-0.8690357408614477
14.400999999997458,1.6821298240417781,-0.8807008350323338
14.600999999997347,1.71021202326695,-0.8988151375530457
14.800999999997236,1.7368861745898714,-0.9032661658141902
15.000999999997125,1.7636669447597961,-0.9185409069696535
15.200999999997014,1.7959311710459729,-0.9368136711021658
15.400999999996904,1.8218870712454343,-0.953641060950893
15.600999999996793,1.838431088600984,-0.9728753874533336
15.800999999996682,1.8578894891537334,-0.9890312010048592
16.000999999996573,1.8783620053979664,-1.0146943834927056
16.200999999996817,1.8924665843376465,-1.044094908705966
16.40099999999706,1.9132530323988084,-1.0689013549394062
16.600999999997306,1.9308732485035045,-1.0907043271005306
16.80099999999755,1.9587574970260175,-1.098923935618701
17.000999999997795,1.9803238861212171,-1.1135837808050681
17.20099999999804,2.0094493488693526,-1.1332921894232753
17.400999999998284,2.0447319933078876,-1.1400457425598867
17.60099999999853,2.0670775294825825,-1.1531665775052053
17.800999999998773,2.08425193877487,-1.1751699747790336
18.000999999999017,2.10738183639639,-1.2018198484110714
18.20099999999926,2.1262954420964704,-1.2298701994730872
18.400999999999506,2.146467713543569,-1.241770771813844
18.60099999999975,2.171006186896517,-1.2438915468823706
18.799999999999994,2.192279003426144,-1.2580315311936485
19.000000000000238,2.213123591985373,-1.274143277211799
19.200000000000482,2.234152601588471,-1.3005742220514658
19.400000000000727,2.251540379652476,-1.324039957111366
19.60000000000097,2.2720816364333203,-1.3528663467522855
19.800000000001216,2.297470702366292,-1.3660465882775614
20.00000000000146,2.3280681735740383,-1.3859930125127713
