Time (s),X (m),Y (m)
0.001,-0.0004427414248986554,0.0007899207378008392
0.20000000000000015,0.0025753389017599015,0.0008130765836289934
0.4000000000000003,0.010026372135405408,-0.006818238272058505
0.6000000000000004,0.028456174011597665,-0.006467218674408233
0.8000000000000006,0.05431398881654722,-0.0012261292918769723
1.0000000000000007,0.09012730605988087,0.0058592180009462294
1.2009999999999785,0.14550049840999202,0.0031438240792710423
1.4009999999999565,0.20049899104001645,-0.004679986132998072
1.6009999999999345,0.2533021653095361,-0.022856240304258216
1.8009999999999124,0.29634413778244684,-0.07428256137872397
2.0009999999998906,0.32865058276716363,-0.1303922389264895
2.2009999999998686,0.3552318041656664,-0.18536341165247258
2.4009999999998466,0.3721231418425852,-0.23891379712254582
2.6009999999998246,0.37563485347985165,-0.29423645455293324
2.8009999999998025,0.3773374118747296,-0.3439228837524612
3.0009999999997805,0.3574708854584137,-0.38816117620703755
3.2009999999997585,0.3180131935996523,-0.42928822691312524
3.4009999999997365,0.270025643122859,-0.4622825105173392
3.6009999999997144,0.21472290212860753,-0.4709825520115776
3.8009999999996924,0.15623406524487712,-0.4600217220642691
4.000999999999671,0.10798445314979985,-0.4271313702730815
4.200999999999738,0.07648418076583768,-0.37406332639796264
4.400999999999804,0.0659097795815566,-0.3091266468537074
4.600999999999871,0.06242401236656725,-0.2415872635285631
4.800999999999938,0.06933784842593728,-0.1756965085325238
5.000000000000004,0.0985716726671419,-0.11808656312273294
5.200000000000071,0.12697065127832685,-0.06848024018138922
5.400000000000138,0.1657717610499699,-0.027076917592757137
5.600000000000205,0.2092822826173388,0.0036900844489189686
5.800000000000272,0.26044555340264675,0.01997567627539072
6.000000000000338,0.3176996665883605,0.028487084768369326
6.200000000000405,0.3741563247517656,0.03873738149596958
6.400000000000472,0.4350460985455075,0.049701430613583154
6.600000000000539,0.5064689000319407,0.047713764846443844
6.800000000000606,0.5795437250425333,0.033606823731547594
7.000000000000672,0.6448058353430894,0.016153731466952915
7.200000000000739,0.7037864163049311,-0.01503592979841647
7.400000000000806,0.73855528991259,-0.07080292663458741
7.600000000000873,0.7447635994915446,-0.13147121424612088
7.8000000000009395,0.7306234441352777,-0.19290540022206903
8.000000000001005,0.7071938747941978,-0.2498021528061953
8.200000000000895,0.6645647598176054,-0.29489273784578696
8.400000000000784,0.5989421298321416,-0.3294409197332959
8.600000000000673,0.526133332828682,-0.35267068045432337
8.800000000000562,0.44562788528096653,-0.3491165178939356
9.000000000000451,0.3731467865382266,-0.3450891861093493
9.20000000000034,0.3134788734670355,-0.32207735867388276
9.40000000000023,0.2717700500041898,-0.28232420268033304
9.600000000000119,0.24126869434712622,-0.23482469394114194
9.800000000000008,0.22487565101237356,-0.1768177328870726
10.000999999999896,0.22400695038800864,-0.11614938738927619
10.200999999999786,0.2426931022381117,-0.0574175317471712
10.400999999999675,0.2967419891477205,-0.01115135604750466
10.600999999999564,0.3611949963811154,0.014579828448131285
10.800999999999453,0.4304994042108896,0.03186093516826577
11.000999999999342,0.49542019416123007,0.04392851230158509
11.200999999999231,0.5565716310304628,0.050590212986297095
11.40099999999912,0.6102389758145769,0.02425366469925422
11.60099999999901,0.6523532874841096,-0.0188313967851654
11.800999999998899,0.6897070336241303,-0.06641197250792054
12.000999999998788,0.7152105337764894,-0.12342118527559462
12.200999999998677,0.72962702788646,-0.18675303236103755
12.400999999998566,0.7301742408342943,-0.2517518449222359
12.600999999998455,0.7046743751525085,-0.3109785795774335
12.800999999998345,0.6704323871027927,-0.36422253684215783
13.000999999998234,0.633267254640358,-0.40876258329249043
13.200999999998123,0.5818327263157727,-0.44064560889288523
13.400999999998012,0.5180467227879879,-0.46704882911254214
13.600999999997901,0.45264850137663964,-0.48081177230960853
13.80099999999779,0.3924944806268804,-0.4691622381153757
14.00099999999768,0.3409620736541959,-0.43447297402725676
14.200999999997569,0.3018361607879797,-0.38543080725216583
14.400999999997458,0.27793230142692205,-0.3308513679492541
14.600999999997347,0.27047043977648627,-0.27262034365720167
14.800999999997236,0.27787155998307955,-0.2142090421849189
15.000999999997125,0.30895749218323665,-0.1623420302574187
15.200999999997014,0.3672126871979983,-0.13153646831477525
15.400999999996904,0.432975908621144,-0.1133296172474436
15.600999999996793,0.5007436441296168,-0.10470964249305194
15.800999999996682,0.572529764657418,-0.10519195192856791
16.000999999996573,0.6468948986285686,-0.10861506701569926
16.200999999996817,0.7169318991357291,-0.14346249941571262
16.40099999999706,0.7693304173177371,-0.18718198100853833
16.600999999997306,0.8000989441465084,-0.23934722566682196
16.80099999999755,0.8051841518202567,-0.3065987894789587
17.000999999997795,0.7893552117304257,-0.37003452755965344
17.20099999999804,0.7572558888370532,-0.42519744160987016
17.400999999998284,0.7101712203326928,-0.46633594080020424
17.60099999999853,0.6455681497720452,-0.49590439874524306
17.800999999998773,0.5905718681890556,-0.5245601468699965
18.000999999999017,0.5326328789926493,-0.546585434178972
18.20099999999926,0.4670611897930181,-0.5575266152558113
18.400999999999506,0.3942480324376023,-0.5316823314646232
18.60099999999975,0.32899889635426605,-0.4790541202337732
18.799999999999994,0.2757862854828977,-0.42538323988935145
19.000000000000238,0.24584423998884397,-0.36506919048337244
19.200000000000482,0.23060194566394965,-0.30580242943866814
19.400000000000727,0.22861133408470138,-0.24850131976131876
19.60000000000097,0.2649519076602939,-0.19234078375519234
19.800000000001216,0.32651904540517146,-0.14381579971934658
20.00000000000146,0.38222665260310407,-0.10586280820217848
