Time (s),X (m),Y (m)
0.001,0.0001302085367132322,-0.0010272443824616275
0.20000000000000015,0.000549253105194789,-0.004714595633481822
0.4000000000000003,0.003409224787809605,-0.003532111816271875
0.6000000000000004,0.006783940010267504,-0.005565649193084398
0.8000000000000006,0.014462791555647449,-0.005810974738964206
1.0000000000000007,0.021061664638154606,0.0011575130510543237
1.2009999999999785,0.03217877930253267,0.0006757352097345626
1.4009999999999565,0.0391917982431701,-0.003951460557005583
1.6009999999999345,0.04455066004173079,0.0029863996297599827
1.8009999999999124,0.054181615941843425,0.003232955884551597
2.0009999999998906,0.06314217240323335,0.00399324364350887
2.2009999999998686,0.07003920231002897,0.002732287757174092
2.4009999999998466,0.07762824635773005,0.003046876406276199
2.6009999999998246,0.08425702420549998,0.005018573466686659
2.8009999999998025,0.09050866801379008,0.002081322259676363
3.0009999999997805,0.09796533145364636,0.006033268439544959
3.2009999999997585,0.10571389786854173,0.00535853622534226
3.4009999999997365,0.113735696588784,0.0038681209430325397
3.6009999999997144,0.12163131802246524,0.005886973437989775
3.8009999999996924,0.13045170610447882,0.006858181697078152
4.000999999999671,0.14492741230912598,0.016185644637794976
4.200999999999738,0.15371555711916796,0.007462585442660332
4.400999999999804,0.15916014784374302,0.0024807116425247192
4.600999999999871,0.16597666401369202,-0.003900513645158475
4.800999999999938,0.17118087109024668,-0.012515355111043285
5.000000000000004,0.17860351958463747,-0.010330868053152805
5.200000000000071,0.19202902868031013,-0.007149959815922174
5.400000000000138,0.20149508464189414,-0.011068738505230267
5.600000000000205,0.20590202600483481,-0.018464466739708637
5.800000000000272,0.21376748209300986,-0.012314430061710162
6.000000000000338,0.2227504692270319,-0.016079292356857785
6.200000000000405,0.23287437922131796,-0.011065952213233443
6.400000000000472,0.23952623275079354,-0.019960890265860398
6.600000000000539,0.2465171409619011,-0.020116167826584416
6.800000000000606,0.2552708260321749,-0.02274341548294166
7.000000000000672,0.2669561869076012,-0.021407391472149647
7.200000000000739,0.27613201300279966,-0.022346481860961966
7.400000000000806,0.2839570455693444,-0.027242371322212224
7.600000000000873,0.29698944950107165,-0.025745582151216247
7.8000000000009395,0.3100649037465186,-0.02544616917070425
8.000000000001005,0.3205194142453114,-0.023106678624213815
8.200000000000895,0.32948594786622054,-0.022933404443641336
8.400000000000784,0.3364528251406295,-0.031206502432103052
8.600000000000673,0.3428312773471522,-0.03966188827817484
8.800000000000562,0.3503561668054496,-0.043113732784392796
9.000000000000451,0.36069208003882325,-0.04217302553015837
9.20000000000034,0.3715904430728126,-0.04111733137541914
9.40000000000023,0.3851838662645848,-0.03581383029583654
9.600000000000119,0.3950091420431446,-0.04070794974254319
9.800000000000008,0.40157526362804913,-0.04579059473095526
10.000999999999896,0.4079494129638271,-0.048608041493752724
10.200999999999786,0.41874194600418946,-0.052051196757388736
10.400999999999675,0.426517959595138,-0.0522421539407471
10.600999999999564,0.4342428095995002,-0.0572710094798127
10.800999999999453,0.44254400642082786,-0.06374577104284863
11.000999999999342,0.44933796101800366,-0.06782449006064159
11.200999999999231,0.4605115148051493,-0.06581280573150722
11.40099999999912,0.47393252666321906,-0.06094889661426096
11.60099999999901,0.48447217923653346,-0.06510639094901464
11.800999999998899,0.49387828420233987,-0.06797699069204205
12.000999999998788,0.5029081599922489,-0.06426921161822226
12.200999999998677,0.5147670826424317,-0.0610008807072174
12.400999999998566,0.5236389692014699,-0.06471370378012828
12.600999999998455,0.5308394883049713,-0.07012684362112163
12.800999999998345,0.5393228260213881,-0.07426362560069465
13.000999999998234,0.544674719637851,-0.08178136977476234
13.200999999998123,0.5541084738651526,-0.08685547100774907
13.400999999998012,0.5672095068408325,-0.08247540747988076
13.600999999997901,0.5723746942186649,-0.09677793375639379
13.80099999999779,0.5792654513057209,-0.09714165001359255
14.00099999999768,0.5906505872755787,-0.09886419390725112
14.200999999997569,0.5969338290199435,-0.10790568245700356
14.400999999997458,0.6015065495234236,-0.12114685644519534
14.600999999997347,0.6075647234053769,-0.12668534705224752
14.800999999997236,0.6163131874144173,-0.12692573992422695
15.000999999997125,0.624613226202075,-0.13247832898775128
15.200999999997014,0.6350007360111349,-0.12908036100701856
15.400999999996904,0.6429649875526618,-0.1396065513160161
15.600999999996793,0.654132124837505,-0.1402735473274659
15.800999999996682,0.6648805247011756,-0.13896857761295076
16.000999999996573,0.6762900927156307,-0.13596560829748672
16.200999999996817,0.6854240962007788,-0.14037421928129143
16.40099999999706,0.6948986473093239,-0.1437742100688941
16.600999999997306,0.7040281949195294,-0.150182464450226
16.80099999999755,0.7164151986773597,-0.1459954142894808
17.000999999997795,0.7283754581949964,-0.15173541666432935
17.20099999999804,0.7411650066992054,-0.14737158887629861
17.400999999998284,0.7498693670105077,-0.15659679712586674
17.60099999999853,0.757387064461983,-0.16178292787016724
17.800999999998773,0.7672398544236615,-0.16260998641757404
18.000999999999017,0.77718463885201,-0.16420840635884726
18.20099999999926,0.7854059600370612,-0.16837576917551242
18.400999999999506,0.7951558140894281,-0.16910125406677762
18.60099999999975,0.8045916601907052,-0.17301030217046787
18.799999999999994,0.8117139667282005,-0.17934836861861084
19.000000000000238,0.8201243648796104,-0.18241205889094655
19.200000000000482,0.8327094781778661,-0.1787634635310724
19.400000000000727,0.8460483607050173,-0.17967116420271145
19.60000000000097,0.8535762039505603,-0.18429613492648875
19.800000000001216,0.8643218795785215,-0.18536152916910056
20.00000000000146,0.8696772937308507,-0.19271282170815834
