Time (s),X (m),Y (m)
0.001,0.0006558713247593165,-0.0009345558501746678
0.20000000000000015,-0.0001746476006565802,0.0035131469323545174
0.4000000000000003,0.00873159032218052,-0.011481397083568054
0.6000000000000004,0.02995582914240298,-0.026706726312962604
0.8000000000000006,0.05958229915083153,-0.03946174947009702
1.0000000000000007,0.09384759553265316,-0.07101309009900546
1.2009999999999785,0.1380728962326121,-0.11289065600784817
1.4009999999999565,0.17504496561577004,-0.17175804955091245
1.6009999999999345,0.21098832708056647,-0.2462085385704936
1.8009999999999124,0.2523191148522468,-0.3238142873604151
2.0009999999998906,0.29063906873212925,-0.40485522256706286
2.2009999999998686,0.3171075828251907,-0.498369293355291
2.4009999999998466,0.3184788328026542,-0.5905779063166054
2.6009999999998246,0.29219718882626206,-0.6767672433229589
2.8009999999998025,0.24874696522103465,-0.7595959194293708
3.0009999999997805,0.20013319462372367,-0.8284283480903518
3.2009999999997585,0.14392696691318377,-0.8758032756951595
3.4009999999997365,0.08283691190819371,-0.892816955735232
3.6009999999997144,0.02569214131804281,-0.8573737396009021
3.8009999999996924,-0.030105228929168875,-0.8063208998172957
4.000999999999671,-0.08168019503518033,-0.7421776649467909
4.200999999999738,-0.1332559688931471,-0.6681747491090955
4.400999999999804,-0.17984512662547913,-0.5825229995648014
4.600999999999871,-0.2284536150307044,-0.5015460009436986
4.800999999999938,-0.2685395669226053,-0.42529679521522756
5.000000000000004,-0.28650057765581777,-0.34766641385784686
5.200000000000071,-0.27923340032496036,-0.2741016297783146
5.400000000000138,-0.24284197298101812,-0.20632378242035251
5.600000000000205,-0.17687242085557314,-0.14992563789991084
5.800000000000272,-0.10155104039786325,-0.10116775793014178
6.000000000000338,-0.015221922610459139,-0.06654181305075818
6.200000000000405,0.06406349713660525,-0.03634398669917647
6.400000000000472,0.1476327280440647,-0.017019276952822043
6.600000000000539,0.2244626587526918,-0.03324746124894596
6.800000000000606,0.2817376141893081,-0.07043028115761674
7.000000000000672,0.3177572890417864,-0.11347599932660203
7.200000000000739,0.33057793287353604,-0.16721052787750976
7.400000000000806,0.32266460891923676,-0.22998608857837455
7.600000000000873,0.30775606244055487,-0.29581197780516827
7.8000000000009395,0.25838761053705217,-0.3585758601944957
8.000000000001005,0.20660236977356225,-0.41826075672380725
8.200000000000895,0.16128996358038863,-0.47999438451881726
8.400000000000784,0.1019374004356575,-0.5301451608318527
8.600000000000673,0.02872536181637394,-0.5640373100245623
8.800000000000562,-0.04490662083500258,-0.5804218380135616
9.000000000000451,-0.12169897398244062,-0.5939645342840195
9.20000000000034,-0.19225760897467178,-0.5686205726080906
9.40000000000023,-0.24780456574266344,-0.5162572056638771
9.600000000000119,-0.2808524638183045,-0.4629552725769824
9.800000000000008,-0.27880808208804,-0.4044613675054622
10.000999999999896,-0.2602305595479631,-0.33415339656092935
10.200999999999786,-0.22100950139916628,-0.27147399801431055
10.400999999999675,-0.16599176265628915,-0.22712075351775013
10.600999999999564,-0.10372296211449726,-0.2196163674479026
10.800999999999453,-0.04234121266991529,-0.2422382450526561
11.000999999999342,0.010127455703138806,-0.27262480765515373
11.200999999999231,0.04567748837666025,-0.3238063322282825
11.40099999999912,0.0617973631623049,-0.3797662526719548
11.60099999999901,0.05329105649365757,-0.44739208012452014
11.800999999998899,0.020337576487631667,-0.5157596907726995
12.000999999998788,-0.03628694087262163,-0.579665465180094
12.200999999998677,-0.0926996041123772,-0.6451567909909388
12.400999999998566,-0.16165094301166455,-0.6879728763944277
12.600999999998455,-0.23823134264252022,-0.7107631848322413
12.800999999998345,-0.3152424000868344,-0.7117359549557171
13.000999999998234,-0.38900280674705434,-0.6857724832821936
13.200999999998123,-0.453119267650582,-0.6476222066967184
13.400999999998012,-0.4927466199715044,-0.5971692577743661
13.600999999997901,-0.49947574564704944,-0.5413666654451497
13.80099999999779,-0.4834236715834865,-0.4831286224113937
14.00099999999768,-0.4552996065178252,-0.42145678434988515
14.200999999997569,-0.40530456796791586,-0.3812809820682803
14.400999999997458,-0.3369211468163401,-0.3655705317821925
14.600999999997347,-0.26749061596854096,-0.37154047544626906
14.800999999997236,-0.1957126162904699,-0.3977237089938395
15.000999999997125,-0.1292431360524199,-0.4407294678586538
15.200999999997014,-0.0705571047995005,-0.4950135624647082
15.400999999996904,-0.02326653970572136,-0.5637676196877014
15.600999999996793,0.01673386305924386,-0.647753145175756
15.800999999996682,0.04698903000659696,-0.7478867716823457
16.000999999996573,0.06440532528569451,-0.8461778306575514
16.200999999996817,0.043421878022746385,-0.937396673607673
16.40099999999706,0.0011994784818421544,-1.0210541814781708
16.600999999997306,-0.045969877027313845,-1.0857648024228466
16.80099999999755,-0.1008361559959079,-1.1312668885326527
17.000999999997795,-0.1585273974085976,-1.1512832858090087
17.20099999999804,-0.2276625968171571,-1.1550453492921764
17.400999999998284,-0.2807716930428322,-1.1293551744737635
17.60099999999853,-0.32769648431585263,-1.0879282835373763
17.800999999998773,-0.35817154328936357,-1.0274192699133649
18.000999999999017,-0.3897386576754848,-0.9622849203853524
18.20099999999926,-0.3997960676847486,-0.8975130722807474
18.400999999999506,-0.36961001785953346,-0.8589027403672778
18.60099999999975,-0.32456360091669995,-0.8451009372224044
18.799999999999994,-0.2722209948715214,-0.8586731466528829
19.000000000000238,-0.2121819438688706,-0.8975446332791541
19.200000000000482,-0.15823048559436412,-0.9610506308099761
19.400000000000727,-0.11711289350279042,-1.0262310316738175
19.60000000000097,-0.08888969447394801,-1.0900247064123247
19.800000000001216,-0.08997032435592817,-1.1531700404520069
20.00000000000146,-0.12970771185825677,-1.214669820964481
