Time (s),X (m),Y (m)
0.001,0.0005727611008870025,0.0009689812320744445
0.20000000000000015,0.0004840556708859057,-0.0043048636882119734
0.4000000000000003,0.004697052951008979,-0.00838120314504254
0.6000000000000004,0.009384285315508807,-0.009520684468627758
0.8000000000000006,0.012349852303069994,-0.02224617966632919
1.0000000000000007,0.02066718813797309,-0.022390677492753634
1.2009999999999785,0.03471115397393119,-0.014934770664858286
1.4009999999999565,0.05844591306152304,-0.0115803335449199
1.6009999999999345,0.07462662468011581,-0.005787379717296655
1.8009999999999124,0.09611045410749566,0.003700497501921456
2.0009999999998906,0.12033791383067213,0.004719873489096617
2.2009999999998686,0.1409513466705667,-0.0007536959529467264
2.4009999999998466,0.16195558032778412,-0.00430262213001514
2.6009999999998246,0.18078126890653315,-0.003661126849378772
2.8009999999998025,0.19799138188127377,-0.007795894953364271
3.0009999999997805,0.21904473773688593,0.0026330126816613915
3.2009999999997585,0.24240174196020006,0.01603552037908085
3.4009999999997365,0.26406001791657996,0.009214400932376883
3.6009999999997144,0.28926376677788707,0.019191573678973683
3.8009999999996924,0.3194276020518727,0.035004743289693996
4.000999999999671,0.3513737795341496,0.043879614936655535
4.200999999999738,0.3821706848804546,0.05029265178616175
4.400999999999804,0.41734859288519427,0.06297198973702446
4.600999999999871,0.4511368897230006,0.07078385207688552
4.800999999999938,0.48656700595592645,0.08463815529704019
5.000000000000004,0.5204948614092945,0.09218321939321006
5.200000000000071,0.5460657666057129,0.09492638198091448
5.400000000000138,0.5702383557564566,0.0883065887314725
5.600000000000205,0.6002292620745151,0.08862168383385063
5.800000000000272,0.6274706817033958,0.09469266124687299
6.000000000000338,0.655376293586072,0.11824397936832318
6.200000000000405,0.680950339979734,0.12718427835778373
6.400000000000472,0.7132826410600409,0.13418253933441543
6.600000000000539,0.7410538573136448,0.15064522790432924
6.800000000000606,0.7710842981344619,0.1670643847694931
7.000000000000672,0.8032470668434842,0.17945265224554802
7.200000000000739,0.8355398839391619,0.19060919562040582
7.400000000000806,0.8645165080065164,0.19547130293670528
7.600000000000873,0.8946584172420101,0.2022348428247244
7.8000000000009395,0.9240237857641331,0.19651967614843932
8.000000000001005,0.9532039218741536,0.19871210700687503
8.200000000000895,0.9804427491558272,0.1951415199550723
8.400000000000784,1.0153303913910519,0.19781568922819662
8.600000000000673,1.0546521749583129,0.20125643515867042
8.800000000000562,1.088409434352957,0.20529874194571418
9.000000000000451,1.116838187585561,0.20657515110186236
9.20000000000034,1.1460228150121539,0.21102266785180673
9.40000000000023,1.1751083262479898,0.2090170191226263
9.600000000000119,1.2134403576618056,0.22259180969059084
9.800000000000008,1.2476417178833688,0.2248642046645295
10.000999999999896,1.2778940125475386,0.22058013990188527
10.200999999999786,1.3091257284802524,0.22669239742938366
10.400999999999675,1.3437014727115972,0.23239040558252141
10.600999999999564,1.377256763019911,0.23989182510223403
10.800999999999453,1.405359848949576,0.23179627389668345
11.000999999999342,1.4355456792932924,0.2334426561188041
11.200999999999231,1.4662098080076638,0.23112539034444002
11.40099999999912,1.4975492296276427,0.2332188110764856
11.60099999999901,1.527332498428397,0.2392422491498094
11.800999999998899,1.5594525158731294,0.26367616696582147
12.000999999998788,1.5962625525654877,0.2777378437168113
12.200999999998677,1.6314919229375966,0.2836204522352442
12.400999999998566,1.664752604345428,0.28825862312892647
12.600999999998455,1.6988315489650656,0.29903751057691336
12.800999999998345,1.7334283262470755,0.31229476063011957
13.000999999998234,1.7705904684412264,0.32736456554232946
13.200999999998123,1.811168515408135,0.3398607602350367
13.400999999998012,1.8488848583121267,0.35933000690350614
13.600999999997901,1.8850165816985256,0.381868823466617
13.80099999999779,1.9170236773640363,0.3860059709615524
14.00099999999768,1.94345652418853,0.384028909956609
14.200999999997569,1.968829086341229,0.3849160009340499
14.400999999997458,1.993964144591524,0.3949080790757181
14.600999999997347,2.024110168820811,0.42152116085854796
14.800999999997236,2.0568303884485184,0.4317431441028588
15.000999999997125,2.088130375807398,0.4469343837486435
15.200999999997014,2.120117691453853,0.47820989188002794
15.400999999996904,2.1556708757189478,0.4944547880451092
15.600999999996793,2.188342418138208,0.5044029395101931
15.800999999996682,2.2131145156298047,0.5149349160259948
16.000999999996573,2.2357957266208732,0.5280089010803578
16.200999999996817,2.2701907912692603,0.5508796524325141
16.40099999999706,2.3083679412790734,0.5701948390971787
16.600999999997306,2.3416103305910143,0.5782329531586478
16.80099999999755,2.3700877717298634,0.5895374558639874
17.000999999997795,2.4039176186407913,0.602461824627194
17.20099999999804,2.4387662204315945,0.6091870462986467
17.400999999998284,2.4703151421397136,0.6205911606444229
17.60099999999853,2.498486746802484,0.6416585455630835
17.800999999998773,2.5255297838586763,0.6612603778733198
18.000999999999017,2.5543401125844643,0.6754506341110924
18.20099999999926,2.5807833233400257,0.694353395900671
18.400999999999506,2.611114791442948,0.7099817896479707
18.60099999999975,2.645625754181575,0.7305074657878391
18.799999999999994,2.680043096427775,0.7467084354265817
19.000000000000238,2.708842256036823,0.7538410599469012
19.200000000000482,2.737631967501922,0.7590947351110024
19.400000000000727,2.7633812063239365,0.7720772802087819
19.60000000000097,2.7904630089548297,0.8002223997071011
19.800000000001216,2.814214157869354,0.8237778700471057
20.00000000000146,2.838200638089207,0.8365279996927352
