Time (s),X (m),Y (m)
0.001,-0.0007759513068619564,0.00026688599193002506
0.20000000000000015,-0.0033784243271563776,0.0011925565438009476
0.4000000000000003,-0.0015520757046844928,0.0017973800534766716
0.6000000000000004,0.008784861077369874,-0.0008545441326583572
0.8000000000000006,0.01620750352519737,-0.004085476161460011
1.0000000000000007,0.02143435823581701,-0.0031285867323861366
1.2009999999999785,0.025662393651977877,-0.004576834513837062
1.4009999999999565,0.03258770985608044,-0.0052297801920087005
1.6009999999999345,0.035099674838213836,-0.006324224394699516
1.8009999999999124,0.0399588266591931,-0.006638990127030536
2.0009999999998906,0.044524884343436565,-0.007843580760173212
2.2009999999998686,0.04902922656154993,-0.008132500271177475
2.4009999999998466,0.05694707248055009,-0.009445876544096354
2.6009999999998246,0.06137386167125798,-0.010454970450642823
2.8009999999998025,0.06545878483686934,-0.010881705736662651
3.0009999999997805,0.07241303645226979,-0.01199681696234302
3.2009999999997585,0.07829425455064731,-0.012964044892250783
3.4009999999997365,0.08204967578409864,-0.012553386215811839
3.6009999999997144,0.08503705099777417,-0.010873820986546812
3.8009999999996924,0.08892808083624032,-0.010125263535498023
4.000999999999671,0.09061758462846675,-0.00927339990965256
4.200999999999738,0.09545428065869006,-0.009777844752535606
4.400999999999804,0.1009970572814112,-0.010450377902913631
4.600999999999871,0.10486839110067225,-0.011228142273631074
4.800999999999938,0.10952418624887263,-0.011327714686944173
5.000000000000004,0.11205407316690635,-0.011205151569713388
5.200000000000071,0.11671427588935683,-0.011967761269356978
5.400000000000138,0.12116657008896052,-0.012272201617547347
5.600000000000205,0.1247841631171659,-0.013452566242265235
5.800000000000272,0.12669046991665672,-0.013158960323280306
6.000000000000338,0.13321759190622637,-0.014087802141561237
6.200000000000405,0.137179045615534,-0.015457490609349483
6.400000000000472,0.13967341504093753,-0.014460480953279129
6.600000000000539,0.14424798847816175,-0.01571382602724555
6.800000000000606,0.14961565136780766,-0.017281987692876616
7.000000000000672,0.1547564546580694,-0.019775110139616223
7.200000000000739,0.15939651947130487,-0.0203211127362123
7.400000000000806,0.16455707650058787,-0.02303371352520273
7.600000000000873,0.16946900242414126,-0.02462861222759195
7.8000000000009395,0.17585063916754162,-0.02642197391956762
8.000000000001005,0.17970332227631056,-0.027541757495646076
8.200000000000895,0.18407198801652067,-0.028100278897791393
8.400000000000784,0.19044903216601186,-0.028497441555171126
8.600000000000673,0.19663448708244902,-0.030710406621583794
8.800000000000562,0.20007722008676096,-0.03180352770202877
9.000000000000451,0.20751779440286866,-0.033172876930339566
9.20000000000034,0.21287742847863259,-0.035629073635307935
9.40000000000023,0.21754454984156096,-0.03747251720078824
9.600000000000119,0.224157122704547,-0.04013868351741024
9.800000000000008,0.23219163096935183,-0.042232324111429534
10.000999999999896,0.23723476417600417,-0.04451402251796945
10.200999999999786,0.24017034560164033,-0.045313034076500724
10.400999999999675,0.2466151056442767,-0.04652003841549528
10.600999999999564,0.25335644764658743,-0.04956648495816428
10.800999999999453,0.2596937607980928,-0.05276332975196948
11.000999999999342,0.26644820378484724,-0.05636450501811669
11.200999999999231,0.2711694819254748,-0.05821333949075878
11.40099999999912,0.2824240705042316,-0.061334506819233366
11.60099999999901,0.29029658688960447,-0.0627032217361396
11.800999999998899,0.29757814199658933,-0.06483639273834232
12.000999999998788,0.30373204800898695,-0.06776240006367405
12.200999999998677,0.30811481025206633,-0.06868126361203286
12.400999999998566,0.3158603966288793,-0.070934613148843
12.600999999998455,0.32326542241780487,-0.07440842598071865
12.800999999998345,0.33022904705863776,-0.07662460470903565
13.000999999998234,0.33566645392306327,-0.08038822458667975
13.200999999998123,0.34379253498973206,-0.08177826163004326
13.400999999998012,0.34999520986642674,-0.08400546438849203
13.600999999997901,0.35661112741999357,-0.0855168694076173
13.80099999999779,0.3628960139165624,-0.08907541595720134
14.00099999999768,0.36903085467571944,-0.0924119269208873
14.200999999997569,0.3754714659484182,-0.09458018472930904
14.400999999997458,0.38155456869403986,-0.09732250194038698
14.600999999997347,0.38707387440042657,-0.09993142805537847
14.800999999997236,0.3930284042357979,-0.1025987854818521
15.000999999997125,0.40017965387875265,-0.10693805500912552
15.200999999997014,0.40690453178619945,-0.10902048173334941
15.400999999996904,0.4138824618553131,-0.11189621853609295
15.600999999996793,0.4204269584236489,-0.1149450732686983
15.800999999996682,0.42742952209892926,-0.11804117127676968
16.000999999996573,0.4325909545679937,-0.11975257327295019
16.200999999996817,0.4382915592094428,-0.12014871939193009
16.40099999999706,0.4444325356012375,-0.12301949203961657
16.600999999997306,0.4520207011529368,-0.12560437326609608
16.80099999999755,0.4599034980977085,-0.12872089177897159
17.000999999997795,0.4667349965761643,-0.1335749391692922
17.20099999999804,0.4733096301836491,-0.1335873508868941
17.400999999998284,0.48071847536119044,-0.13614345316177098
17.60099999999853,0.48741981209485646,-0.1387981284412967
17.800999999998773,0.49550170597590665,-0.14332336976463994
18.000999999999017,0.502782462196042,-0.14892752384501248
18.20099999999926,0.5085355599461151,-0.15071752555966023
18.400999999999506,0.513054176950576,-0.15004274787564725
18.60099999999975,0.5202468932277007,-0.15138338242735871
18.799999999999994,0.5280181239414473,-0.1545953676423179
19.000000000000238,0.5349965695870617,-0.15827457730839234
19.200000000000482,0.5411494587065594,-0.16096530785478516
19.400000000000727,0.5493472201428059,-0.1663411956672602
19.60000000000097,0.5587560105389134,-0.17124923244661114
19.800000000001216,0.5647859512692918,-0.1744099981442896
20.00000000000146,0.5713360045181619,-0.17672535419311627
