Time (s),X (m),Y (m)
0.001,-0.0002955033697106609,0.0008930179339548111
0.20000000000000015,0.003628543173078592,-0.0040351417443838
0.4000000000000003,0.01232181908249704,-0.012937548291022288
0.6000000000000004,0.017219992518080277,-0.015919683177391966
0.8000000000000006,0.029501035195796107,-0.020571364183398874
1.0000000000000007,0.04184471893879968,-0.0191999927204544
1.2009999999999785,0.05180307751466783,-0.01441445904698315
1.4009999999999565,0.06823677685669126,-0.030666208989834978
1.6009999999999345,0.08125792483756965,-0.03921435032190169
1.8009999999999124,0.09989228850791532,-0.052223249345159165
2.0009999999998906,0.12153258828524326,-0.05710910022975048
2.2009999999998686,0.14110292434664215,-0.06873665738248928
2.4009999999998466,0.15822765340107212,-0.07919689974618593
2.6009999999998246,0.17467193479404683,-0.0858784170827366
2.8009999999998025,0.19691655508965633,-0.09503314160883661
3.0009999999997805,0.21439651108025617,-0.11199080117105005
3.2009999999997585,0.22575378534904142,-0.12104724000410857
3.4009999999997365,0.23632784914213542,-0.12801983716150203
3.6009999999997144,0.24524083157371232,-0.1434933217166771
3.8009999999996924,0.25665248622873454,-0.16527473089328773
4.000999999999671,0.26881103101888704,-0.19211713438583408
4.200999999999738,0.28289609487861217,-0.21039569207440528
4.400999999999804,0.29417333370021204,-0.23137787657083683
4.600999999999871,0.30747282571741863,-0.2551363355200747
4.800999999999938,0.3246034575843531,-0.26208069566942865
5.000000000000004,0.34287413001525896,-0.27057570250289603
5.200000000000071,0.35040555433020826,-0.2803931765762203
5.400000000000138,0.3525669843947504,-0.298566294794468
5.600000000000205,0.3651406170822913,-0.3161580561100694
5.800000000000272,0.3785841232438131,-0.33572445753602764
6.000000000000338,0.3850000031471047,-0.354903702310033
6.200000000000405,0.3968078034202713,-0.3811464986597179
6.400000000000472,0.4085028734382043,-0.40259929177580833
6.600000000000539,0.41831738141784963,-0.4137721145462002
6.800000000000606,0.4307520024026676,-0.4276271579202734
7.000000000000672,0.4396752109462607,-0.44925299230617494
7.200000000000739,0.45048530080159155,-0.4720116771025957
7.400000000000806,0.45424659192942,-0.4953819113953814
7.600000000000873,0.4637954599868603,-0.5098729285771167
7.8000000000009395,0.47946695345848944,-0.526915959495206
8.000000000001005,0.4940745021149288,-0.5408027751921805
8.200000000000895,0.5087507830518698,-0.5622721702068747
8.400000000000784,0.5153039939713495,-0.5905846726303478
8.600000000000673,0.5297533118558025,-0.6092952682199969
8.800000000000562,0.5404000712033971,-0.6285196123086296
9.000000000000451,0.5533438819023648,-0.6445712179394658
9.20000000000034,0.5634742769285028,-0.6703361530920638
9.40000000000023,0.5680134052191238,-0.7028436226231649
9.600000000000119,0.5800611255428303,-0.7269287803646706
9.800000000000008,0.5856368155184772,-0.7470840459714618
10.000999999999896,0.5948184454768052,-0.768287955192805
10.200999999999786,0.5993382683085948,-0.7969068994669105
10.400999999999675,0.608764266876266,-0.8216120643712593
10.600999999999564,0.6220657509125093,-0.8391516078570718
10.800999999999453,0.6406388931988826,-0.8554965545864652
11.000999999999342,0.6579467956748041,-0.865316102794193
11.200999999999231,0.6631717457690012,-0.8803482662653486
11.40099999999912,0.6744869040592545,-0.9034400186627658
11.60099999999901,0.6900221761890977,-0.9258439933715187
11.800999999998899,0.7055109046270643,-0.9412448440090108
12.000999999998788,0.72399492831145,-0.9520557333750101
12.200999999998677,0.7322093135272638,-0.976170310438528
12.400999999998566,0.7446110822493975,-1.0026277477582817
12.600999999998455,0.757171698810631,-1.025889670761362
12.800999999998345,0.7707782578365063,-1.044704414477173
13.000999999998234,0.7688854998563361,-1.064606010359223
13.200999999998123,0.7628749164678084,-1.0918630004730672
13.400999999998012,0.7711907889200998,-1.117257669778314
13.600999999997901,0.765948451146235,-1.1393092348479397
13.80099999999779,0.7633678734588284,-1.16060101020292
14.00099999999768,0.7565492413738956,-1.1921150347572633
14.200999999997569,0.7649455786179793,-1.2180016926100947
14.400999999997458,0.7733648496932138,-1.241122586011569
14.600999999997347,0.7582415473152104,-1.2629247251110725
14.800999999997236,0.7300014423335945,-1.286245830319756
15.000999999997125,0.7004838690259708,-1.305746099929625
15.200999999997014,0.6743679699542349,-1.3211974244948925
15.400999999996904,0.6569178082142829,-1.336134081892438
15.600999999996793,0.6409172358767056,-1.3541044885058964
15.800999999996682,0.6291592687398304,-1.3761973896144044
16.000999999996573,0.6130479522178682,-1.398120949730312
16.200999999996817,0.5867296685811141,-1.4159740006464163
16.40099999999706,0.5679426101122385,-1.4357821049644532
16.600999999997306,0.546757115556735,-1.4489761352862711
16.80099999999755,0.525460406135847,-1.4543886234134111
17.000999999997795,0.506211059511032,-1.4645015563214234
17.20099999999804,0.4892789240117293,-1.4724779968889075
17.400999999998284,0.4719070430970221,-1.4815195695779424
17.60099999999853,0.4577051675416862,-1.498933973606436
17.800999999998773,0.4398285336860099,-1.512959235843637
18.000999999999017,0.4148773069119732,-1.5253732350739535
18.20099999999926,0.40434457500434606,-1.5459684903854325
18.400999999999506,0.3854124111934025,-1.5575555991313959
18.60099999999975,0.3628166658460348,-1.5660329263365969
18.799999999999994,0.3476048081670855,-1.5775278357142664
19.000000000000238,0.32851453071216147,-1.5870881811025181
19.200000000000482,0.30035287699698715,-1.602931906060373
19.400000000000727,0.2845083418657698,-1.6196584199073016
19.60000000000097,0.2656255491610794,-1.636263006878389
19.800000000001216,0.2473368234779624,-1.6571360760739555
20.00000000000146,0.24100505184478627,-1.6770271149001266
