Time (s),X (m),Y (m)
0.001,-0.00013259955118837574,0.0009689812320744445
0.20000000000000015,0.003701046465875269,-0.004594022475368154
0.4000000000000003,0.011023793316898303,-0.010508362218402343
0.6000000000000004,0.02214644997398998,-0.009666249279520986
0.8000000000000006,0.03624257135374171,-0.0173049935086755
1.0000000000000007,0.05323779174740708,-0.01977059667118655
1.2009999999999785,0.070853938530255,-0.039312867771124756
1.4009999999999565,0.08608398397469874,-0.04288613156054827
1.6009999999999345,0.10701381507227296,-0.05918446838786977
1.8009999999999124,0.13266399945850435,-0.07206091457907766
2.0009999999998906,0.1604246771252857,-0.07354346636852585
2.2009999999998686,0.18575661150204273,-0.09561992149644391
2.4009999999998466,0.21050531397718122,-0.10664938743309078
2.6009999999998246,0.22488356017443425,-0.12244574899172908
2.8009999999998025,0.23468483460136572,-0.1455888033509342
3.0009999999997805,0.25422611319570215,-0.15981367793604628
3.2009999999997585,0.27840775388955463,-0.1729146035875198
3.4009999999997365,0.30804500931395473,-0.18418370234378262
3.6009999999997144,0.3353939250463629,-0.19379129532451078
3.8009999999996924,0.3623169866527621,-0.20217072964118543
4.000999999999671,0.38178609237917727,-0.21664221803232334
4.200999999999738,0.39985698483111687,-0.24220595616902985
4.400999999999804,0.40194833355885684,-0.2667333787902948
4.600999999999871,0.4117063155280289,-0.29129568958917296
4.800999999999938,0.43547063261602753,-0.30306250152848924
5.000000000000004,0.4670556887719057,-0.31806950649906063
5.200000000000071,0.4825042010307627,-0.33467530140294227
5.400000000000138,0.48966482981243104,-0.36151209432539444
5.600000000000205,0.5056010034033805,-0.37518880503457475
5.800000000000272,0.5215879752775269,-0.39948354707871936
6.000000000000338,0.5420128013490114,-0.42263860644534257
6.200000000000405,0.5669976613520444,-0.43777048106475713
6.400000000000472,0.5876287853112636,-0.4614351475346183
6.600000000000539,0.6087087049357366,-0.48773863876010076
6.800000000000606,0.6235746426317014,-0.5222976531228575
7.000000000000672,0.6454368441413586,-0.5520485770146455
7.200000000000739,0.6681988407893454,-0.5728959727020067
7.400000000000806,0.6905250246833579,-0.5892211095845956
7.600000000000873,0.7029684017313172,-0.621737489414416
7.8000000000009395,0.7211547688546155,-0.6454758212476025
8.000000000001005,0.7476622162634969,-0.6644141640274696
8.200000000000895,0.7607672508692348,-0.6914664939034207
8.400000000000784,0.7760194999690366,-0.7163852409045
8.600000000000673,0.7950042576546589,-0.7343013081687927
8.800000000000562,0.8131235693645782,-0.7575759106982874
9.000000000000451,0.8254019392641228,-0.7883914825053557
9.20000000000034,0.8481311472537523,-0.8034527925700332
9.40000000000023,0.8812006947288631,-0.8189537992648707
9.600000000000119,0.8997530350105554,-0.8468263507606694
9.800000000000008,0.9141652022013697,-0.8773996164294776
10.000999999999896,0.9200353893014889,-0.9148161358990476
10.200999999999786,0.9244434331477871,-0.9524568321074915
10.400999999999675,0.9401371552499211,-0.9922626618426017
10.600999999999564,0.9538847525319842,-1.0274755833051423
10.800999999999453,0.9609857340166461,-1.0606554276310005
11.000999999999342,0.9781270243814776,-1.094479584196715
11.200999999999231,1.0012028686570227,-1.1251272410778375
11.40099999999912,1.0157551299021976,-1.1583298868218643
11.60099999999901,1.0161118546664094,-1.193359363701753
11.800999999998899,1.0069677365195324,-1.2289749869162725
12.000999999998788,1.0129918774284474,-1.2709227023571485
12.200999999998677,1.002278778309286,-1.3042550247379443
12.400999999998566,0.961387942428096,-1.3299264922484093
12.600999999998455,0.9140151379709492,-1.3525663262126166
12.800999999998345,0.870517205480237,-1.3655570406297128
13.000999999998234,0.8337977378598953,-1.375798636038057
13.200999999998123,0.7996526945183805,-1.387862540521321
13.400999999998012,0.7683338576714858,-1.4012593434588534
13.600999999997901,0.7457907292971844,-1.4288091732535264
13.80099999999779,0.7224394838543996,-1.4398813612558707
14.00099999999768,0.6917150632066059,-1.4411295882619908
14.200999999997569,0.6642394013620883,-1.4436253984395329
14.400999999997458,0.6336326761658982,-1.4498931240149662
14.600999999997347,0.6025271485102733,-1.4558059322330663
14.800999999997236,0.5721285281920137,-1.4448995899667474
15.000999999997125,0.541871506323075,-1.4408626716630908
15.200999999997014,0.5158692048840413,-1.4301230694555087
15.400999999996904,0.4940479065953478,-1.4305386744348623
15.600999999996793,0.4651192513897977,-1.4306902281305762
15.800999999996682,0.4422371761508578,-1.4136054628365837
16.000999999996573,0.41910797402457894,-1.390948460286984
16.200999999996817,0.387698521182472,-1.3745170287302824
16.40099999999706,0.3511725875006788,-1.3578985143989886
16.600999999997306,0.3160264667893074,-1.3268931338392738
16.80099999999755,0.2858827318450037,-1.2925400850577915
17.000999999997795,0.26018843652260837,-1.2570217570285134
17.20099999999804,0.2429773843118065,-1.2248586881325274
17.400999999998284,0.2300003971909493,-1.197031949579058
17.60099999999853,0.22238889808230947,-1.165089806420171
17.800999999998773,0.2204362364892999,-1.1305042500792748
18.000999999999017,0.22106984496625276,-1.0946819064118667
18.20099999999926,0.22947475856079846,-1.0632165864396985
18.400999999999506,0.24305791133973725,-1.0289231677438362
18.60099999999975,0.2629879569230297,-0.9968942069111923
18.799999999999994,0.2838392763300994,-0.970479761535483
19.000000000000238,0.3029410878588974,-0.9477668490938042
19.200000000000482,0.3321043817942085,-0.9186424111467516
19.400000000000727,0.36036216974271756,-0.8867602852940434
19.60000000000097,0.38362086187950445,-0.8603238757412326
19.800000000001216,0.4051299364773008,-0.832935519969489
20.00000000000146,0.4265567288627783,-0.8093906272795652
