Time (s),X (m),Y (m)
0.001,0.0012473251573109415,8.987223813608099e-05
0.20000000000000015,-0.0017998005958341243,-0.0008033010829071835
0.4000000000000003,0.0015591093827098399,-0.003054254276153294
0.6000000000000004,0.010058834403983847,-0.0022628391888488896
0.8000000000000006,0.027297899998341642,-0.0015835938662848445
1.0000000000000007,0.043797707309907334,-0.001675253944082492
1.2009999999999785,0.04738477878658408,-0.003621309097056909
1.4009999999999565,0.06027764671428107,-0.0023620209164022924
1.6009999999999345,0.06362957890375832,-0.006606928086545235
1.8009999999999124,0.08565503736607462,-0.019474556932989818
2.0009999999998906,0.11057143609726323,-0.035860976861110894
2.2009999999998686,0.13727934660845162,-0.046141425785574175
2.4009999999998466,0.15894598025464599,-0.05427357858312395
2.6009999999998246,0.1830534538645463,-0.06513867560572209
2.8009999999998025,0.21021692211107754,-0.07779600751362006
3.0009999999997805,0.2523502926669355,-0.10227805751692251
3.2009999999997585,0.2992285980604485,-0.1353625770341527
3.4009999999997365,0.3390697704745884,-0.16828138400319598
3.6009999999997144,0.3771037330387908,-0.19514577409666617
3.8009999999996924,0.41549771338489405,-0.21431086162768592
4.000999999999671,0.4462844453104443,-0.2356777505514123
4.200999999999738,0.46077822305733307,-0.2616704285203667
4.400999999999804,0.4609964043144805,-0.2852840167261214
4.600999999999871,0.4388318496918971,-0.3153402831238257
4.800999999999938,0.41458781215732093,-0.3586016768270996
5.000000000000004,0.3924498942341045,-0.40026319948970235
5.200000000000071,0.3694534565994428,-0.43739243145993967
5.400000000000138,0.34120478225227574,-0.4805111407904753
5.600000000000205,0.30767519280305455,-0.5270488152626464
5.800000000000272,0.2810486843865917,-0.5672939150712132
6.000000000000338,0.25405799917772887,-0.597812248797532
6.200000000000405,0.2309883127572472,-0.6140640098111562
6.400000000000472,0.1926481213294818,-0.6067574079746536
6.600000000000539,0.15000902406356992,-0.5850762216217477
6.800000000000606,0.10914884256878218,-0.5607871190565922
7.000000000000672,0.06737290862459965,-0.5306726417306643
7.200000000000739,0.025239428851647205,-0.49581763269285906
7.400000000000806,-0.016396633856775724,-0.448355228322621
7.600000000000873,-0.04406685646842292,-0.39879870808581364
7.8000000000009395,-0.04676595263897903,-0.35529869899231137
8.000000000001005,-0.033288175228824476,-0.31148519709336886
8.200000000000895,-0.01052014840715465,-0.26052734900939556
8.400000000000784,0.014611823984567705,-0.2123711035124261
8.600000000000673,0.049343746317796505,-0.1671732921061128
8.800000000000562,0.09376988254502583,-0.1262955561046039
9.000000000000451,0.14669359376032215,-0.1019943515497978
9.20000000000034,0.1876539784471899,-0.09952800899319822
9.40000000000023,0.21677800528728114,-0.11361087183687454
9.600000000000119,0.2514659914663455,-0.13452353314978646
9.800000000000008,0.2873168473060058,-0.1556277685253627
10.000999999999896,0.32374378599459064,-0.1813196224242485
10.200999999999786,0.35960219236050617,-0.20321164553047602
10.400999999999675,0.4088061127017861,-0.2365839625560134
10.600999999999564,0.47297764534451875,-0.2753946588818905
10.800999999999453,0.5389287366712926,-0.31880714593265425
11.000999999999342,0.5885160853052209,-0.35399802970203126
11.200999999999231,0.6408444581921713,-0.3929564410432474
11.40099999999912,0.6946849443543248,-0.44447020350507094
11.60099999999901,0.7336575874797276,-0.5023344136011736
11.800999999998899,0.7416016260420535,-0.5524953083482828
12.000999999998788,0.7341127653714945,-0.5958927575254088
12.200999999998677,0.7139060106365341,-0.6423153466389946
12.400999999998566,0.6860932382766938,-0.6927639993081498
12.600999999998455,0.6526581791658326,-0.7484004115079966
12.800999999998345,0.6204120995655902,-0.8001335613677603
13.000999999998234,0.5879285411346499,-0.8494529332672266
13.200999999998123,0.5499857098808528,-0.9034611722624903
13.400999999998012,0.5013404722623083,-0.9646524911330037
13.600999999997901,0.453520413379617,-1.0214107879218484
13.80099999999779,0.4094038534945338,-1.0569699289593295
14.00099999999768,0.365550190686839,-1.068568785555998
14.200999999997569,0.32394309587550923,-1.0641056546418983
14.400999999997458,0.28081701961331523,-1.0458987402865165
14.600999999997347,0.23134006300078402,-1.016525928220143
14.800999999997236,0.18360512148588706,-0.9849907890662296
15.000999999997125,0.12621195493809573,-0.9478623566952651
15.200999999997014,0.07443714176746727,-0.9188566662345179
15.400999999996904,0.02313701153649558,-0.8872836828160925
15.600999999996793,-0.017608964292355953,-0.8552824613675938
15.800999999996682,-0.06178982345290797,-0.8046630200642826
16.000999999996573,-0.101789691340799,-0.7584962011939665
16.200999999996817,-0.1291707596859508,-0.6998661305546686
16.40099999999706,-0.14885517960992756,-0.6402675016372188
16.600999999997306,-0.15962581495679004,-0.5896807802525508
16.80099999999755,-0.16214168503944995,-0.5435733568091816
17.000999999997795,-0.15778062793149217,-0.4951865393572006
17.20099999999804,-0.1420458245466838,-0.4410776969339663
17.400999999998284,-0.11547362073058728,-0.3836414658716297
17.60099999999853,-0.08503374406733548,-0.3300129860567842
17.800999999998773,-0.04858216080884285,-0.277442778251234
18.000999999999017,-0.011072992057578,-0.2293695477905062
18.20099999999926,0.026035997401735442,-0.17530599186299597
18.400999999999506,0.0653712007222565,-0.11965722454767432
18.60099999999975,0.11656314134148424,-0.05928984448158278
18.799999999999994,0.16001847447738918,-0.009815585725173836
19.000000000000238,0.1864221819123371,0.01405504579492781
19.200000000000482,0.2285852284805494,0.028302132851398622
19.400000000000727,0.2719927124066196,0.03911843686533909
19.60000000000097,0.3033771926611951,0.046120735763667216
19.800000000001216,0.34987893266460895,0.04530425220365542
20.00000000000146,0.38778979058419194,0.03346274983604
