Time (s),X (m),Y (m)
0.001,-0.0006729371591054978,-0.000515584144559974
0.20000000000000015,0.00791902611627464,0.004519776972311174
0.4000000000000003,0.024692138550472788,0.010881205912390357
0.6000000000000004,0.0397546563125219,0.02040969119126045
0.8000000000000006,0.0457859796096626,0.02381437609491528
1.0000000000000007,0.06982142054887536,0.018616727082998476
1.2009999999999785,0.10549520259743565,0.0009504170993150661
1.4009999999999565,0.12782613216023805,-0.01564879712426433
1.6009999999999345,0.15450780621970353,-0.04167757379075059
1.8009999999999124,0.18679001732966563,-0.06991344795496315
2.0009999999998906,0.2181022303064541,-0.10541845298742485
2.2009999999998686,0.2481782139592355,-0.14423370665182864
2.4009999999998466,0.27081337694776714,-0.17860113281213885
2.6009999999998246,0.2808045531200372,-0.20960239775009593
2.8009999999998025,0.277674044044996,-0.22832127274471048
3.0009999999997805,0.25892560525076885,-0.2504942913110959
3.2009999999997585,0.22180362728822187,-0.29413739925465654
3.4009999999997365,0.1812644419780182,-0.3377526913154219
3.6009999999997144,0.1439508295952689,-0.3778871743975718
3.8009999999996924,0.09490323014644829,-0.4220143910745916
4.000999999999671,0.04299370488491457,-0.46422302146708705
4.200999999999738,-0.008100921565138582,-0.5060693585796874
4.400999999999804,-0.05908581385978538,-0.5315384567290055
4.600999999999871,-0.10363147500055798,-0.5268845857165934
4.800999999999938,-0.14764277269891432,-0.5042794379473766
5.000000000000004,-0.1900592264614669,-0.46958185939334607
5.200000000000071,-0.22317711223049433,-0.4207820856679972
5.400000000000138,-0.2363626679421722,-0.3696688850287338
5.600000000000205,-0.2396102363143926,-0.30445614914124525
5.800000000000272,-0.22512035489467214,-0.23961378557583954
6.000000000000338,-0.19473329929850824,-0.19026018932570238
6.200000000000405,-0.15311238150815354,-0.14134018013075714
6.400000000000472,-0.10050313506727285,-0.09069982300284145
6.600000000000539,-0.04767852243621845,-0.04256076750581019
6.800000000000606,0.008702172886407651,0.008511895505758652
7.000000000000672,0.0746242019240907,0.068677849999287
7.200000000000739,0.13237152594039348,0.12286084003011888
7.400000000000806,0.1943037237252458,0.17299284894248557
7.600000000000873,0.2546340004176677,0.21325186478185404
7.8000000000009395,0.30882740977822987,0.23698790064572064
8.000000000001005,0.375808900432311,0.23240306131090854
8.200000000000895,0.4391857146474344,0.20974524458547078
8.400000000000784,0.5033183470567747,0.16401496272670105
8.600000000000673,0.5713899267327431,0.10451080462380202
8.800000000000562,0.6483426471664027,0.04006827599677986
9.000000000000451,0.7296642199325231,-0.02579547416590734
9.20000000000034,0.8212199628496446,-0.08820402024124332
9.40000000000023,0.9085514401350429,-0.151234246227448
9.600000000000119,0.978805413572996,-0.217345725991135
9.800000000000008,1.0412354530903003,-0.29723082360634695
10.000999999999896,1.0834100456004456,-0.3784587928599732
10.200999999999786,1.0922977204710926,-0.4570781647234514
10.400999999999675,1.073680239245479,-0.5220893114964509
10.600999999999564,1.0366665211113038,-0.5815220543329921
10.800999999999453,0.986135320281066,-0.6294484609243326
11.000999999999342,0.9354940286354844,-0.6449452284281277
11.200999999999231,0.8971972507488274,-0.6402851282244958
11.40099999999912,0.8637624823927647,-0.6228760036046876
11.60099999999901,0.8423364084963376,-0.5970349537229737
11.800999999998899,0.8398484837370253,-0.561766608220084
12.000999999998788,0.8479149673547651,-0.51481990603614
12.200999999998677,0.8584778513498091,-0.4707537697106396
12.400999999998566,0.8796827299440111,-0.4293925028651783
12.600999999998455,0.9105929122522701,-0.3902846639155629
12.800999999998345,0.9468488316407615,-0.35873129695022427
13.000999999998234,0.9940817813173883,-0.31605941440398644
13.200999999998123,1.0469869943941592,-0.2662899349618054
13.400999999998012,1.0972487958722648,-0.22253629826113214
13.600999999997901,1.1516582169647986,-0.1663546990485134
13.80099999999779,1.2122797705050326,-0.1013212482424918
14.00099999999768,1.276017665084875,-0.029062321420724336
14.200999999997569,1.3369421682774736,0.039302944111631925
14.400999999997458,1.402215424786135,0.10711081345129907
14.600999999997347,1.4704741939733599,0.17502135342495537
14.800999999997236,1.546456891191449,0.2499058940764654
15.000999999997125,1.6239237278661014,0.32084165413725435
15.200999999997014,1.7062923332546318,0.3896399567101041
15.400999999996904,1.78105276889663,0.4326708248252078
15.600999999996793,1.8459620520354971,0.434677613879956
15.800999999996682,1.9089284499652817,0.41088034842991134
16.000999999996573,1.969525125105635,0.3640780952098637
16.200999999996817,2.0092106173075557,0.30029848061983416
16.40099999999706,2.0090472972146682,0.22373645829749547
16.600999999997306,1.9820037354485929,0.14788747519935436
16.80099999999755,1.930157440436853,0.08119384539666359
17.000999999997795,1.8717080867137907,0.024269866821636316
17.20099999999804,1.8109227810202093,-0.026432865629695945
17.400999999998284,1.7463757803168816,-0.06810078326237134
17.60099999999853,1.6899451844333557,-0.08114670639339516
17.800999999998773,1.638629132216987,-0.06611598504723423
18.000999999999017,1.5968895737330806,-0.032742425601443345
18.20099999999926,1.5799946241894356,0.004518746155702481
18.400999999999506,1.5893976989805199,0.04484449813067719
18.60099999999975,1.6165041493317787,0.08549951674716122
18.799999999999994,1.655429059549573,0.1307533088150176
19.000000000000238,1.6995064538763585,0.1723957728040822
19.200000000000482,1.7470184053211055,0.22009945571413023
19.400000000000727,1.7984480638617606,0.27381622482494866
19.60000000000097,1.8571794231027325,0.34387450043299544
19.800000000001216,1.924762537741108,0.4146487706893816
20.00000000000146,1.9903910345280054,0.4760842811835825
