Time (s),X (m),Y (m)
0.001,0.0005727611008870025,-0.0009689812320744441
0.20000000000000015,0.0022555275301187937,-0.0010026118016745805
0.4000000000000003,0.0076838415715265,-0.007720975202887744
0.6000000000000004,0.013558650949129464,-0.008042820998967363
0.8000000000000006,0.018955146727494855,-0.004586114961907736
1.0000000000000007,0.028814580124583624,-0.0040335163631912314
1.2009999999999785,0.03625757302256773,-0.010529949083391592
1.4009999999999565,0.045939380003930594,-0.0167259070485385
1.6009999999999345,0.057891722228822176,-0.018898642444036294
1.8009999999999124,0.07198008155652104,-0.03760700942021264
2.0009999999998906,0.08324323509900036,-0.04221835529854826
2.2009999999998686,0.09207075458770494,-0.03837554630691813
2.4009999999998466,0.09931718721734406,-0.041220768695056656
2.6009999999998246,0.10178211816953991,-0.05313430899050039
2.8009999999998025,0.11112236758766748,-0.05547341704865931
3.0009999999997805,0.12118271520419369,-0.05811238989911172
3.2009999999997585,0.1313721535719651,-0.05994614275286189
3.4009999999997365,0.1453041058225555,-0.06362234842554654
3.6009999999997144,0.15281101809574485,-0.08244013291558248
3.8009999999996924,0.1626733399537866,-0.08897963373041481
4.000999999999671,0.17266634917557874,-0.09588807763035775
4.200999999999738,0.18272714201070656,-0.10859262284574876
4.400999999999804,0.19370498783559226,-0.11969787908369649
4.600999999999871,0.20483219687825083,-0.13309371237809448
4.800999999999938,0.21482295464028944,-0.14043211803291167
5.000000000000004,0.22018760091301093,-0.1448711347202095
5.200000000000071,0.22854556118728644,-0.15429442880939026
5.400000000000138,0.23523203270461385,-0.16903204133651803
5.600000000000205,0.24483319978531976,-0.17534600128345898
5.800000000000272,0.2517639611517522,-0.18787120150962294
6.000000000000338,0.2574976026392696,-0.19657523943943792
6.200000000000405,0.2682429670132774,-0.20103413527589203
6.400000000000472,0.2809275738861201,-0.20692778995671984
6.600000000000539,0.288456048917458,-0.21993325928482874
6.800000000000606,0.2943998586723701,-0.23381594221947344
7.000000000000672,0.30735888201807876,-0.23901851311282593
7.200000000000739,0.31791778322063624,-0.24350719922054642
7.400000000000806,0.3322289791409114,-0.24595247296809655
7.600000000000873,0.3454428520241301,-0.24544109311129894
7.8000000000009395,0.3534204796412348,-0.2549143494126209
8.000000000001005,0.36213063265250883,-0.26133681700662725
8.200000000000895,0.3775680134643451,-0.26037621061916094
8.400000000000784,0.3959481740024038,-0.26125779633573926
8.600000000000673,0.40576730592037197,-0.2668531968955054
8.800000000000562,0.41725220391768236,-0.2751427968256676
9.000000000000451,0.4301702061283242,-0.27571505553340947
9.20000000000034,0.43731915416048006,-0.2889199708485159
9.40000000000023,0.44740454028490767,-0.2936670492945972
9.600000000000119,0.4611337856218388,-0.2965378415988054
9.800000000000008,0.4722330632874406,-0.30278040296279046
10.000999999999896,0.48181360562169107,-0.31906397722232677
10.200999999999786,0.4946705157564949,-0.320320563914706
10.400999999999675,0.5012115050205136,-0.3346572348199248
10.600999999999564,0.5107830892583994,-0.3443596987736266
10.800999999999453,0.5190674440204022,-0.3601232473082687
11.000999999999342,0.5283919751480517,-0.37125687001793156
11.200999999999231,0.539232675954658,-0.38100813468530015
11.40099999999912,0.5502593764534967,-0.38413967354892276
11.60099999999901,0.5573608919276195,-0.3923376108994557
11.800999999998899,0.5590261811324391,-0.404329313097716
12.000999999998788,0.5691631527487867,-0.4088305780982002
12.200999999998677,0.5818778210547478,-0.4135161751595797
12.400999999998566,0.586596412919794,-0.42955830190145894
12.600999999998455,0.592827010171166,-0.4363634745009639
12.800999999998345,0.5984556671312449,-0.4511797814547302
13.000999999998234,0.6083939435943497,-0.45800560481100877
13.200999999998123,0.6170039074486843,-0.47407154776386834
13.400999999998012,0.622464868706746,-0.4908315106035057
13.600999999997901,0.63277553008288,-0.49626026034374815
13.80099999999779,0.6447350026634445,-0.500956514264852
14.00099999999768,0.6527742892314806,-0.5093745138543982
14.200999999997569,0.6604196899504977,-0.5219845006292875
14.400999999997458,0.6701243370195653,-0.5235853397194098
14.600999999997347,0.6850467454133722,-0.522604272961883
14.800999999997236,0.6988001924980707,-0.5220569245575885
15.000999999997125,0.7096246672445519,-0.5214490284952716
15.200999999997014,0.7160787461309192,-0.528048987220156
15.400999999996904,0.7182168854530931,-0.537452707146645
15.600999999996793,0.7280483523398847,-0.5412796017467075
15.800999999996682,0.7379571558144316,-0.5403928906030107
16.000999999996573,0.745776161420869,-0.5474639089111741
16.200999999996817,0.7563627054748097,-0.5594813272815019
16.40099999999706,0.768834786773164,-0.5655249716035595
16.600999999997306,0.7806144763564904,-0.5685680188472526
16.80099999999755,0.7950796236866384,-0.5683745663500119
17.000999999997795,0.8079105390940212,-0.5734937463714879
17.20099999999804,0.8162643066638465,-0.580967643152409
17.400999999998284,0.8269604161962342,-0.5896984647194411
17.60099999999853,0.835963742670336,-0.5930694385003876
17.800999999998773,0.8465611687896886,-0.6004639398541706
18.000999999999017,0.8585138599063834,-0.6041143280080408
18.20099999999926,0.8688870345808409,-0.5991507003002743
18.400999999999506,0.8792489402806263,-0.6018053305615416
18.60099999999975,0.8888924383486587,-0.6132190253090093
18.799999999999994,0.9040283878022787,-0.6227897901532841
19.000000000000238,0.9137860008693263,-0.6354133395328105
19.200000000000482,0.9242139001000581,-0.6371365843634184
19.400000000000727,0.9341554002599114,-0.6499162919874247
19.60000000000097,0.9480606093773327,-0.6625628888591931
19.800000000001216,0.9600178300080882,-0.676243574461446
20.00000000000146,0.969357704143762,-0.6805397977932421
