Time (s),X (m),Y (m)
0.001,0.0002200807748493132,0.0010311682891199472
0.20000000000000015,0.0023684295131142954,0.001203717228626818
0.4000000000000003,0.0038916049598997993,0.0022160421411364715
0.6000000000000004,0.006074193363008308,0.0015659249294797644
0.8000000000000006,0.013004259127414564,-0.005516771684154279
1.0000000000000007,0.014626491224001198,-0.0027648930954117974
1.2009999999999785,0.018109291938412903,-0.0002748306335409476
1.4009999999999565,0.022568608826552004,-0.0010891235074010775
1.6009999999999345,0.02723698590515148,-0.007458096078733126
1.8009999999999124,0.028199810165076136,-0.001661401219662174
2.0009999999998906,0.033652867125602864,-0.005157877854245316
2.2009999999998686,0.035729107553286524,0.0007273879278101595
2.4009999999998466,0.038818733195042365,0.004617752573290335
2.6009999999998246,0.041491372762692186,0.01381973533090817
2.8009999999998025,0.04668972838681682,0.004413963904338381
3.0009999999997805,0.0527166674407504,-0.0033454038463879843
3.2009999999997585,0.06044620289124033,-0.012937141297138216
3.4009999999997365,0.06473027437082267,-0.005189649514842536
3.6009999999997144,0.0677378743730605,0.005870380238185304
3.8009999999996924,0.07207213387100622,0.005784377444254298
4.000999999999671,0.07604095040570188,0.009237074067305041
4.200999999999738,0.07979532148635038,0.01109594378884846
4.400999999999804,0.08365368557233255,0.01580254553411526
4.600999999999871,0.08748514570799502,0.021035982591412365
4.800999999999938,0.09088612037917283,0.020833951156082952
5.000000000000004,0.09681487729731952,0.011581132921332202
5.200000000000071,0.10013028279341146,0.01607608725321009
5.400000000000138,0.10347629901521979,0.020499273338913233
5.600000000000205,0.10812089995348736,0.022516350437737562
5.800000000000272,0.11206207653386105,0.026044447334260316
6.000000000000338,0.11566122891508251,0.03353616261385907
6.200000000000405,0.12060244096757188,0.03181554759110254
6.400000000000472,0.12592725295887267,0.03833736095256956
6.600000000000539,0.12910340718129584,0.04907208816387634
6.800000000000606,0.1339917970109514,0.05265346691869532
7.000000000000672,0.13785344326626714,0.061997198206017685
7.200000000000739,0.14249593098631896,0.06036256158216162
7.400000000000806,0.14840148825285815,0.05976508723050568
7.600000000000873,0.15339007724625872,0.05115014279523096
7.8000000000009395,0.15811626917396732,0.05364527807923618
8.000000000001005,0.1636902535370611,0.044670669408915065
8.200000000000895,0.16734812216705597,0.046764302420221095
8.400000000000784,0.1729281104028958,0.04730002655758515
8.600000000000673,0.1771810673366658,0.04260930070693998
8.800000000000562,0.18209272063298385,0.037970985015852464
9.000000000000451,0.18628179598581612,0.03168735265966018
9.20000000000034,0.19395099430565185,0.025997022560084137
9.40000000000023,0.19929322659735432,0.028053574765037476
9.600000000000119,0.20420640879240104,0.03896496236501797
9.800000000000008,0.20860154137671005,0.042596008841840845
10.000999999999896,0.21364973668747816,0.038973485359133565
10.200999999999786,0.22024074968307142,0.025649624065275645
10.400999999999675,0.22586424791132814,0.028367497602300007
10.600999999999564,0.22864070222414098,0.03390626056579498
10.800999999999453,0.23459190381485595,0.03344313068949876
11.000999999999342,0.23892038333617943,0.027846761871288758
11.200999999999231,0.24245447803118095,0.03182559317240162
11.40099999999912,0.2489956358382709,0.02947715270530163
11.60099999999901,0.2540898292229258,0.02568128528190838
11.800999999998899,0.2581987135985556,0.03112103875921597
12.000999999998788,0.2646438280743723,0.026698855503655954
12.200999999998677,0.26892959420874224,0.025817567657010352
12.400999999998566,0.27791259696112974,0.01944538760221855
12.600999999998455,0.28300608555854045,0.029305520728180448
12.800999999998345,0.28710208429895645,0.035279013457005834
13.000999999998234,0.29230950510286846,0.036922009885876024
13.200999999998123,0.29871244442399336,0.03295480777500207
13.400999999998012,0.30697338633757876,0.029879024844766695
13.600999999997901,0.3120050392775501,0.04101574184110943
13.80099999999779,0.3172269718335313,0.034984736267622905
14.00099999999768,0.3222567926511971,0.034138052298196365
14.200999999997569,0.3279549373937755,0.03209945348441489
14.400999999997458,0.3323187969001129,0.02571019658898952
14.600999999997347,0.33607622798756764,0.025682962334833703
14.800999999997236,0.3407617492958374,0.026637391672423297
15.000999999997125,0.346227139009583,0.0272736258767856
15.200999999997014,0.35124341641480794,0.015590058157317139
15.400999999996904,0.3582441430115406,0.008107978743487777
15.600999999996793,0.36399343688465674,0.017579112400301772
15.800999999996682,0.3687513869545738,0.01177056524714077
16.000999999996573,0.37279157115873796,0.012973937019200047
16.200999999996817,0.37864744222274815,0.0019899569634070813
16.40099999999706,0.38457428536151533,0.008893574862167552
16.600999999997306,0.38891028019306745,0.010369388073358823
16.80099999999755,0.3950941087105922,0.010188142000138989
17.000999999997795,0.40022242985319173,0.011106729453161032
17.20099999999804,0.4065096001632354,0.014749084201939704
17.400999999998284,0.41117133748776324,0.009863751810849058
17.60099999999853,0.41845895221232854,0.01027647714527093
17.800999999998773,0.42452635402136635,0.01826094412868989
18.000999999999017,0.4295364494520804,0.027566207112179494
18.20099999999926,0.4344410156470425,0.03564984322517625
18.400999999999506,0.43931344994901556,0.04155357632002539
18.60099999999975,0.4439585966659502,0.035116784577087855
18.799999999999994,0.4487328417766111,0.04194467040896148
19.000000000000238,0.4535010666603147,0.03653104440974897
19.200000000000482,0.45782194438143065,0.03942791364411496
19.400000000000727,0.46347443413945943,0.038913576873685574
19.60000000000097,0.46966288008594936,0.04143490397108502
19.800000000001216,0.47503638045428737,0.04622367920654779
20.00000000000146,0.4808335755571576,0.04640706191537366
