Time (s),X (m),Y (m)
0.001,0.0003991412691229187,0.0010155025257856582
0.20000000000000015,0.0020900887736934877,-0.0046415886716806715
0.4000000000000003,0.011918082163570603,-0.007622733285093155
0.6000000000000004,0.035338514490938513,-0.006019437435200434
0.8000000000000006,0.07370772235949115,-0.011400742562939322
1.0000000000000007,0.12497874733224235,-0.01650220032349764
1.2009999999999785,0.15868310007818354,-0.028624339025468033
1.4009999999999565,0.18160232309268887,-0.05564021008625892
1.6009999999999345,0.1935442214282696,-0.09359600793716517
1.8009999999999124,0.19850587018064278,-0.13478479924123526
2.0009999999998906,0.1937242162725682,-0.178647417498121
2.2009999999998686,0.1994768914784815,-0.22622133384134394
2.4009999999998466,0.20111894794106128,-0.2807892986133267
2.6009999999998246,0.20378931411029128,-0.3481728094458212
2.8009999999998025,0.20026034332544343,-0.41068229932400774
3.0009999999997805,0.17697297049300084,-0.4587778053435239
3.2009999999997585,0.13719235184988918,-0.4892380061000361
3.4009999999997365,0.0924696503045661,-0.5009702946801248
3.6009999999997144,0.05117035680153573,-0.4949098880790797
3.8009999999996924,0.002567663567939408,-0.4818657710758555
4.000999999999671,-0.046908612454410734,-0.46268954664816037
4.200999999999738,-0.11118594364762624,-0.4460673656318464
4.400999999999804,-0.1815235935285784,-0.4290736267325399
4.600999999999871,-0.23510262171303015,-0.40271335907929895
4.800999999999938,-0.27388429824371036,-0.36183327788000696
5.000000000000004,-0.2939805803044243,-0.3123009710692228
5.200000000000071,-0.30141954727335657,-0.25702505547135857
5.400000000000138,-0.3047421946588241,-0.19534237459026743
5.600000000000205,-0.2977476286136441,-0.1422367001471024
5.800000000000272,-0.2746678886796883,-0.11523061068833657
6.000000000000338,-0.23284629308890936,-0.09949561723767388
6.200000000000405,-0.18111421164672575,-0.09673337344621744
6.400000000000472,-0.13135331823153615,-0.10902383056241968
6.600000000000539,-0.07198123395396167,-0.12138037777844828
6.800000000000606,-0.006754122358158795,-0.13509248004264723
7.000000000000672,0.059832544323210314,-0.13852603940572983
7.200000000000739,0.13372687261602414,-0.13325688943294
7.400000000000806,0.19894051977965868,-0.13025599992872602
7.600000000000873,0.23062695311422335,-0.1444033157164564
7.8000000000009395,0.2503513635418729,-0.18309964127563663
8.000000000001005,0.2670056866147531,-0.24123024568376586
8.200000000000895,0.27542319174898877,-0.3018432565988712
8.400000000000784,0.2711395107569479,-0.36851697281636464
8.600000000000673,0.25632761254475606,-0.41968416936910913
8.800000000000562,0.23753699060317027,-0.4471132784525894
9.000000000000451,0.2006956569623065,-0.44973679989931825
9.20000000000034,0.16010265342936025,-0.4286120990088719
9.40000000000023,0.14214353006125274,-0.39633722153784123
9.600000000000119,0.13419580040781526,-0.34759016762171924
9.800000000000008,0.13657915663183842,-0.2924549302198371
10.000999999999896,0.14078926722259816,-0.2354870831579177
10.200999999999786,0.13250733126933062,-0.16481258628201872
10.400999999999675,0.12977139091628095,-0.09468639119409454
10.600999999999564,0.11528959113503595,-0.019907508090037083
10.800999999999453,0.10192148249758361,0.054526447997549854
11.000999999999342,0.09528640966277832,0.13825775309397537
11.200999999999231,0.09740281776454317,0.22622595722276348
11.40099999999912,0.11428938090043701,0.2891615327744894
11.60099999999901,0.15200083550698093,0.3372564050785576
11.800999999998899,0.19931712667316978,0.36629503058338914
12.000999999998788,0.2627594900588653,0.3932384329165961
12.200999999998677,0.3259381581579802,0.41010850574363206
12.400999999998566,0.3751501271578549,0.4171102702899432
12.600999999998455,0.4110811878459566,0.40016895462558505
12.800999999998345,0.42527766821746843,0.3653678794798642
13.000999999998234,0.4474295646882525,0.3116249889989545
13.200999999998123,0.4628381806103642,0.2511078188876863
13.400999999998012,0.476884070745557,0.1721904155003397
13.600999999997901,0.4794971531352088,0.11270061370453537
13.80099999999779,0.4634936316805229,0.08675135191392182
14.00099999999768,0.4298454643886975,0.0844355178618117
14.200999999997569,0.37869855023637206,0.08217071563937241
14.400999999997458,0.30701616488891037,0.08363677663016099
14.600999999997347,0.23609628471805646,0.09304672935525808
14.800999999997236,0.17583632755980763,0.1081381714667978
15.000999999997125,0.10689485440490615,0.13475538536155696
15.200999999997014,0.04505956630280518,0.17852544769412343
15.400999999996904,-0.0042743036896058925,0.23347652117859555
15.600999999996793,-0.06069163485343161,0.29524686732682986
15.800999999996682,-0.09755521307968441,0.3630053159489954
16.000999999996573,-0.13375781061182465,0.43448147542555443
16.200999999996817,-0.16216948960100855,0.5106149366181683
16.40099999999706,-0.19842875590400336,0.5881447462228916
16.600999999997306,-0.23974991915860439,0.6745705374638098
16.80099999999755,-0.2687179974903238,0.7643199224946848
17.000999999997795,-0.2761757790773458,0.8505039675968084
17.20099999999804,-0.27205539833472386,0.9247372697598569
17.400999999998284,-0.258267268482559,1.002196740568176
17.60099999999853,-0.22774297283414163,1.0613512273174193
17.800999999998773,-0.1844504810129653,1.1052699963938761
18.000999999999017,-0.14162741992641475,1.139333766134604
18.20099999999926,-0.09135775679531424,1.1654253343459158
18.400999999999506,-0.027451894277330337,1.1778567216293319
18.60099999999975,0.0190846275406802,1.1633080013111161
18.799999999999994,0.04681913271664516,1.1266750863480814
19.000000000000238,0.06792375939880531,1.0759076892455421
19.200000000000482,0.07618881353600843,1.0174649239862195
19.400000000000727,0.0806480037565983,0.9495039017083093
19.60000000000097,0.07662229127363371,0.880120262446962
19.800000000001216,0.056922412316561075,0.8263120511936541
20.00000000000146,0.019903820542724635,0.7939431922956605
