Time (s),X (m),Y (m)
0.001,0.00013020853671323254,0.0010272443824616275
0.20000000000000015,0.0013927835830981226,-0.0006599945389368486
0.4000000000000003,0.0019765078770888414,-0.0004935494722180412
0.6000000000000004,0.003726778567063209,-0.002415173929898014
0.8000000000000006,0.005685384013134766,-0.0049688742576014956
1.0000000000000007,0.007362904386388687,-0.004790562085200334
1.2009999999999785,0.00855143000504962,-0.0059171168253576495
1.4009999999999565,0.009987709574419232,-0.005886819308761218
1.6009999999999345,0.011807024843290402,-0.007665320876331181
1.8009999999999124,0.012970736184235892,-0.007187305991066426
2.0009999999998906,0.014178350997851518,-0.007190653779494608
2.2009999999998686,0.014946555865904997,-0.00690716307683317
2.4009999999998466,0.016493162704062803,-0.006162216188718234
2.6009999999998246,0.01809116412640988,-0.006907720741983414
2.8009999999998025,0.020237932784378184,-0.006687513381313048
3.0009999999997805,0.022119012157633754,-0.006642844668784232
3.2009999999997585,0.022905782251913497,-0.0062740742589152
3.4009999999997365,0.024655758994053093,-0.006835715411498263
3.6009999999997144,0.026534875798368412,-0.007017470359286614
3.8009999999996924,0.02770517967792546,-0.007015174863602804
4.000999999999671,0.028787136092017628,-0.005415934126895378
4.200999999999738,0.030670374022237698,-0.0048750254503469375
4.400999999999804,0.03336641071329681,-0.004954637424904821
4.600999999999871,0.035040480250235345,-0.0044890707690001495
4.800999999999938,0.037502437920183804,-0.005690807562615584
5.000000000000004,0.039647299377201226,-0.005186195426802312
5.200000000000071,0.04147240995799783,-0.005597858634853657
5.400000000000138,0.043380495379575855,-0.006394448412366004
5.600000000000205,0.045718313805383305,-0.006708578853881438
5.800000000000272,0.04913228976720047,-0.00651840705873324
6.000000000000338,0.05162800039418303,-0.005992854873615198
6.200000000000405,0.05342166118373611,-0.005675818443343433
6.400000000000472,0.05552705827320265,-0.005276979065994659
6.600000000000539,0.05787858484453074,-0.004313471143050654
6.800000000000606,0.0596296947740379,-0.003964686192731149
7.000000000000672,0.06087935741565068,-0.0037191799234975263
7.200000000000739,0.0628712657190599,-0.003451048245247648
7.400000000000806,0.06433315041687032,-0.0028613427181627825
7.600000000000873,0.06609639115348152,-0.0021533375341332484
7.8000000000009395,0.06672842539559698,-0.0015909942073534906
8.000000000001005,0.06875979023487708,-0.0007546091025976366
8.200000000000895,0.07022138268144847,-8.699823497944756e-05
8.400000000000784,0.07078325390525866,0.000818791605950223
8.600000000000673,0.07130573731529925,0.0018639346982647594
8.800000000000562,0.07307330835276592,0.0029591331530577692
9.000000000000451,0.07486002404670294,0.0034796554759494534
9.20000000000034,0.07544910836449913,0.004811053164102751
9.40000000000023,0.07679893281087002,0.0058154810791529185
9.600000000000119,0.07893888682815094,0.00762116891654858
9.800000000000008,0.08034735732604323,0.009237099703972594
10.000999999999896,0.08183673018334447,0.010907273347000196
10.200999999999786,0.08289942794840326,0.01197310150134996
10.400999999999675,0.08322901825918136,0.01303755777301792
10.600999999999564,0.08453598355666662,0.01419544141460055
10.800999999999453,0.08563216759429404,0.015271098229672635
11.000999999999342,0.08648963761476085,0.016676215388404563
11.200999999999231,0.08801927121864167,0.017955822989494597
11.40099999999912,0.08888770796726263,0.019157288430958805
11.60099999999901,0.09018838411235292,0.02053461135380032
11.800999999998899,0.09093745335608128,0.021783947727852658
12.000999999998788,0.0916746449596283,0.023724453832490614
12.200999999998677,0.09257522665433802,0.025464788732166
12.400999999998566,0.09408239266592093,0.02712123950061778
12.600999999998455,0.09475850677524451,0.029497849730506093
12.800999999998345,0.09567514998175225,0.031564518251660414
13.000999999998234,0.09641954143828081,0.033454545328925465
13.200999999998123,0.0970272553220282,0.03558916678455655
13.400999999998012,0.09769569162211729,0.038466543540985665
13.600999999997901,0.09722867797064885,0.04183675275251543
13.80099999999779,0.09776311297648997,0.04453808760850617
14.00099999999768,0.09805298223085211,0.04783451251921004
14.200999999997569,0.09774401168676662,0.05101029017012647
14.400999999997458,0.09727311923638407,0.05441726633978005
14.600999999997347,0.0965934573815719,0.057844218973744074
14.800999999997236,0.09616013362341998,0.06050961352228128
15.000999999997125,0.09589170782557765,0.06343066887197772
15.200999999997014,0.09526168114249263,0.06538328065416832
15.400999999996904,0.09475158730780538,0.06848071394652878
15.600999999996793,0.09400598966228611,0.07133459375926315
15.800999999996682,0.09344512888221915,0.07373352464679796
16.000999999996573,0.09242878396525121,0.07546791468129985
16.200999999996817,0.09163810519430719,0.0772627079316739
16.40099999999706,0.09123688709142998,0.07954120991396217
16.600999999997306,0.08993279519103624,0.08143500007092831
16.80099999999755,0.08898022425747502,0.0832778811500286
17.000999999997795,0.08744043892015102,0.0852054701658346
17.20099999999804,0.08633672348207287,0.0871652231824198
17.400999999998284,0.0854614988069939,0.08801033736655678
17.60099999999853,0.08383606886293525,0.08934484822186589
17.800999999998773,0.08264358702124641,0.09074570496768998
18.000999999999017,0.08203457948122844,0.09194082116108297
18.20099999999926,0.08169878589130722,0.09354084479574641
18.400999999999506,0.08045995279355535,0.0946297026458921
18.60099999999975,0.08001072070629425,0.09629791862080511
18.799999999999994,0.07810219266663057,0.09834312868828733
19.000000000000238,0.07599781658439408,0.10111977212959175
19.200000000000482,0.07356958898324574,0.10353525297886286
19.400000000000727,0.07116389793915011,0.10607490745408424
19.60000000000097,0.06857337314103604,0.1084408083173609
19.800000000001216,0.06602264864443572,0.11025082409391346
20.00000000000146,0.06461467153897937,0.11101473492741208
