Time (s),X (m),Y (m)
0.001,-0.0003713730577023104,0.0008446836120385872
0.20000000000000015,0.003836780625812476,-0.003966379010664117
0.4000000000000003,0.010524064542484089,-0.005382507023914959
0.6000000000000004,0.027013543663315334,-0.0078011771194929184
0.8000000000000006,0.046143112645310874,-0.010308043804328804
1.0000000000000007,0.06853383139263243,-0.02865232624909492
1.2009999999999785,0.09129787119497582,-0.053630944023569195
1.4009999999999565,0.11533153224227032,-0.08671299307770564
1.6009999999999345,0.14333571309109513,-0.11499119650469378
1.8009999999999124,0.1734003188594805,-0.15403506627376318
2.0009999999998906,0.19800221475870122,-0.19062403503329114
2.2009999999998686,0.21609725444196198,-0.2336326620806159
2.4009999999998466,0.21739665925699886,-0.28102355584453503
2.6009999999998246,0.20824856147169207,-0.33171226151374
2.8009999999998025,0.21200730818801714,-0.37570908616947163
3.0009999999997805,0.21977301567985683,-0.4195352436525338
3.2009999999997585,0.23631198458051197,-0.4539240435460572
3.4009999999997365,0.2476700191492063,-0.4871195934691803
3.6009999999997144,0.26075012867999636,-0.5205497815346136
3.8009999999996924,0.26923475111873124,-0.5572847709117656
4.000999999999671,0.24431553619299373,-0.5948940297076296
4.200999999999738,0.22888611189421462,-0.6361141700605583
4.400999999999804,0.21843237425299183,-0.6812101538335944
4.600999999999871,0.19627584804375173,-0.7266541294180918
4.800999999999938,0.17229181485920653,-0.7702782097586418
5.000000000000004,0.14580285197262965,-0.8104385771410183
5.200000000000071,0.10851305629404917,-0.8383504442061632
5.400000000000138,0.05972327266898491,-0.8513578292988083
5.600000000000205,0.013587394572349084,-0.8624528122603751
5.800000000000272,-0.02342290863018018,-0.8828815078520247
6.000000000000338,-0.04595798360457072,-0.9120226168468472
6.200000000000405,-0.067941537662712,-0.9505042925028223
6.400000000000472,-0.09540616756690654,-0.9912554259239731
6.600000000000539,-0.13569573126085976,-1.0292396734947025
6.800000000000606,-0.18135079468724816,-1.0646345277889702
7.000000000000672,-0.22813741081880604,-1.0927369884908886
7.200000000000739,-0.2811249043024747,-1.1129225063946537
7.400000000000806,-0.33350096262750706,-1.1307199278913962
7.600000000000873,-0.3692449847601664,-1.1547659666570633
7.8000000000009395,-0.40128575860976373,-1.1833847627781944
8.000000000001005,-0.43339888391569176,-1.2118777517379258
8.200000000000895,-0.4776413371884864,-1.2264418511411603
8.400000000000784,-0.5314623533034689,-1.2363832373867467
8.600000000000673,-0.5930134446543146,-1.2384145682303838
8.800000000000562,-0.6579650667293078,-1.2415919736202914
9.000000000000451,-0.7168427013828268,-1.2355484215347274
9.20000000000034,-0.7637047880458782,-1.1999825536681035
9.40000000000023,-0.796902240152221,-1.1521625985051764
9.600000000000119,-0.8202067012281936,-1.0955430481495008
9.800000000000008,-0.8369666076027064,-1.0368889869617135
10.000999999999896,-0.8327640887638763,-0.9833409354201739
10.200999999999786,-0.798958628043457,-0.930963758978466
10.400999999999675,-0.7567473089727498,-0.8837275979121342
10.600999999999564,-0.711451946295104,-0.8484046180903313
10.800999999999453,-0.6773259324073917,-0.818574095307231
11.000999999999342,-0.6394309964651925,-0.78925238083467
11.200999999999231,-0.6017638186216817,-0.759519295329547
11.40099999999912,-0.5543054132021948,-0.7341194349495404
11.60099999999901,-0.499550777417974,-0.7106774628665851
11.800999999998899,-0.4553882471427459,-0.6850999382636624
12.000999999998788,-0.4068103989948613,-0.6518906309404385
12.200999999998677,-0.34807141967148736,-0.6254306372386543
12.400999999998566,-0.28538088076329887,-0.6129535847883856
12.600999999998455,-0.22676146663743846,-0.602295231101758
12.800999999998345,-0.16948041143891132,-0.6076301060236388
13.000999999998234,-0.11101331649410168,-0.6147454320634421
13.200999999998123,-0.05537756311405852,-0.6222152666955739
13.400999999998012,-0.002516522599500956,-0.6332157151977666
13.600999999997901,0.044671099401022325,-0.6619847287776975
13.80099999999779,0.08434821514858248,-0.6989850400802222
14.00099999999768,0.11642493547994,-0.7405861339744527
14.200999999997569,0.14523629438693603,-0.7818982016732333
14.400999999997458,0.15607218306770293,-0.839215607593441
14.600999999997347,0.16570344860801448,-0.8959523548428615
14.800999999997236,0.1845051825630477,-0.9492382768247243
15.000999999997125,0.2099422365973518,-0.9976991629191603
15.200999999997014,0.23203442867971671,-1.0481932584035414
15.400999999996904,0.24487063768483583,-1.1009551641438144
15.600999999996793,0.2457002828996765,-1.153196121583468
15.800999999996682,0.24188594662049032,-1.2047183434617172
16.000999999996573,0.23243118509969665,-1.2490841842170006
16.200999999996817,0.19951341673465417,-1.2943703592971207
16.40099999999706,0.1457611757839801,-1.3386035374787166
16.600999999997306,0.09204044027307197,-1.3738035710837624
16.80099999999755,0.0387059910553255,-1.4032553728445891
17.000999999997795,-0.017560099677644866,-1.4180426471562007
17.20099999999804,-0.07857599825663901,-1.4275068484289128
17.400999999998284,-0.13326786339527863,-1.4461743916807035
17.60099999999853,-0.1852321324969588,-1.4588636978624105
17.800999999998773,-0.2283004423077111,-1.438152945956962
18.000999999999017,-0.25623528265464063,-1.401505946576119
18.20099999999926,-0.2819787245492591,-1.348292047380886
18.400999999999506,-0.3108885094860781,-1.303168299273857
18.60099999999975,-0.32585611734665415,-1.2550874942185273
18.799999999999994,-0.33302474340255167,-1.2036028436612363
19.000000000000238,-0.34511610514397595,-1.1461056095209128
19.200000000000482,-0.36082998247538334,-1.0869319052600424
19.400000000000727,-0.37600705661853273,-1.0275180254789795
19.60000000000097,-0.3904185548953995,-0.9742851217458699
19.800000000001216,-0.3978907267548662,-0.9083746235157292
20.00000000000146,-0.4042393532755726,-0.8444037655750505
