Time (s),X (m),Y (m)
0.001,-0.0006246028371892732,0.000591453832551625
0.20000000000000015,0.0021723062969642823,0.0007110731698448187
0.4000000000000003,0.007514564623515435,0.003861288086920843
0.6000000000000004,0.029395386750605483,0.00041677021104834396
0.8000000000000006,0.05783009399504083,-0.002141214042812159
1.0000000000000007,0.08511564921193344,0.0003171614600043238
1.2009999999999785,0.1132185426119918,-0.008820872678332942
1.4009999999999565,0.14452899013140497,-0.026441732208654485
1.6009999999999345,0.17795463041041257,-0.04642672259517672
1.8009999999999124,0.19888618635422176,-0.08175211157616723
2.0009999999998906,0.2170087716979617,-0.12096540016132334
2.2009999999998686,0.22881824735226733,-0.1669579537253939
2.4009999999998466,0.23211307591891747,-0.21452741588224958
2.6009999999998246,0.22549044912494562,-0.2599066516155569
2.8009999999998025,0.21258868082412485,-0.2986919528221517
3.0009999999997805,0.19551120497248564,-0.3212015769439421
3.2009999999997585,0.1680463324476401,-0.3189672086703933
3.4009999999997365,0.13276781847948216,-0.31574950991752193
3.6009999999997144,0.09929084231427289,-0.27259421040288234
3.8009999999996924,0.07754291845858663,-0.22761892673158957
4.000999999999671,0.06202566927718784,-0.18132156883093153
4.200999999999738,0.05982743239753044,-0.11883434310422936
4.400999999999804,0.06099612576814578,-0.05226618861513929
4.600999999999871,0.06983738548159683,0.014805755685384846
4.800999999999938,0.08053347337718875,0.08185759592548764
5.000000000000004,0.10125717489303772,0.15224326428931775
5.200000000000071,0.1313030357314748,0.22957039377431418
5.400000000000138,0.15933734256092616,0.3053750220587454
5.600000000000205,0.17909182492420583,0.3770608515182533
5.800000000000272,0.20672206957708483,0.4413300358022341
6.000000000000338,0.2551421113255595,0.47679532967503596
6.200000000000405,0.3156553649437449,0.4890214236073902
6.400000000000472,0.38020997088721775,0.4936531237533475
6.600000000000539,0.4459849422617516,0.48985688189053
6.800000000000606,0.520175075424827,0.4760187909696022
7.000000000000672,0.5977041639643125,0.4387295161956222
7.200000000000739,0.6681425240022424,0.39600730491419756
7.400000000000806,0.7247742413254837,0.3464189639032723
7.600000000000873,0.751963981529862,0.28085259622282327
7.8000000000009395,0.7524113337396248,0.19432246896216462
8.000000000001005,0.7346810342648616,0.10228141416615288
8.200000000000895,0.7126204687038625,0.015142589117226591
8.400000000000784,0.6685930508781336,-0.06774496595058134
8.600000000000673,0.6318633422471563,-0.13414568059969761
8.800000000000562,0.593527001719038,-0.16787934896334555
9.000000000000451,0.5400990048916706,-0.16277556032142562
9.20000000000034,0.48076809028876627,-0.15531347325018083
9.40000000000023,0.42131349264892765,-0.12188523325656879
9.600000000000119,0.3781262693676834,-0.07157441999204364
9.800000000000008,0.35408304621064485,-0.028927398800946625
10.000999999999896,0.35232261843826473,0.02885456393171586
10.200999999999786,0.36642132850291104,0.0983031476956366
10.400999999999675,0.37653402050517676,0.17826612283434223
10.600999999999564,0.38534577305176815,0.2569914152833501
10.800999999999453,0.4088789079618912,0.33711281501568724
11.000999999999342,0.4553906018011949,0.4109703852367782
11.200999999999231,0.5141253971710467,0.4571389274340483
11.40099999999912,0.5804601561811296,0.4789707201983603
11.60099999999901,0.6460528265264344,0.4845154863175765
11.800999999998899,0.7025355326123733,0.46296355927234495
12.000999999998788,0.7429480027168328,0.42508249339422
12.200999999998677,0.7611993814159274,0.3807022346950593
12.400999999998566,0.7696892705715851,0.33565744029765365
12.600999999998455,0.7640768499417163,0.28731150420316054
12.800999999998345,0.7340235245121619,0.24765855007446205
13.000999999998234,0.6912298155153126,0.23654341786552713
13.200999999998123,0.6466891924803105,0.2501438443379306
13.400999999998012,0.6037456405806207,0.2741477223139413
13.600999999997901,0.5917720751050914,0.32175210225644213
13.80099999999779,0.5981559304462656,0.3723208873662529
14.00099999999768,0.6113604807137079,0.41730176562601873
14.200999999997569,0.6520785490524146,0.4288104067458115
14.400999999997458,0.7001937507878246,0.40723349105327933
14.600999999997347,0.7548182934541461,0.37966331504723316
14.800999999997236,0.8184330885396465,0.3464978279330997
15.000999999997125,0.8751443501398362,0.2916507196229622
15.200999999997014,0.9220239636423642,0.22900074709340631
15.400999999996904,0.9505061016474136,0.1552233957702005
15.600999999996793,0.9625910722939174,0.0778584451375618
15.800999999996682,0.9660530073831277,-0.004105824398382121
16.000999999996573,0.9612796865804475,-0.0833562758277065
16.200999999996817,0.9391328094001767,-0.16089398084537596
16.40099999999706,0.9016164453184485,-0.22894285926267202
16.600999999997306,0.8568088541669718,-0.28524420786036797
16.80099999999755,0.7990148654815701,-0.31834873181056356
17.000999999997795,0.7309374127087445,-0.3291021802511386
17.20099999999804,0.6654248799898794,-0.31444167270001394
17.400999999998284,0.6089494520820806,-0.3006736502062972
17.60099999999853,0.5779069239567305,-0.2582279387735335
17.800999999998773,0.5837141228593838,-0.2034527510200256
18.000999999999017,0.6091349587652821,-0.15110140466618005
18.20099999999926,0.6618018975561091,-0.12497259260196399
18.400999999999506,0.7109053798862005,-0.12029956570011383
18.60099999999975,0.7541125337375133,-0.1432678957239062
18.799999999999994,0.77932521923489,-0.1819235742754416
19.000000000000238,0.7684807956170604,-0.23575159742574256
19.200000000000482,0.7471462077720923,-0.2879226859998512
19.400000000000727,0.7108488097852717,-0.3299284282357343
19.60000000000097,0.6533323787941565,-0.3497745724734232
19.800000000001216,0.5945770482020798,-0.34977609294945405
20.00000000000146,0.5310024394478147,-0.32786925237334336
