Time (s),X (m),Y (m)
0.001,0.0002200807748493132,-0.0010311682891199468
0.20000000000000015,0.0015828854457185814,0.0014999635622454848
0.4000000000000003,0.007110167067448632,-0.007357622965071666
0.6000000000000004,0.024938285350930914,-0.021789643164014598
0.8000000000000006,0.06076037172965768,-0.03463317442560929
1.0000000000000007,0.10274150891567263,-0.06321261767946007
1.2009999999999785,0.14610193070389252,-0.10187735970182608
1.4009999999999565,0.1754106814485493,-0.14219436128783944
1.6009999999999345,0.18113953747451064,-0.19721953785211005
1.8009999999999124,0.16762888236976473,-0.20949289755912917
2.0009999999998906,0.13416494257071232,-0.20396950450671086
2.2009999999998686,0.08946639407393359,-0.18830420430329067
2.4009999999998466,0.03749103464773791,-0.16666709109270222
2.6009999999998246,0.00851210365113516,-0.1328547611452053
2.8009999999998025,0.010103310347629499,-0.09268018998790571
3.0009999999997805,0.028588086841477303,-0.05571337132407873
3.2009999999997585,0.06568821150387182,-0.04256333130654029
3.4009999999997365,0.10883524871259669,-0.02401075736551092
3.6009999999997144,0.157610285734431,-0.013428231440181675
3.8009999999996924,0.21802769506577743,-0.016430723813328715
4.000999999999671,0.293437336574561,-0.01807260822883708
4.200999999999738,0.3556182621153945,-0.03299201908763961
4.400999999999804,0.4146789618685631,-0.0628311286805105
4.600999999999871,0.45645891791154675,-0.10171874738013391
4.800999999999938,0.4669757997100242,-0.1368240750970513
5.000000000000004,0.45763307425911903,-0.14556826426228706
5.200000000000071,0.43536885303431155,-0.1362482172304811
5.400000000000138,0.4265958672596062,-0.11230171142342818
5.600000000000205,0.4384841534004017,-0.0683716881778717
5.800000000000272,0.45292900989315754,-0.030351744697016493
6.000000000000338,0.48179037506071903,-0.016244616959033446
6.200000000000405,0.5305212096050809,-0.007707055483281933
6.400000000000472,0.5751040762913364,-0.01513951969184637
6.600000000000539,0.587981257891621,-0.04037252407851926
6.800000000000606,0.5802131898773948,-0.08297883206987056
7.000000000000672,0.5706278813488997,-0.12828321379651222
7.200000000000739,0.5526115711577078,-0.1533846135651706
7.400000000000806,0.5347660627604011,-0.15854014505908315
7.600000000000873,0.5011683786202494,-0.1422304351195845
7.8000000000009395,0.4677950185474129,-0.1119537941905003
8.000000000001005,0.4523052873832188,-0.0569016945668437
8.200000000000895,0.4579925980160853,0.00714572430199258
8.400000000000784,0.4805500968206103,0.0734975682426066
8.600000000000673,0.5017700925190713,0.1423696361624059
8.800000000000562,0.5349198010996523,0.17368980809203094
9.000000000000451,0.5780118340925751,0.17024088219800165
9.20000000000034,0.6371844029215309,0.16169400752242813
9.40000000000023,0.6847089129781351,0.14008464547296434
9.600000000000119,0.7004041528486984,0.10812191041772032
9.800000000000008,0.6949909643717912,0.05871462250499206
10.000999999999896,0.6719667743753741,0.022721416583547066
10.200999999999786,0.6328415714979272,0.007310912518173021
10.400999999999675,0.5935168844266046,0.011413592240875993
10.600999999999564,0.5643231360979682,0.028646657667522998
10.800999999999453,0.5357924440344216,0.06953867954920323
11.000999999999342,0.5189990901313912,0.11654290060622687
11.200999999999231,0.5246422726906634,0.154127843857443
11.40099999999912,0.5534931482742727,0.18332111214530486
11.60099999999901,0.5922659689593998,0.20484347562929325
11.800999999998899,0.6402377361615859,0.2028406328370608
12.000999999998788,0.6634673016606906,0.18040825399015267
12.200999999998677,0.6626106770164994,0.1433520936392019
12.400999999998566,0.6663946539957889,0.08929478187520853
12.600999999998455,0.6666656593223229,0.028146770243716458
12.800999999998345,0.6526405200805243,-0.04140394318594453
13.000999999998234,0.6333066026307782,-0.10602312276094028
13.200999999998123,0.5940343998840866,-0.14519738077038652
13.400999999998012,0.545302480760074,-0.15934406931957215
13.600999999997901,0.49833627261522495,-0.15364793762620185
13.80099999999779,0.4533830107606627,-0.13337914640941603
14.00099999999768,0.44114109096442145,-0.10332710375964191
14.200999999997569,0.4483899407694216,-0.055505368290556925
14.400999999997458,0.477843587366826,-0.010976840043884587
14.600999999997347,0.5207034898818269,0.008508593705265879
14.800999999997236,0.5631583597607739,0.007926692282546478
15.000999999997125,0.5709450424722738,-0.013925838919274151
15.200999999997014,0.5600947434243093,-0.05332972534136157
15.400999999996904,0.5328911694103573,-0.09784671028917108
15.600999999996793,0.49047661520528485,-0.11757115204614481
15.800999999996682,0.44231216118296995,-0.12983185342257222
16.000999999996573,0.3825986042158301,-0.1512406411994112
16.200999999996817,0.3177713169351535,-0.1598480368472739
16.40099999999706,0.2398040586426881,-0.15744196272861607
16.600999999997306,0.16407849343221662,-0.14839380645410974
16.80099999999755,0.08164743709200373,-0.1269532651219628
17.000999999997795,-0.0007087898002757628,-0.09894706921320191
17.20099999999804,-0.07655429746463645,-0.06152518952555446
17.400999999998284,-0.12480525499253207,-0.005260111910138167
17.60099999999853,-0.13897928458595354,0.052090798697084426
17.800999999998773,-0.1303181277953117,0.11120533441896113
18.000999999999017,-0.11381811313680137,0.1724788971875593
18.20099999999926,-0.09548357842402357,0.23421386174921097
18.400999999999506,-0.07458158034508922,0.3024518653438077
18.60099999999975,-0.052744078840691704,0.3786700417419582
18.799999999999994,-0.026084566846721568,0.4597304405288503
19.000000000000238,0.004153154562750857,0.5341578898768112
19.200000000000482,0.046981485221059154,0.5891498475980075
19.400000000000727,0.11422602488093049,0.6273428398743159
19.60000000000097,0.19259030908999258,0.6386545338238642
19.800000000001216,0.2714363565454737,0.6342485316061688
20.00000000000146,0.3517929351773307,0.6147996146106169
