Time (s),X (m),Y (m)
0.001,0.0008829029745972832,-0.0007899207378008392
0.20000000000000015,0.00015731012928708518,0.0019097569907874624
0.4000000000000003,0.004634736125263748,-0.00015934432692128633
0.6000000000000004,0.011296863378170515,0.0017795962575229904
0.8000000000000006,0.013853877606208603,0.007961943158160846
1.0000000000000007,0.019173842445531202,0.015026756108752797
1.2009999999999785,0.029563227727808415,0.01075315664264185
1.4009999999999565,0.05304272475118639,0.007544817888481466
1.6009999999999345,0.0832238126299863,0.006523893989135407
1.8009999999999124,0.11318252183036567,0.006745839647500277
2.0009999999998906,0.1397514501442935,0.004228857041784631
2.2009999999998686,0.15683373944222767,0.004210445746722401
2.4009999999998466,0.17641211377640248,0.003957273408629903
2.6009999999998246,0.19617636629105936,0.0036497113911763412
2.8009999999998025,0.21239338264239283,0.0038773973979197665
3.0009999999997805,0.22710039445623054,-0.0008298108266067884
3.2009999999997585,0.241997332165075,-0.010350260950147554
3.4009999999997365,0.26057839250971976,-0.018650586360594298
3.6009999999997144,0.2712140044572906,-0.026429237355444654
3.8009999999996924,0.2810232790906764,-0.040246827327138295
4.000999999999671,0.2934885185657264,-0.06413439931753458
4.200999999999738,0.30199902895723485,-0.08997500134752488
4.400999999999804,0.3125196225601787,-0.10983471464273452
4.600999999999871,0.3234449183647992,-0.13256623016352453
4.800999999999938,0.32911886913369764,-0.1474015967278802
5.000000000000004,0.3368577098015477,-0.16386936950330974
5.200000000000071,0.3402014367256792,-0.19019169251976073
5.400000000000138,0.3469081986039078,-0.21401956975818584
5.600000000000205,0.3561329139002731,-0.23589866485011016
5.800000000000272,0.35621888902765364,-0.2597288599911422
6.000000000000338,0.3598554126115571,-0.27814474211841567
6.200000000000405,0.3722111554382221,-0.28646508280732935
6.400000000000472,0.3877376317904074,-0.3016925570040539
6.600000000000539,0.3860130146662636,-0.3277569293366235
6.800000000000606,0.3888579791764161,-0.35256776130582296
7.000000000000672,0.3934917463800527,-0.3749498722413778
7.200000000000739,0.39758268837380156,-0.4001290650883661
7.400000000000806,0.4012218143252978,-0.42782894416193473
7.600000000000873,0.40055366065318154,-0.4462580231891575
7.8000000000009395,0.40824707379816405,-0.46533136584446616
8.000000000001005,0.42020769185852613,-0.4833965410898841
8.200000000000895,0.42660704302893454,-0.5024080638446027
8.400000000000784,0.42804396826162133,-0.5284308200801296
8.600000000000673,0.4301162068654278,-0.5534848581815456
8.800000000000562,0.4419721992841775,-0.5695824550227536
9.000000000000451,0.43909905660904525,-0.5988732634958618
9.20000000000034,0.44522242779333027,-0.6250208451741569
9.40000000000023,0.4477570556056424,-0.6503468257066443
9.600000000000119,0.4446855977669902,-0.6760367438693593
9.800000000000008,0.44331419046304543,-0.6957478854379766
10.000999999999896,0.447140980349412,-0.7203809408573967
10.200999999999786,0.44272277892254497,-0.7455976637534832
10.400999999999675,0.44156652221457166,-0.7743271872814966
10.600999999999564,0.42474888278369366,-0.7983330568786581
10.800999999999453,0.4106051773688425,-0.8191857188230695
11.000999999999342,0.3955462925208582,-0.836290825354702
11.200999999999231,0.39121481426465027,-0.8541866710759005
11.40099999999912,0.37069375894055623,-0.8687231569932663
11.60099999999901,0.35286468959684164,-0.8795344482774576
11.800999999998899,0.33680955214287134,-0.8866039111277296
12.000999999998788,0.32346537619936494,-0.8906207946397112
12.200999999998677,0.3039159468166576,-0.901072205794884
12.400999999998566,0.2813259655258693,-0.9136097340015011
12.600999999998455,0.2552337475560181,-0.9273331045257789
12.800999999998345,0.2324807616110527,-0.9377016551699812
13.000999999998234,0.20018879647222718,-0.9427927643772458
13.200999999998123,0.16422044814828257,-0.9480281542424253
13.400999999998012,0.13298611292004958,-0.9534659831884326
13.600999999997901,0.104688535834974,-0.9585823724700978
13.80099999999779,0.07977597901040484,-0.9630482861784532
14.00099999999768,0.05060909845859525,-0.964055905499158
14.200999999997569,0.02543728711824865,-0.9686712184664907
14.400999999997458,0.007818060373790802,-0.9810277889742844
14.600999999997347,-0.011965770766202867,-0.9920818867894529
14.800999999997236,-0.037244155147460885,-0.9981841967138181
15.000999999997125,-0.05797401537141897,-0.998416147704468
15.200999999997014,-0.08276182910809188,-1.004049111474109
15.400999999996904,-0.10309656576536251,-1.0006717444809126
15.600999999996793,-0.12079512859088655,-0.9884739360294503
15.800999999996682,-0.14799547747578948,-0.9835385068037817
16.000999999996573,-0.17390415500189796,-0.977004833955536
16.200999999996817,-0.1971243764917897,-0.9707236749966817
16.40099999999706,-0.21471771831140804,-0.9536171397345167
16.600999999997306,-0.2281944187277525,-0.9459629127543705
16.80099999999755,-0.2375302232710258,-0.935718593752695
17.000999999997795,-0.24877758864363683,-0.9133102981291301
17.20099999999804,-0.2619646258633904,-0.89952566148625
17.400999999998284,-0.2809748920219267,-0.8869466875789035
17.60099999999853,-0.29290976974641253,-0.8715660677449555
17.800999999998773,-0.30373996090857225,-0.8578132608430508
18.000999999999017,-0.31420313801688315,-0.837265951568272
18.20099999999926,-0.3175281377579064,-0.8094485991735931
18.400999999999506,-0.322052099938929,-0.7852650039556195
18.60099999999975,-0.33336140062767666,-0.7679535289721151
18.799999999999994,-0.3478449822053402,-0.7506977414391034
19.000000000000238,-0.3522653633540685,-0.724065467896997
19.200000000000482,-0.35610722514211657,-0.7009976683162855
19.400000000000727,-0.36672887410537525,-0.6852503027091196
19.60000000000097,-0.3734045028322209,-0.6653732405319879
19.800000000001216,-0.3756941510604604,-0.6448261556409945
20.00000000000146,-0.3813720365116187,-0.6245763223481902
