Time (s),X (m),Y (m)
0.001,0.0012355833006349724,0.00017906049427360518
0.20000000000000015,0.0027071313319154723,0.00012594171880341872
0.4000000000000003,0.008052168198943126,5.16499652158286e-05
0.6000000000000004,0.020405117325232272,-0.006925669308522128
0.8000000000000006,0.03882376779387151,-0.011650171033070637
1.0000000000000007,0.04787639371949976,-0.011902244318431817
1.2009999999999785,0.05311280127508406,-0.0119646467701636
1.4009999999999565,0.06809863139563291,-0.014190602882130953
1.6009999999999345,0.08656711936844332,-0.02005181784522277
1.8009999999999124,0.11773412152308603,-0.03036594311028207
2.0009999999998906,0.13575033689314206,-0.04006067272998308
2.2009999999998686,0.16425546755693124,-0.05074316599090518
2.4009999999998466,0.205723648803258,-0.06527102029309663
2.6009999999998246,0.2440990672031867,-0.08460522739078949
2.8009999999998025,0.28660845275004426,-0.10710139738037772
3.0009999999997805,0.3211830973358507,-0.12811532105557807
3.2009999999997585,0.35905684403269594,-0.1518277701957567
3.4009999999997365,0.4056300212834101,-0.1792443794930605
3.6009999999997144,0.443422784174024,-0.21732186231208428
3.8009999999996924,0.4636233471048653,-0.26233646846537906
4.000999999999671,0.466846866490145,-0.3167032754707732
4.200999999999738,0.45645139918149064,-0.3758865138169001
4.400999999999804,0.43508636062083195,-0.43459953827824993
4.600999999999871,0.41055699838055554,-0.4860181057987942
4.800999999999938,0.3797066066755596,-0.5408516696755326
5.000000000000004,0.3452352353586079,-0.588444941145324
5.200000000000071,0.3005832726956045,-0.6371845710967119
5.400000000000138,0.2511300352044056,-0.6877862379413222
5.600000000000205,0.2029893860083003,-0.7350010008879251
5.800000000000272,0.15799684246106777,-0.7604363398682803
6.000000000000338,0.12204664593097768,-0.7611733188294869
6.200000000000405,0.08259845271710566,-0.7448699435392494
6.400000000000472,0.030176296901662836,-0.7118595230815269
6.600000000000539,-0.03721071491061635,-0.6707900854186823
6.800000000000606,-0.10285052892833317,-0.6282505036020533
7.000000000000672,-0.17437686871956715,-0.5759050340875983
7.200000000000739,-0.24295851889519524,-0.5254711676781169
7.400000000000806,-0.32385182536523915,-0.46891976722582696
7.600000000000873,-0.40102462756230817,-0.416099077949024
7.8000000000009395,-0.47826823204256236,-0.3672954711930878
8.000000000001005,-0.5631545371546733,-0.310702521133609
8.200000000000895,-0.6492548311193772,-0.2459986783894184
8.400000000000784,-0.7210906932983672,-0.1851164466994233
8.600000000000673,-0.7624288863482707,-0.12471458316914621
8.800000000000562,-0.7765487827895045,-0.08176243652733424
9.000000000000451,-0.7765970116178635,-0.04435432505193317
9.20000000000034,-0.7558976099309729,0.007751776099162324
9.40000000000023,-0.7222778163013213,0.06698551548199537
9.600000000000119,-0.6794739556761341,0.13111939768705935
9.800000000000008,-0.6321352918936146,0.19851645178262264
10.000999999999896,-0.5891278019019895,0.2572463994572923
10.200999999999786,-0.5360417198922186,0.3100010023782173
10.400999999999675,-0.4827160942153745,0.35191438350223736
10.600999999999564,-0.43441047979837494,0.3840025263893218
10.800999999999453,-0.3855210720604957,0.39722429652443286
11.000999999999342,-0.324800139781479,0.38339889066786736
11.200999999999231,-0.25116167983665555,0.34874083526512656
11.40099999999912,-0.17092115370844635,0.29817805961101534
11.60099999999901,-0.09219408932787977,0.23688282911676428
11.800999999998899,-0.029977085850455946,0.18183541486167823
12.000999999998788,-0.007284658009275791,0.138055319737279
12.200999999998677,-0.01952681759682055,0.08569376101441678
12.400999999998566,-0.04848384905392423,0.030783309379254446
12.600999999998455,-0.09019021542269856,-0.027494878652987716
12.800999999998345,-0.1346082588539841,-0.08328620846579764
13.000999999998234,-0.1926877168069048,-0.1310386666043456
13.200999999998123,-0.23965102772309463,-0.16353352691597045
13.400999999998012,-0.2830781114044885,-0.18077546352665672
13.600999999997901,-0.3359361861535177,-0.17671252231908435
13.80099999999779,-0.3823856988185098,-0.16282739557284004
14.00099999999768,-0.4318144121907488,-0.1360138556016183
14.200999999997569,-0.4937293701384475,-0.09973246219903543
14.400999999997458,-0.5585609091213685,-0.05284150105717838
14.600999999997347,-0.6282038984885063,0.004054150375515136
14.800999999997236,-0.6976333703521839,0.06414530510939744
15.000999999997125,-0.7635410919523573,0.1194341493337889
15.200999999997014,-0.8336034882929779,0.1773349578731352
15.400999999996904,-0.9027213559836273,0.23479184889174481
15.600999999996793,-0.9644490904479313,0.3038137078616681
15.800999999996682,-0.993703935722768,0.36504795310476834
16.000999999996573,-0.9823507591993254,0.438326276589919
16.200999999996817,-0.9465530880496792,0.5145560698394208
16.40099999999706,-0.9018408939744008,0.5825695873235543
16.600999999997306,-0.8442212407599368,0.6334394528272607
16.80099999999755,-0.7857447105978536,0.6445460961510004
17.000999999997795,-0.7341527390485953,0.6219024287392337
17.20099999999804,-0.6982748789657902,0.5882370059125464
17.400999999998284,-0.6863072243921943,0.5553963666080313
17.60099999999853,-0.6926038520603702,0.5133841576773657
17.800999999998773,-0.7165052579989722,0.4608031065541772
18.000999999999017,-0.7477410709584957,0.406675608575419
18.20099999999926,-0.7853051098239678,0.34492055032126845
18.400999999999506,-0.8161195918330297,0.2911708692396074
18.60099999999975,-0.8463530247900013,0.23958622636491467
18.799999999999994,-0.8798275320348576,0.18556104096998624
19.000000000000238,-0.9131790041465672,0.13115526882652434
19.200000000000482,-0.9470334761543526,0.0785853951699745
19.400000000000727,-0.9869884114312919,0.025901446832102687
19.60000000000097,-1.0366346925230745,-0.029676078009382805
19.800000000001216,-1.0929278736711279,-0.09021119062022319
20.00000000000146,-1.1630291701282975,-0.14747761185413205
