Time (s),X (m),Y (m)
0.001,0.0011890620069237587,-0.00035268032603768894
0.20000000000000015,0.0028457157319370426,-0.0011631907570843882
0.4000000000000003,0.007919223439314277,0.0064346163128746305
0.6000000000000004,0.020444146551069943,0.010234977953401747
0.8000000000000006,0.04599976439461856,0.005874134545976667
1.0000000000000007,0.06836679592652174,0.00644424493360792
1.2009999999999785,0.08837029786304484,0.011173875851682006
1.4009999999999565,0.10710598255825035,0.013476619183739148
1.6009999999999345,0.10338445834895224,-0.0016183752685974423
1.8009999999999124,0.08318318177878356,-0.020181122485977615
2.0009999999998906,0.05347560714093124,-0.02987270636680791
2.2009999999998686,0.01841020638882451,-0.03613386431957422
2.4009999999998466,-0.027138381213098296,-0.03808639248732092
2.6009999999998246,-0.0774969712205787,-0.03783964485525349
2.8009999999998025,-0.12150688331526666,-0.04034277199508809
3.0009999999997805,-0.1716121072271992,-0.022437999650951942
3.2009999999997585,-0.23177920296877697,0.008215234798179495
3.4009999999997365,-0.29483623719460494,0.04731655907118593
3.6009999999997144,-0.3427721731004196,0.09500965288253191
3.8009999999996924,-0.36469492348465943,0.15372817409372908
4.000999999999671,-0.37381184276117224,0.20148309459983124
4.200999999999738,-0.37726689841233496,0.24076688103068042
4.400999999999804,-0.369722407693286,0.283911903750231
4.600999999999871,-0.3505370933545624,0.32924716292703227
4.800999999999938,-0.3268546843718905,0.36670585493654373
5.000000000000004,-0.2927722082392115,0.38739901845265456
5.200000000000071,-0.2449107607491685,0.38901594831807307
5.400000000000138,-0.19294072723889588,0.3796329414493651
5.600000000000205,-0.15307956173403858,0.3554692555638579
5.800000000000272,-0.1405507984242623,0.3128123728986926
6.000000000000338,-0.14888427381474648,0.2630037627875393
6.200000000000405,-0.16474480199231886,0.20929603367569863
6.400000000000472,-0.1935934692214103,0.16018552125947216
6.600000000000539,-0.2337522296112739,0.12005554370509348
6.800000000000606,-0.28951566204712414,0.09961692108608737
7.000000000000672,-0.3446298099127495,0.09220720263147356
7.200000000000739,-0.4140857599948608,0.09640089220880338
7.400000000000806,-0.48546141574304025,0.10716460689276354
7.600000000000873,-0.5643764560515719,0.1250290916810513
7.8000000000009395,-0.6455018722024468,0.15797925684345365
8.000000000001005,-0.7195228774679601,0.19836643746888152
8.200000000000895,-0.7710112555279709,0.24062788094771834
8.400000000000784,-0.784894891350934,0.2949825000592339
8.600000000000673,-0.7760744107328941,0.3559498424969573
8.800000000000562,-0.7515395657136081,0.41516200761916816
9.000000000000451,-0.7198888473104406,0.4686765215691411
9.20000000000034,-0.6820202679793522,0.5044120713711338
9.40000000000023,-0.6432427049901073,0.531784865841804
9.600000000000119,-0.602402013238985,0.5278629394806571
9.800000000000008,-0.5722270112315988,0.4894996695164421
10.000999999999896,-0.5700809203463204,0.437289334837288
10.200999999999786,-0.5953683221723238,0.38538168055412575
10.400999999999675,-0.622101557902871,0.3396525599340144
10.600999999999564,-0.6588420774095861,0.31381865901031986
10.800999999999453,-0.7021044597934687,0.31135073123136675
11.000999999999342,-0.7561285854699968,0.3240382291753509
11.200999999999231,-0.8113326477584696,0.33657170992738844
11.40099999999912,-0.8596592048627973,0.37003032799114344
11.60099999999901,-0.8839308467169799,0.419057307523031
11.800999999998899,-0.8858209359797375,0.47644437301814463
12.000999999998788,-0.8685224225610351,0.5356029609958614
12.200999999998677,-0.8411759603360282,0.5804638911064617
12.400999999998566,-0.798662913144209,0.5968305968622507
12.600999999998455,-0.7421415156075164,0.5976121247664176
12.800999999998345,-0.6849071721702453,0.5921162250712466
13.000999999998234,-0.6186606513379472,0.5772817093513181
13.200999999998123,-0.5655064993838637,0.5401771954439942
13.400999999998012,-0.5350592632508177,0.4851166412919911
13.600999999997901,-0.5207601477033089,0.43499204744504416
13.80099999999779,-0.5204858176407169,0.38161908256312044
14.00099999999768,-0.5405325384529985,0.32773342570044933
14.200999999997569,-0.5606559092520619,0.2851880136945231
14.400999999997458,-0.5914202027730535,0.25684832409644215
14.600999999997347,-0.6321567618900195,0.24573747256692835
14.800999999997236,-0.6875933657508957,0.24917822944307513
15.000999999997125,-0.7480175497876884,0.2788821614142723
15.200999999997014,-0.8022050271270952,0.3280707252219864
15.400999999996904,-0.8407690220414481,0.37434841073226127
15.600999999996793,-0.8548785726058711,0.43346185354514033
15.800999999996682,-0.845737943635127,0.5021305528844607
16.000999999996573,-0.8265719492305336,0.5701025823866803
16.200999999996817,-0.8079207819388947,0.6335564800721035
16.40099999999706,-0.7772892181939074,0.6989091109641792
16.600999999997306,-0.741286729279543,0.7696221849936448
16.80099999999755,-0.6979321014122001,0.8223560576655368
17.000999999997795,-0.6392923557777996,0.8475428595875317
17.20099999999804,-0.5785431945110849,0.8511305738135755
17.400999999998284,-0.520899020110966,0.8285791043013653
17.60099999999853,-0.47192705081458936,0.7984999899787544
17.800999999998773,-0.4483169245218568,0.751905029795043
18.000999999999017,-0.445422099409058,0.7009095225830095
18.20099999999926,-0.4582339389669525,0.6473247958632082
18.400999999999506,-0.48162415311468504,0.593987184304883
18.60099999999975,-0.5080750172663426,0.5561451502364368
18.799999999999994,-0.543725497409778,0.5419226941958646
19.000000000000238,-0.5828834125922855,0.5419172242091869
19.200000000000482,-0.6192460419927321,0.5575142653417039
19.400000000000727,-0.6427054536141669,0.588173874222129
19.60000000000097,-0.6558520423024009,0.6261388915637508
19.800000000001216,-0.6564519965938053,0.6744162617446787
20.00000000000146,-0.6507398201192566,0.7313900515088212
