Time (s),X (m),Y (m)
0.001,0.0005727611008870025,0.0009689812320744445
0.20000000000000015,-0.0009818769766558847,-0.004667692589300606
0.4000000000000003,0.0029560931181288755,-0.006435629945679032
0.6000000000000004,0.009884856725428902,-0.014454320640023876
0.8000000000000006,0.02250426467196298,-0.008618870228814773
1.0000000000000007,0.03667028718470147,-0.002446790771902236
1.2009999999999785,0.055273271896266046,-0.008400379775387525
1.4009999999999565,0.08665273158216136,-0.0034271220515648374
1.6009999999999345,0.1171125607562848,0.00210513092798549
1.8009999999999124,0.14523840456694653,0.00922241903193446
2.0009999999998906,0.1683177376147976,0.004497719375475854
2.2009999999998686,0.19304792441174926,0.0027404333555029812
2.4009999999998466,0.2221261246841066,0.008287178244888473
2.6009999999998246,0.2511258298929528,0.01732248577639961
2.8009999999998025,0.28371068460478577,0.013563994042192976
3.0009999999997805,0.31850506993975203,0.013250318299568836
3.2009999999997585,0.3482220113448539,0.005584461846705836
3.4009999999997365,0.36821479669590645,-0.00305632062947239
3.6009999999997144,0.395262047035022,0.0019868667620068802
3.8009999999996924,0.4239006695068509,0.0008822740615627741
4.000999999999671,0.4490856564098597,-0.02504074548608699
4.200999999999738,0.4758200406472854,-0.031193027579497993
4.400999999999804,0.5075613900623444,-0.025393377614397666
4.600999999999871,0.5379200844114116,-0.026390073627508344
4.800999999999938,0.5698871496751309,-0.026628852477882416
5.000000000000004,0.6081487411472755,-0.02821026063825887
5.200000000000071,0.6475993926835343,-0.02414558126493264
5.400000000000138,0.6812935867017352,-0.02548068284084752
5.600000000000205,0.7129862279493913,-0.017442848462111128
5.800000000000272,0.745317779452416,-0.006820388679497187
6.000000000000338,0.7805719652802979,-7.428753771050216e-05
6.200000000000405,0.8184346565780175,-4.922047379998007e-05
6.400000000000472,0.8531273884764122,0.0029030964232249156
6.600000000000539,0.8938363224450693,0.016672845848139068
6.800000000000606,0.9293323121451831,0.028702308798268458
7.000000000000672,0.9584491160058048,0.04512207588466097
7.200000000000739,0.9922672420208384,0.06917563486935983
7.400000000000806,1.0342706267015849,0.09239869178155374
7.600000000000873,1.0715031481212332,0.09863985048101918
7.8000000000009395,1.1094469464986867,0.11022582680085705
8.000000000001005,1.1457116218782093,0.12099081089929498
8.200000000000895,1.1813211333747975,0.12889352739459117
8.400000000000784,1.2186007645753327,0.14501382346254937
8.600000000000673,1.2583985259322454,0.16451313614614677
8.800000000000562,1.293687494678365,0.16489345839918837
9.000000000000451,1.326732123800005,0.17812674870547596
9.20000000000034,1.3580057678285076,0.1838087015251682
9.40000000000023,1.3850265428748065,0.17855809454978383
9.600000000000119,1.4151741650304301,0.1697788719424688
9.800000000000008,1.4495316913122311,0.1744642303096817
10.000999999999896,1.4813805443730792,0.18543710424927617
10.200999999999786,1.5124906887205947,0.20590958666090106
10.400999999999675,1.5425547740768946,0.21581999339193028
10.600999999999564,1.5772526718576978,0.22786615264321014
10.800999999999453,1.6129171953692356,0.22729586906690308
11.000999999999342,1.6436289794480234,0.24929161469937952
11.200999999999231,1.685238552714714,0.284719520699007
11.40099999999912,1.7227075602349977,0.3089833928192405
11.60099999999901,1.7627036324230951,0.31854196398124596
11.800999999998899,1.8015142062081724,0.33674669370232746
12.000999999998788,1.834413615837334,0.35764076111117293
12.200999999998677,1.872867013085574,0.3837274685503009
12.400999999998566,1.9174366590236591,0.406883255334431
12.600999999998455,1.9623062679069352,0.4253357553712103
12.800999999998345,2.0043967420135336,0.4481483807682373
13.000999999998234,2.0411192093828134,0.47381739551985164
13.200999999998123,2.0779506982402323,0.48725990019701354
13.400999999998012,2.112549933342087,0.5109217773660343
13.600999999997901,2.146827159297106,0.5280622483201026
13.80099999999779,2.183154359011933,0.5436713473777103
14.00099999999768,2.221212931680653,0.5584589575041274
14.200999999997569,2.2647586649090163,0.5803903218427269
14.400999999997458,2.3098991781017006,0.5975664495847247
14.600999999997347,2.353828025323837,0.6114611894867997
14.800999999997236,2.399736879405567,0.6283219880136451
15.000999999997125,2.4452698465171463,0.6433294401946706
15.200999999997014,2.486149967213439,0.6569312046544434
15.400999999996904,2.525672139604931,0.6669415824124547
15.600999999996793,2.565522622919654,0.6763310773484206
15.800999999996682,2.608151857795572,0.7031980621203798
16.000999999996573,2.6505170936719704,0.7192506081751098
16.200999999996817,2.6894327387517185,0.7341069431767203
16.40099999999706,2.7259106531799486,0.7519681565255593
16.600999999997306,2.763980403151632,0.7785863214706672
16.80099999999755,2.7969101098797986,0.8060688901064793
17.000999999997795,2.826676693131115,0.8254096457263587
17.20099999999804,2.8602992236672384,0.854860059726397
17.400999999998284,2.891753995553756,0.8930522670174654
17.60099999999853,2.92269992378599,0.9087882622273159
17.800999999998773,2.9548644104028083,0.9190537891713594
18.000999999999017,2.984419399773796,0.9277847387745961
18.20099999999926,3.0177649800140354,0.9439125433070357
18.400999999999506,3.0459051377839965,0.969591259094568
18.60099999999975,3.07444142124949,0.9935849512130539
18.799999999999994,3.102123207426637,1.0064555210695507
19.000000000000238,3.1320822546636773,1.0350224299289852
19.200000000000482,3.169649024750729,1.0574789897119399
19.400000000000727,3.206003031092822,1.073443717881389
19.60000000000097,3.2385102537191295,1.0881966125116258
19.800000000001216,3.2697919443685506,1.1185215305519935
20.00000000000146,3.301479657697145,1.1393519083008505
