Time (s),X (m),Y (m)
0.001,0.0008115346074009382,0.0008446836120385872
0.20000000000000015,-0.0002837738964148718,-0.003249220891015736
0.4000000000000003,0.006551531133246384,-0.00031231324022761047
0.6000000000000004,0.01105657916054115,-0.011777146027796807
0.8000000000000006,0.023577875825677292,-0.019349992685631732
1.0000000000000007,0.03715716154058593,-0.027467868305085064
1.2009999999999785,0.049854264716760945,-0.01831121840055249
1.4009999999999565,0.06568219694562279,-0.004016946685970152
1.6009999999999345,0.0781223225567533,-0.0032009654526697078
1.8009999999999124,0.09225821543654164,-0.0018965347167504958
2.0009999999998906,0.1103742083411278,-0.006359888171689077
2.2009999999998686,0.12900573359935275,-0.012191422705708117
2.4009999999998466,0.1457074786909264,-0.015253307556091375
2.6009999999998246,0.16845621212089776,-0.004591030209258899
2.8009999999998025,0.19224411060783902,0.004573572161880463
3.0009999999997805,0.20622433994771736,0.0029316903551195065
3.2009999999997585,0.22361831898309995,-0.004352324300474843
3.4009999999997365,0.24576870297688166,-0.013167309296378747
3.6009999999997144,0.2669769716389269,-0.01415508995275145
3.8009999999996924,0.2905246471664912,-0.012101183448444346
4.000999999999671,0.3167204277774635,0.0009985446637676585
4.200999999999738,0.33839512629852264,0.004481117362214278
4.400999999999804,0.35643037925295656,0.02021172520193717
4.600999999999871,0.37910867255729436,0.03980904121112564
4.800999999999938,0.4037563106672564,0.04824577354338828
5.000000000000004,0.4299783636179414,0.05937011728363308
5.200000000000071,0.4554736746461857,0.06869448131189144
5.400000000000138,0.4749131037315459,0.07584479131864999
5.600000000000205,0.503607667792537,0.0754090401258819
5.800000000000272,0.532462277789531,0.0703192700536508
6.000000000000338,0.560449949575261,0.07347767601001177
6.200000000000405,0.5842920775466078,0.08268527889487896
6.400000000000472,0.6080895944189477,0.09913377976126135
6.600000000000539,0.6321365065803157,0.12096564114899819
6.800000000000606,0.6564571770707225,0.14011444294522357
7.000000000000672,0.676712147978739,0.14946712911933496
7.200000000000739,0.6934730235860773,0.16662028444094437
7.400000000000806,0.7099539248616097,0.20000341666478183
7.600000000000873,0.7246879542229695,0.23902230065079266
7.8000000000009395,0.7403097050098065,0.26788783620087475
8.000000000001005,0.7601418526318077,0.27915353480455685
8.200000000000895,0.7795829646024197,0.2952046735871043
8.400000000000784,0.7919041136401554,0.3152853473899835
8.600000000000673,0.8048706585396392,0.32929646452946504
8.800000000000562,0.8225014598673982,0.3487487977205182
9.000000000000451,0.8384277821720978,0.36810492999512456
9.20000000000034,0.8517191052952712,0.3941330923286495
9.40000000000023,0.8680479323000181,0.4191199358985191
9.600000000000119,0.8855522714324338,0.4384457941663375
9.800000000000008,0.9003811244727872,0.455834469211495
10.000999999999896,0.9192946165711731,0.48071445196340806
10.200999999999786,0.9401852138142452,0.4987797604084462
10.400999999999675,0.9523064488566351,0.5201108154757303
10.600999999999564,0.9648208003066912,0.543574497348261
10.800999999999453,0.9821659871625109,0.5665426980778738
11.000999999999342,0.9966239216113215,0.5905819377840736
11.200999999999231,1.0053360251955652,0.6230463984227934
11.40099999999912,1.01388184368069,0.6490447265418878
11.60099999999901,1.0271879270127109,0.6741784263467475
11.800999999998899,1.0432390519624293,0.6962101053728399
12.000999999998788,1.058056760318953,0.7093034415815563
12.200999999998677,1.0725448288244874,0.7204605629732289
12.400999999998566,1.0895945138928615,0.7309023905143547
12.600999999998455,1.112334008991099,0.7513040765678812
12.800999999998345,1.1319639093214369,0.7761566772663336
13.000999999998234,1.1505308409022141,0.7951098859533013
13.200999999998123,1.162137074260363,0.8232275893792009
13.400999999998012,1.1712571055301537,0.8416121694884005
13.600999999997901,1.181057440032443,0.8684304378962948
13.80099999999779,1.1911635149853053,0.8915743645104395
14.00099999999768,1.20333500377709,0.9087320623789896
14.200999999997569,1.2138440834549382,0.935396878132457
14.400999999997458,1.2232290908596317,0.9647081019436926
14.600999999997347,1.2392285940555718,0.9977733294677856
14.800999999997236,1.2523798428693598,1.0354094813300032
15.000999999997125,1.2598434824975953,1.0611361996738775
15.200999999997014,1.26864654069883,1.0820257915117284
15.400999999996904,1.2819434694448835,1.1027928238098947
15.600999999996793,1.2870011714275365,1.1309804180016236
15.800999999996682,1.2977777451864587,1.1689263782057129
16.000999999996573,1.306180000128307,1.2072327070628923
16.200999999996817,1.3107456996525462,1.2441049894873342
16.40099999999706,1.3162091784905732,1.2792511190785556
16.600999999997306,1.3254380126688803,1.294851910147644
16.80099999999755,1.3427855238701942,1.319433520637433
17.000999999997795,1.3632137674919642,1.345184517044954
17.20099999999804,1.3844132817162897,1.3682550769343234
17.400999999998284,1.4071255106521896,1.3983989280386662
17.60099999999853,1.4371018503259556,1.4185349212898721
17.800999999998773,1.4565612277108724,1.4356981194767764
18.000999999999017,1.4702460233204924,1.4645258855533299
18.20099999999926,1.4846917312427519,1.4912124596291414
18.400999999999506,1.4919634117636833,1.5219357703380878
18.60099999999975,1.495642105231357,1.5568902736223342
18.799999999999994,1.502106508279623,1.5956415944574918
19.000000000000238,1.507590313775787,1.6334820099554765
19.200000000000482,1.5143611672710775,1.6543238918341303
19.400000000000727,1.5203129850332138,1.6654355519781143
19.60000000000097,1.5321032241057138,1.696480520670768
19.800000000001216,1.5421798273041323,1.7364001647608764
20.00000000000146,1.5540190094452764,1.7709624939630333
