Time (s),X (m),Y (m)
0.001,-4.680521708071185e-05,-0.0009960320817112695
0.20000000000000015,0.005458065496585302,0.005471171284725084
0.4000000000000003,0.015449776595065587,0.008692347752322804
0.6000000000000004,0.02842295252765862,0.0016420133368599268
0.8000000000000006,0.06256001593116,0.0027416092312388778
1.0000000000000007,0.11215438875697148,0.01307600679550777
1.2009999999999785,0.15791685450986312,0.02353609294565997
1.4009999999999565,0.20315603676669275,0.02273709156448403
1.6009999999999345,0.23148769364851615,0.014856768590423284
1.8009999999999124,0.2542862573776069,-0.006651712373177347
2.0009999999998906,0.2908808146516671,-0.03633733179777345
2.2009999999998686,0.3170702801551802,-0.07462733551861009
2.4009999999998466,0.32778345883930177,-0.12345537951126846
2.6009999999998246,0.34760639771395785,-0.1710055123084049
2.8009999999998025,0.3728394541519416,-0.22685520910208787
3.0009999999997805,0.3923378913999733,-0.2761986757756668
3.2009999999997585,0.40516539194820456,-0.3180459966684275
3.4009999999997365,0.40965909374885556,-0.36206988050679495
3.6009999999997144,0.41281626503135704,-0.39984065006926456
3.8009999999996924,0.41854186420167006,-0.44406832735923285
4.000999999999671,0.4317576647419862,-0.4964415396264587
4.200999999999738,0.4328895815951106,-0.5440810225555407
4.400999999999804,0.42708847808550937,-0.5897526993037476
4.600999999999871,0.4119090716394488,-0.6289812123642937
4.800999999999938,0.40062660366717623,-0.6698908606638466
5.000000000000004,0.38310283637728804,-0.7080804096047075
5.200000000000071,0.35663377224071735,-0.7423385624164526
5.400000000000138,0.3272770725657035,-0.7661946118047679
5.600000000000205,0.29025330709411573,-0.7909638715691717
5.800000000000272,0.2419825558573972,-0.8086069889644854
6.000000000000338,0.19015947808169079,-0.8130688064680699
6.200000000000405,0.15236304231641137,-0.8049652311681059
6.400000000000472,0.11455060386356833,-0.7888276090856463
6.600000000000539,0.07684370386304887,-0.7702466470521397
6.800000000000606,0.03757526368374615,-0.7488291844148425
7.000000000000672,-0.00521778366491766,-0.7257680296416282
7.200000000000739,-0.03666646684751335,-0.697431100413443
7.400000000000806,-0.06643700915847292,-0.6662042965461561
7.600000000000873,-0.08786437808503028,-0.6298180731171652
7.8000000000009395,-0.09997135298591724,-0.5894539988109755
8.000000000001005,-0.11582340964896858,-0.5438243058720182
8.200000000000895,-0.13615703712393698,-0.49660729520003666
8.400000000000784,-0.16481034954015286,-0.44964658517380907
8.600000000000673,-0.18206717032242256,-0.3957989233855888
8.800000000000562,-0.1939208723061987,-0.33921823004489615
9.000000000000451,-0.19964648225866063,-0.2865521865261575
9.20000000000034,-0.21143238933169053,-0.22741863320573086
9.40000000000023,-0.22273854245597563,-0.16144391554917
9.600000000000119,-0.22624748687820348,-0.09793628263708765
9.800000000000008,-0.21833093595060382,-0.049440875169526916
10.000999999999896,-0.1959398094219868,-0.0072420496028447814
10.200999999999786,-0.164412538564185,0.027107492349395922
10.400999999999675,-0.12102246788672713,0.049748924194377465
10.600999999999564,-0.07209789190059927,0.07153196198756881
10.800999999999453,-0.022653592877030074,0.08651561300626279
11.000999999999342,0.030376357849995036,0.09282542370309303
11.200999999999231,0.07725193993087098,0.10924297123130214
11.40099999999912,0.12658682139174754,0.137469493865707
11.60099999999901,0.17580255656240076,0.18426847715853642
11.800999999998899,0.22330448945542777,0.2389564130254124
12.000999999998788,0.2786735073536078,0.29230771632915226
12.200999999998677,0.33352354501511944,0.3439750627658749
12.400999999998566,0.38466043634823677,0.3785859147252195
12.600999999998455,0.44108971662667745,0.4124406408375164
12.800999999998345,0.4971533839090347,0.44262815791453636
13.000999999998234,0.5509765269026458,0.49528547105361287
13.200999999998123,0.6094673767935437,0.5456129724026966
13.400999999998012,0.6779014456899357,0.5849438477435596
13.600999999997901,0.7451378806363443,0.6155501462814298
13.80099999999779,0.822032943351733,0.6384304095107012
14.00099999999768,0.9028039013059777,0.6561595942338563
14.200999999997569,0.9760557401342089,0.6657975801299986
14.400999999997458,1.0413473586293296,0.6617263680453066
14.600999999997347,1.1007677791033181,0.6440254127773161
14.800999999997236,1.1503606380206062,0.6083781922614727
15.000999999997125,1.1794825881159408,0.5678403496089673
15.200999999997014,1.1988150535524253,0.5124691778765755
15.400999999996904,1.227142773728843,0.4534509880311121
15.600999999996793,1.2448292302977522,0.3932529628050135
15.800999999996682,1.251315520088933,0.3303270091246793
16.000999999996573,1.259547295384324,0.2642133273050376
16.200999999996817,1.268464332883306,0.2013129782005683
16.40099999999706,1.2847405986215963,0.13395324630784858
16.600999999997306,1.306717499315529,0.06785666607710625
16.80099999999755,1.3218868642252166,0.0028550338625421136
17.000999999997795,1.3293956598637147,-0.062018370511426044
17.20099999999804,1.327162207951486,-0.12670021581590404
17.400999999998284,1.3330142132853953,-0.19107272786602902
17.60099999999853,1.349758329855344,-0.2584201726788379
17.800999999998773,1.3577428510338185,-0.31756848076083877
18.000999999999017,1.353093424852493,-0.3667401372580247
18.20099999999926,1.3360255859716175,-0.4059109647203482
18.400999999999506,1.3112584767914963,-0.45890408630312257
18.60099999999975,1.27378102536922,-0.5134384646818424
18.799999999999994,1.2415664862129827,-0.5536992136715595
19.000000000000238,1.2014384066212516,-0.5892379674737027
19.200000000000482,1.153129587662294,-0.6136667528140337
19.400000000000727,1.0959124500039907,-0.6373920025613384
19.60000000000097,1.0371118065317362,-0.6558137498820777
19.800000000001216,0.9670538079259564,-0.7042898707406859
20.00000000000146,0.8992922393517357,-0.7456440785852968
