Time (s),X (m),Y (m)
0.001,-0.000795421750936344,0.00017906049427360518
0.20000000000000015,0.004683839211896789,-0.0006905703188258694
0.4000000000000003,-0.00015134105985054126,-0.0038292457313609824
0.6000000000000004,0.004954492546470862,-0.007429653240980077
0.8000000000000006,0.025439540426605938,-0.01740118592396765
1.0000000000000007,0.03793094742723145,-0.017923955372641187
1.2009999999999785,0.05748393010614797,-0.022450398860558576
1.4009999999999565,0.07610166478630931,-0.03101339437503045
1.6009999999999345,0.09001386165713988,-0.03984108209928845
1.8009999999999124,0.10704014090910602,-0.03978214731723254
2.0009999999998906,0.1330736995152216,-0.046138796374818325
2.2009999999998686,0.17090725108536714,-0.06284331286100155
2.4009999999998466,0.2014581321469917,-0.07040760278421522
2.6009999999998246,0.22726247489781862,-0.08528770520065598
2.8009999999998025,0.24914170322927698,-0.10867079708759551
3.0009999999997805,0.2608624563314173,-0.13676195108066855
3.2009999999997585,0.2660630524310657,-0.15644755550451442
3.4009999999997365,0.2596250400420951,-0.181922889434975
3.6009999999997144,0.2493387428240092,-0.21876325169590843
3.8009999999996924,0.23834329681156272,-0.26681979046767024
4.000999999999671,0.23045907998655674,-0.3118639582889108
4.200999999999738,0.22903163568975854,-0.34950511952102026
4.400999999999804,0.22869226134638396,-0.3851995870383481
4.600999999999871,0.21976226135137936,-0.4283484511158969
4.800999999999938,0.2070514942185019,-0.474681464236828
5.000000000000004,0.1926257801283845,-0.5232764829808252
5.200000000000071,0.1766523488958127,-0.566166910323509
5.400000000000138,0.15657702075441662,-0.5981330943214815
5.600000000000205,0.12535169461330378,-0.6244128831791607
5.800000000000272,0.08265935789881056,-0.6452587593321242
6.000000000000338,0.042036284943410114,-0.6552123278293148
6.200000000000405,0.0034954402316441507,-0.6544948690625503
6.400000000000472,-0.040363427591531505,-0.6427021787273753
6.600000000000539,-0.08730762880578215,-0.6165575663058274
6.800000000000606,-0.12934062404510763,-0.5903326463009748
7.000000000000672,-0.1659917767889755,-0.572136886891396
7.200000000000739,-0.2057493921871695,-0.5439395770437618
7.400000000000806,-0.252592970650605,-0.5131661243489032
7.600000000000873,-0.29829200318811183,-0.486608518022741
7.8000000000009395,-0.3426650322415946,-0.4661913805768113
8.000000000001005,-0.39133485902793524,-0.43821717530449206
8.200000000000895,-0.4407971854545919,-0.41124225004921156
8.400000000000784,-0.49571405520321193,-0.3748013835948782
8.600000000000673,-0.5377327086644278,-0.3410913885339036
8.800000000000562,-0.581093549693755,-0.3101363340663228
9.000000000000451,-0.6218750125400349,-0.2844359983590426
9.20000000000034,-0.6652370298973783,-0.24881332540509007
9.40000000000023,-0.7183920841899427,-0.2046944929426322
9.600000000000119,-0.7651690566198943,-0.1611562954579512
9.800000000000008,-0.812390529757805,-0.11309355458418928
10.000999999999896,-0.8474787283623716,-0.06573596225476262
10.200999999999786,-0.8579270966710028,-0.019125134873936286
10.400999999999675,-0.8519282098265085,0.027042686211763835
10.600999999999564,-0.841265019552574,0.07126450055466671
10.800999999999453,-0.814435541397268,0.11249291949962105
11.000999999999342,-0.7809172752531716,0.15198828729914504
11.200999999999231,-0.7338679946879934,0.19779103610042634
11.40099999999912,-0.7101337797077243,0.24140202192808832
11.60099999999901,-0.6723193425704347,0.26356747096641336
11.800999999998899,-0.6384869679682437,0.2701234393838589
12.000999999998788,-0.5954329923420854,0.2637771396434119
12.200999999998677,-0.5354051031269804,0.2517553580500251
12.400999999998566,-0.48490008988767364,0.2317877180917225
12.600999999998455,-0.4302214936288074,0.20488125567627966
12.800999999998345,-0.37247985175039516,0.17425456254672064
13.000999999998234,-0.313068058219189,0.14052366004661188
13.200999999998123,-0.2539324046762505,0.10214983214182544
13.400999999998012,-0.20195115167377028,0.051268714796513654
13.600999999997901,-0.1574024896155845,-0.004771264304531768
13.80099999999779,-0.1336093370855444,-0.05310300769654624
14.00099999999768,-0.12990483285499138,-0.08978226935293883
14.200999999997569,-0.14098132276702163,-0.13198913310660362
14.400999999997458,-0.15380673584408128,-0.1767689594393152
14.600999999997347,-0.16590469699349225,-0.22091717262388694
14.800999999997236,-0.18974802840926905,-0.2787432582584401
15.000999999997125,-0.2147734994791248,-0.33779053654501895
15.200999999997014,-0.24493859424403813,-0.4036620377658691
15.400999999996904,-0.266327903871316,-0.46923533587868943
15.600999999996793,-0.2879107512099464,-0.5310025150524813
15.800999999996682,-0.3048207462775764,-0.5854866053747747
16.000999999996573,-0.3226187534881021,-0.6389681339962295
16.200999999996817,-0.34983608695848467,-0.6962964438516127
16.40099999999706,-0.3874508133043707,-0.7571480886977345
16.600999999997306,-0.42405822673026516,-0.8119501982109065
16.80099999999755,-0.47094938343432213,-0.8684037607373356
17.000999999997795,-0.5038061438737267,-0.9255273142100393
17.20099999999804,-0.5447318903613108,-0.9870880718278086
17.400999999998284,-0.5926611690843365,-1.0318782448545776
17.60099999999853,-0.6415160955314876,-1.0550047338956312
17.800999999998773,-0.7036941732667626,-1.0444279822787246
18.000999999999017,-0.7687168623094668,-1.0237350667431278
18.20099999999926,-0.8250061775309084,-1.0001009110585968
18.400999999999506,-0.8831009071222705,-0.978212011103673
18.60099999999975,-0.9461103247825232,-0.9466191724531964
18.799999999999994,-0.9980338679210637,-0.9239881278176587
19.000000000000238,-1.0511467241415327,-0.896619830665168
19.200000000000482,-1.0984087741408943,-0.8736713584794689
19.400000000000727,-1.1289875499452775,-0.8429050238767014
19.60000000000097,-1.1392288798714745,-0.8039077711639978
19.800000000001216,-1.1330945787642916,-0.7594636497362923
20.00000000000146,-1.1079853462022557,-0.705284772581017
