Time (s),X (m),Y (m)
0.001,0.0011130987088041246,0.0005155841445599734
0.20000000000000015,-0.00037329133103159546,-0.0002629345922579612
0.4000000000000003,0.01596732919663886,0.004742428173775766
0.6000000000000004,0.027565508645223353,0.006061038664654328
0.8000000000000006,0.03696918515210186,0.007370561836915283
1.0000000000000007,0.04404718012184237,0.010449733068905773
1.2009999999999785,0.052448742178553935,0.015612337668822281
1.4009999999999565,0.06966051122365353,0.023938298366587868
1.6009999999999345,0.10247145544077778,0.032111424997633496
1.8009999999999124,0.12375584912162639,0.03454413342607471
2.0009999999998906,0.14984279244875126,0.037351486672127905
2.2009999999998686,0.17233934978472834,0.03859431051597639
2.4009999999998466,0.19208882883029357,0.039070759989711025
2.6009999999998246,0.21210075826705962,0.02938838714263116
2.8009999999998025,0.2328681918385801,0.00964691079540477
3.0009999999997805,0.25317379377048777,-0.019782260711587233
3.2009999999997585,0.28298759857434863,-0.05166263831842993
3.4009999999997365,0.31534830606321074,-0.0832161804975808
3.6009999999997144,0.3496355053397697,-0.11945606509104546
3.8009999999996924,0.37794454852772985,-0.15350171408362043
4.000999999999671,0.40257351655206197,-0.18721584630723495
4.200999999999738,0.42779624879578704,-0.2207588237981644
4.400999999999804,0.4548134425696805,-0.25545484489882353
4.600999999999871,0.4799033005134486,-0.2917270567733907
4.800999999999938,0.5017247242279815,-0.3277449108606437
5.000000000000004,0.5274275621860894,-0.359495146196038
5.200000000000071,0.5528808655952452,-0.3879471441638285
5.400000000000138,0.5811477678642748,-0.42193243030931715
5.600000000000205,0.6123061471320561,-0.462917304754522
5.800000000000272,0.6364233059216525,-0.5038611120940791
6.000000000000338,0.6616333328710142,-0.5348546965288664
6.200000000000405,0.6925650604917921,-0.5586778895404171
6.400000000000472,0.7308054243208244,-0.587091892590855
6.600000000000539,0.7633219467165313,-0.6234439497631331
6.800000000000606,0.7914163675099002,-0.6645705585362995
7.000000000000672,0.8036358927298269,-0.6953179955842533
7.200000000000739,0.8259024338170322,-0.7416377824259
7.400000000000806,0.8563882433251113,-0.7870687157389423
7.600000000000873,0.8840170818107245,-0.8304729041091448
7.8000000000009395,0.9141038187677859,-0.8682490010207796
8.000000000001005,0.9519853632618025,-0.8953144635778395
8.200000000000895,0.9831433002905043,-0.9221229888480653
8.400000000000784,1.0190215930228423,-0.9506690281655316
8.600000000000673,1.0535203421366677,-0.9761270356192937
8.800000000000562,1.0962090147229535,-1.0004114463051967
9.000000000000451,1.1472324644550076,-1.0294929882288633
9.20000000000034,1.188580554288208,-1.0617133056487644
9.40000000000023,1.226693829777324,-1.100775596146932
9.600000000000119,1.2657801699890345,-1.143181979842716
9.800000000000008,1.2887349186341999,-1.1803868059444902
10.000999999999896,1.317899630690747,-1.2195179881135247
10.200999999999786,1.3434062456244635,-1.2573207910166142
10.400999999999675,1.3653511280687443,-1.2900045833048273
10.600999999999564,1.3917000712493026,-1.3185721860565764
10.800999999999453,1.4230866624024303,-1.3516801922594035
11.000999999999342,1.4490827918185276,-1.3852445675182075
11.200999999999231,1.4772456400087604,-1.4204289703759148
11.40099999999912,1.5117795813790638,-1.4569488630903704
11.60099999999901,1.5604787766212675,-1.4938016602210793
11.800999999998899,1.5994277410816624,-1.5282050363739277
12.000999999998788,1.633240790345191,-1.5606777943176922
12.200999999998677,1.6704782378555896,-1.6001328624688524
12.400999999998566,1.7136047261489167,-1.6456623064882419
12.600999999998455,1.7591524258844988,-1.6979349537313053
12.800999999998345,1.7992269284293188,-1.7474759812918113
13.000999999998234,1.8396809179194809,-1.7873707181076273
13.200999999998123,1.8865808412488332,-1.8258758485413784
13.400999999998012,1.9405302458230511,-1.8515628521973755
13.600999999997901,1.9835094142170124,-1.8571846867317459
13.80099999999779,2.0193392594476394,-1.856378262082964
14.00099999999768,2.0615767984333915,-1.8623948796650218
14.200999999997569,2.1095669692354377,-1.8800416891043563
14.400999999997458,2.1666137620776826,-1.9005601378267236
14.600999999997347,2.2149711959267924,-1.916334115019129
14.800999999997236,2.2642189845407428,-1.9377073863190608
15.000999999997125,2.3117041220109704,-1.9729784055754422
15.200999999997014,2.3567525599328527,-2.016298802732715
15.400999999996904,2.403980170572445,-2.0573253955584385
15.600999999996793,2.4576758033167785,-2.1018797080619382
15.800999999996682,2.5020242264799926,-2.1457275042186357
16.000999999996573,2.545418714950612,-2.1887385101040806
16.200999999996817,2.5870568634912834,-2.2282030757273636
16.40099999999706,2.6296040296867345,-2.267718043236493
16.600999999997306,2.6775858927793306,-2.311480374101816
16.80099999999755,2.7202180190181577,-2.3483133732822776
17.000999999997795,2.774756836179556,-2.378045867195089
17.20099999999804,2.828037697348414,-2.4009240882149085
17.400999999998284,2.876592265960976,-2.421608067061293
17.60099999999853,2.9213384615585363,-2.44442274686502
17.800999999998773,2.962180324964804,-2.46761134113644
18.000999999999017,3.014015276012147,-2.499187021749984
18.20099999999926,3.0586027774727484,-2.534773909808082
18.400999999999506,3.0949352747945245,-2.5609847664232275
18.60099999999975,3.1204564544589064,-2.5807436785366664
18.799999999999994,3.1559788962529116,-2.594716532696186
19.000000000000238,3.2015556201493864,-2.612761821670322
19.200000000000482,3.246873226268066,-2.634949431927184
19.400000000000727,3.273887409379444,-2.659785382394248
19.60000000000097,3.298633113751543,-2.6920088777355353
19.800000000001216,3.343292735583466,-2.73095748369138
20.00000000000146,3.3811151332311806,-2.771511583705677
