Time (s),X (m),Y (m)
0.001,0.0010100015126501532,0.0006628221997479689
0.20000000000000015,-0.0012718580917364464,-0.0040793445977253436
0.4000000000000003,0.0026490048913756364,-0.012370159531906616
0.6000000000000004,0.009744537883940783,-0.020775299699761305
0.8000000000000006,0.031017630042644947,-0.02546867818578078
1.0000000000000007,0.06287259959480587,-0.024509216202402852
1.2009999999999785,0.09043445425902435,-0.030414331393829434
1.4009999999999565,0.12590704908650444,-0.041932483608917895
1.6009999999999345,0.1547365881459811,-0.05819741980251599
1.8009999999999124,0.17685960394574182,-0.0783973443743387
2.0009999999998906,0.19844779347476327,-0.10072715200452846
2.2009999999998686,0.22989191413982907,-0.13241343924028418
2.4009999999998466,0.26942516308594944,-0.17395582898986214
2.6009999999998246,0.3071086288257825,-0.21974100736526012
2.8009999999998025,0.35136936267637214,-0.27575027626890586
3.0009999999997805,0.40253610407232115,-0.3435558791658225
3.2009999999997585,0.4516932552547499,-0.41380102289224935
3.4009999999997365,0.49641113232417233,-0.4890308784059538
3.6009999999997144,0.5239153787794252,-0.546272635705825
3.8009999999996924,0.5200955923162771,-0.5979836296209297
4.000999999999671,0.49874483415724535,-0.6372563173391789
4.200999999999738,0.4692919007285822,-0.6602845667085556
4.400999999999804,0.4334283103880803,-0.6972408663492181
4.600999999999871,0.39141781961778055,-0.7299002871597545
4.800999999999938,0.3461205856432854,-0.7630760356805852
5.000000000000004,0.2916684394467558,-0.8099367306078255
5.200000000000071,0.22058858482938237,-0.8677443553995162
5.400000000000138,0.14420545520099665,-0.9214614382027885
5.600000000000205,0.07259213586942351,-0.958062406821428
5.800000000000272,0.008186196145724274,-0.974504975039312
6.000000000000338,-0.06570146428013718,-0.980478306279899
6.200000000000405,-0.12648131858230033,-0.9642264904627097
6.400000000000472,-0.18260913162536807,-0.9277680693513541
6.600000000000539,-0.23654735698870571,-0.8818464315388402
6.800000000000606,-0.2961476508806874,-0.8285297330697179
7.000000000000672,-0.36302414054766763,-0.7712877299527415
7.200000000000739,-0.42874856251354165,-0.7135333201896848
7.400000000000806,-0.49491191260960044,-0.646565281927539
7.600000000000873,-0.5496614647481807,-0.5787073758127943
7.8000000000009395,-0.6045571458670528,-0.5046359458935835
8.000000000001005,-0.6578438932349098,-0.43736165492732765
8.200000000000895,-0.6924140743527607,-0.3724595672128055
8.400000000000784,-0.6939683369230576,-0.3113234857884611
8.600000000000673,-0.6694744651544159,-0.2560002609267254
8.800000000000562,-0.626501147104707,-0.20734320090866437
9.000000000000451,-0.5898064716312863,-0.1649563382242126
9.20000000000034,-0.5348646003731315,-0.1280586067981972
9.40000000000023,-0.4638777509076031,-0.09884556072769055
9.600000000000119,-0.3773369837102808,-0.061107097167509436
9.800000000000008,-0.290580744780897,-0.032596667834509326
10.000999999999896,-0.20768196212256917,-0.016115960657914388
10.200999999999786,-0.13199352931601513,-0.009957935584682928
10.400999999999675,-0.04880655002586982,-0.01806912055575017
10.600999999999564,0.03993967043526392,-0.02736210337651979
10.800999999999453,0.12523390262087414,-0.036224557008344156
11.000999999999342,0.20737018583484865,-0.04059692879230935
11.200999999999231,0.28566400785664553,-0.05506885915007216
11.40099999999912,0.35652012397170185,-0.09001389413007352
11.60099999999901,0.4335286914631696,-0.14966361742404116
11.800999999998899,0.5131453495867045,-0.22108490896208427
12.000999999998788,0.5795509260466296,-0.28987094769685406
12.200999999998677,0.647305314001976,-0.36404745834510277
12.400999999998566,0.7161893533848419,-0.4408260516816995
12.600999999998455,0.7795866174770381,-0.5239920972021621
12.800999999998345,0.8239972319432658,-0.5933807181892433
13.000999999998234,0.8584799771023378,-0.676393305575276
13.200999999998123,0.8725916580373899,-0.7491231695723167
13.400999999998012,0.8527443050151792,-0.8138069368419926
13.600999999997901,0.8076114536522023,-0.8779953921418977
13.80099999999779,0.754476558517151,-0.9334659650641111
14.00099999999768,0.6843570113836289,-0.9653780035230125
14.200999999997569,0.6151976446593977,-0.9621407995405646
14.400999999997458,0.5509262224694166,-0.9313781891362162
14.600999999997347,0.4772484640152332,-0.8859290940859659
14.800999999997236,0.3954577557139862,-0.84904315753884
15.000999999997125,0.3302726570455885,-0.8112489576934391
15.200999999997014,0.27985701397044127,-0.7666737782949633
15.400999999996904,0.22235934816158123,-0.7220093314615996
15.600999999996793,0.1482576405843058,-0.6933452805916844
15.800999999996682,0.07508782673658981,-0.6676219767331155
16.000999999996573,0.011642829297243744,-0.6283266051475404
16.200999999996817,-0.04923511427350297,-0.5765502407467359
16.40099999999706,-0.1139218362306371,-0.5131814320732481
16.600999999997306,-0.18127409378542897,-0.441742181928993
16.80099999999755,-0.24843106115804103,-0.3639190362933074
17.000999999997795,-0.30573317564782354,-0.2888332762340862
17.20099999999804,-0.35351040282038076,-0.2077622779891466
17.400999999998284,-0.387215786359132,-0.11622858528122396
17.60099999999853,-0.4136107050036895,-0.01195236060096795
17.800999999998773,-0.42416689089000026,0.07246253483840322
18.000999999999017,-0.4085935068802445,0.16009064623313357
18.20099999999926,-0.39139969889070264,0.24986236654365274
18.400999999999506,-0.3710839247539516,0.33572528909061444
18.60099999999975,-0.32622317845245113,0.4075174434495166
18.799999999999994,-0.2612844943382991,0.4744866654025776
19.000000000000238,-0.19687403100088294,0.5264955156790156
19.200000000000482,-0.1358668064912276,0.550684782179113
19.400000000000727,-0.06977243378388863,0.5383612631214455
19.60000000000097,-0.0008602306202225472,0.5002269660449818
19.800000000001216,0.06480469118778488,0.44885555616421347
20.00000000000146,0.12546641891860122,0.38545631289325666
