Time (s),X (m),Y (m)
0.001,4.1020280575708355e-05,-0.0010155025257856578
0.20000000000000015,0.0036295006877217835,0.005633403805020132
0.4000000000000003,0.015178498906252526,0.008864953651789775
0.6000000000000004,0.039323833100502394,-0.0042631418851170515
0.8000000000000006,0.07500279532720006,-0.03378718881959823
1.0000000000000007,0.11010059857656143,-0.07616827128919629
1.2009999999999785,0.14011065142346651,-0.12636211230184774
1.4009999999999565,0.15457124435363517,-0.17136543850018546
1.6009999999999345,0.1515812146784556,-0.20897076504213763
1.8009999999999124,0.12631444255684984,-0.25015119739999875
2.0009999999998906,0.09018676057292468,-0.28319987920036027
2.2009999999998686,0.06524110978570982,-0.3004262978417544
2.4009999999998466,0.04535835642004864,-0.2864979212467227
2.6009999999998246,0.03517875216897263,-0.2552918787301934
2.8009999999998025,0.04144855863966806,-0.21661450140661948
3.0009999999997805,0.06354791263686564,-0.17932797294281164
3.2009999999997585,0.08918368314307364,-0.16584110981727607
3.4009999999997365,0.1279831915678041,-0.15866102459840722
3.6009999999997144,0.18044341303411146,-0.16912492586676414
3.8009999999996924,0.22015858614815673,-0.19618834945867408
4.000999999999671,0.24590407373431886,-0.2367888115313182
4.200999999999738,0.24812209385933895,-0.27120958515688026
4.400999999999804,0.22750177204182465,-0.30336160844704685
4.600999999999871,0.19286836872049376,-0.31644972639403907
4.800999999999938,0.14461957410761453,-0.32976522121344337
5.000000000000004,0.08977925490788376,-0.3495627056587008
5.200000000000071,0.03294569397984155,-0.37461026585258816
5.400000000000138,-0.02396969635051045,-0.3908406404425691
5.600000000000205,-0.08545428994039886,-0.3883727125365664
5.800000000000272,-0.15221368969679547,-0.3697411076813449
6.000000000000338,-0.21007179373047757,-0.3360037378417853
6.200000000000405,-0.2538455801707066,-0.28808757421532855
6.400000000000472,-0.2846082133996371,-0.23071401080732945
6.600000000000539,-0.30896133389306835,-0.1587342552772471
6.800000000000606,-0.32502965043644066,-0.05777492354787211
7.000000000000672,-0.3403872688403094,0.050502141812107194
7.200000000000739,-0.346861401260282,0.1729572367707097
7.400000000000806,-0.3398817959745283,0.27769490690109755
7.600000000000873,-0.3101263093148666,0.3578763203505814
7.8000000000009395,-0.2560569789810169,0.4325345989760258
8.000000000001005,-0.19650180972333434,0.4869405662069994
8.200000000000895,-0.15726755376751364,0.5081634597307214
8.400000000000784,-0.11978862223294284,0.4926237975588017
8.600000000000673,-0.09087136845061272,0.4527328871633359
8.800000000000562,-0.06760256051051894,0.3955873619272132
9.000000000000451,-0.03444468141794287,0.33437119646809443
9.20000000000034,0.0013721567927760777,0.2725218824712658
9.40000000000023,0.03664781468827809,0.19754106187454584
9.600000000000119,0.06670517361449649,0.11699702345614711
9.800000000000008,0.081953890315131,0.0341120246419449
10.000999999999896,0.08072621327790765,-0.04735830483728249
10.200999999999786,0.08883801881673671,-0.13805403619226683
10.400999999999675,0.10190551324181717,-0.24101153748233295
10.600999999999564,0.10550406060347069,-0.33796590715530184
10.800999999999453,0.09429384989979438,-0.41516899573576754
11.000999999999342,0.039202490568673656,-0.47282424340113455
11.200999999999231,-0.02030785143706479,-0.5090613272147536
11.40099999999912,-0.07624343019162004,-0.5206916132616664
11.60099999999901,-0.13368646769679277,-0.5173784536346057
11.800999999998899,-0.17617332845886585,-0.4933563244478263
12.000999999998788,-0.20472842296991742,-0.45410338832499136
12.200999999998677,-0.21276383966876916,-0.4186811010342858
12.400999999998566,-0.19739789132171756,-0.398099901985581
12.600999999998455,-0.16518319333949047,-0.38190090971394847
12.800999999998345,-0.12822768436444315,-0.38056108240038317
13.000999999998234,-0.08478646477965604,-0.39598757488008013
13.200999999998123,-0.05416882317501647,-0.4296279363264369
13.400999999998012,-0.03553747816102375,-0.4813135475236084
13.600999999997901,-0.03862785988669772,-0.5300357161800112
13.80099999999779,-0.06886949413414409,-0.590561313901458
14.00099999999768,-0.11997132995607225,-0.6344151112482638
14.200999999997569,-0.18452695192918664,-0.6734695585264199
14.400999999997458,-0.2555469800818882,-0.6997911069240318
14.600999999997347,-0.3322842268696947,-0.7080732508270312
14.800999999997236,-0.3900613322030915,-0.6909685120704676
15.000999999997125,-0.41917587163150527,-0.6532172063260433
15.200999999997014,-0.4492421837708802,-0.6097909561096434
15.400999999996904,-0.4876388770026763,-0.5642451277157619
15.600999999996793,-0.539120826992208,-0.5043777681041147
15.800999999996682,-0.5775832344527416,-0.43842083747912763
16.000999999996573,-0.5897193036971218,-0.37306784318485176
16.200999999996817,-0.5612397410015738,-0.32309605182949036
16.40099999999706,-0.5051033400220728,-0.2947419724647609
16.600999999997306,-0.45896532843323173,-0.29172821415518824
16.80099999999755,-0.41618254565011215,-0.309614738823644
17.000999999997795,-0.3926384755821029,-0.3446849273523991
17.20099999999804,-0.3706493956218664,-0.3932161624717451
17.400999999998284,-0.3615887178150038,-0.43976342443126826
17.60099999999853,-0.36744141429281174,-0.47443213347222934
17.800999999998773,-0.40384756596384125,-0.5032422910516356
18.000999999999017,-0.4523115100328169,-0.5249154429445524
18.20099999999926,-0.5230223853706658,-0.5545808965574642
18.400999999999506,-0.596332478373632,-0.5800455530424335
18.60099999999975,-0.6604074541701708,-0.5930824214739076
18.799999999999994,-0.7048558440473783,-0.5941213979952169
19.000000000000238,-0.736035525681819,-0.568604339750283
19.200000000000482,-0.7599123940925899,-0.5213205600754959
19.400000000000727,-0.7715326930408437,-0.46869754822445836
19.60000000000097,-0.768949979075293,-0.43036602985942624
19.800000000001216,-0.7438437097477478,-0.39313826122967344
20.00000000000146,-0.7019636184280081,-0.3553883007230292
