Time (s),X (m),Y (m)
0.001,0.0010100015126501532,0.0006628221997479689
0.20000000000000015,-0.00043458465651742366,-0.0040335956433380496
0.4000000000000003,0.009646915023907524,-0.0037452499072660765
0.6000000000000004,0.034990699153198086,-0.0017497244898066133
0.8000000000000006,0.06714464706226919,-0.001111340374815959
1.0000000000000007,0.10870029018674505,-0.008653170562767919
1.2009999999999785,0.13258628638374378,-0.01902562746291478
1.4009999999999565,0.15670293038642963,-0.038734386821941726
1.6009999999999345,0.18447116622316626,-0.062112177348878674
1.8009999999999124,0.21050156270516354,-0.08709750770071874
2.0009999999998906,0.24084720851868668,-0.1169611096105724
2.2009999999998686,0.26870742946082116,-0.15073187280239117
2.4009999999998466,0.3015704326294136,-0.1906287747785414
2.6009999999998246,0.33815979259935025,-0.23005269768950856
2.8009999999998025,0.38456504252731677,-0.2747022619672267
3.0009999999997805,0.42767229082354347,-0.3233885974562075
3.2009999999997585,0.47173764537100954,-0.3754484031082869
3.4009999999997365,0.531863322314531,-0.42702736786252604
3.6009999999997144,0.5952207282415071,-0.48177809829837587
3.8009999999996924,0.6598859602934931,-0.5426576296820123
4.000999999999671,0.7217764855005827,-0.6057441562467869
4.200999999999738,0.7876320005766515,-0.6691855857962936
4.400999999999804,0.855628836119866,-0.7350354213829077
4.600999999999871,0.9217287393576226,-0.8016226361341411
4.800999999999938,0.984776900226593,-0.8666487548109884
5.000000000000004,1.045290588093435,-0.9298389164081095
5.200000000000071,1.1151778082603203,-0.9978180907912696
5.400000000000138,1.178899352577527,-1.0716272104630389
5.600000000000205,1.26019625458679,-1.1571379296064612
5.800000000000272,1.350097007754681,-1.2496063435901354
6.000000000000338,1.4366925301978395,-1.3492262832405904
6.200000000000405,1.5049679213284288,-1.4411802018138558
6.400000000000472,1.5743616449847302,-1.5296458199618237
6.600000000000539,1.6499245900914261,-1.613641247898782
6.800000000000606,1.7110539704320722,-1.686557509935369
7.000000000000672,1.7707053692800152,-1.7585611619523536
7.200000000000739,1.8383220626049135,-1.8350888371759075
7.400000000000806,1.9007875553846756,-1.9106859836091041
7.600000000000873,1.9573427017129643,-1.9877003646370839
7.8000000000009395,2.003999570580412,-2.0536463548845942
8.000000000001005,2.009270455091968,-2.1075741697760315
8.200000000000895,1.978857081285757,-2.1549747730452364
8.400000000000784,1.9278554466218436,-2.195780673985521
8.600000000000673,1.8683022345962939,-2.2283348175555044
8.800000000000562,1.8137317792981194,-2.231118104004119
9.000000000000451,1.7631027821415486,-2.19668961674313
9.20000000000034,1.7164281224154885,-2.1420106685901428
9.40000000000023,1.678118384552523,-2.084843678332294
9.600000000000119,1.65289989732971,-2.029305152420509
9.800000000000008,1.645854341560751,-1.970925783211162
10.000999999999896,1.656333549776041,-1.9148162072664776
10.200999999999786,1.6860540679132408,-1.8508136191447826
10.400999999999675,1.721431096733853,-1.7697122429918928
10.600999999999564,1.7600157028328531,-1.6994171619303051
10.800999999999453,1.8076198831147774,-1.6495860592496847
11.000999999999342,1.8699616216618256,-1.5996860046648667
11.200999999999231,1.9340375247217627,-1.5555807666782815
11.40099999999912,1.9930375335901924,-1.5184347454298424
11.60099999999901,2.061421506392706,-1.4851300714859805
11.800999999998899,2.1275602217689706,-1.4656751414539102
12.000999999998788,2.18743908403795,-1.465586850879212
12.200999999998677,2.240848843626257,-1.4882406929356493
12.400999999998566,2.2915854020600985,-1.5294438737679672
12.600999999998455,2.3520233354566873,-1.5833998199956807
12.800999999998345,2.4121297520578424,-1.6440379284207094
13.000999999998234,2.4684228231268524,-1.7110608474122435
13.200999999998123,2.5323935028171856,-1.7815388143481266
13.400999999998012,2.5871940802698687,-1.8491928312054582
13.600999999997901,2.6394633304806576,-1.916871349774476
13.80099999999779,2.702280761949235,-1.9867613501995145
14.00099999999768,2.7625171874994456,-2.0594094116546318
14.200999999997569,2.8194858517801764,-2.1349252642763092
14.400999999997458,2.8787254392005135,-2.2126199883909616
14.600999999997347,2.944604529580461,-2.2893068931213216
14.800999999997236,3.023221902321494,-2.3709390408329365
15.000999999997125,3.1104142756362787,-2.4639278242445304
15.200999999997014,3.1943734254939598,-2.555830923367361
15.400999999996904,3.2570235397589817,-2.6426899250837534
15.600999999996793,3.32014140780496,-2.731604404558294
15.800999999996682,3.3847626669232804,-2.821697914335249
16.000999999996573,3.4461469695430957,-2.9063351526536065
16.200999999996817,3.505667145771636,-2.989836548413576
16.40099999999706,3.5572599193803924,-3.0733523018458264
16.600999999997306,3.613910658698285,-3.153929532272347
16.80099999999755,3.6837588036889413,-3.23057249981484
17.000999999997795,3.758604971904487,-3.294796414591509
17.20099999999804,3.82282617097897,-3.360913265015518
17.400999999998284,3.8853404941346557,-3.436981966850106
17.60099999999853,3.9454478472620282,-3.513898043043551
17.800999999998773,4.004500210908546,-3.590210079293095
18.000999999999017,4.069917241156994,-3.6730783724185976
18.20099999999926,4.133278493330516,-3.7609135444928863
18.400999999999506,4.191546135721696,-3.8473251858605484
18.60099999999975,4.2121772075228225,-3.9157508385308892
18.799999999999994,4.197507012373446,-3.971225891557041
19.000000000000238,4.15389621947967,-4.018086534488194
19.200000000000482,4.096144320039046,-4.057208971692233
19.400000000000727,4.051158124713846,-4.071556101135382
19.60000000000097,4.004433346645619,-4.050471672001277
19.800000000001216,3.9576560575655395,-4.003597899900577
20.00000000000146,3.9052714266723534,-3.9440151321059074
