Time (s),X (m),Y (m)
0.001,-0.00013259955118837574,0.0009689812320744445
0.20000000000000015,0.0040369468349958715,-0.0038647772738750396
0.4000000000000003,0.015162692985066105,-0.010401451174475907
0.6000000000000004,0.04396864620373702,-0.014973810638918663
0.8000000000000006,0.08579297915139968,-0.03204478621365382
1.0000000000000007,0.11008376103135695,-0.06832583781100367
1.2009999999999785,0.12118863874639739,-0.11282623137601375
1.4009999999999565,0.10264049998737171,-0.1639327675758644
1.6009999999999345,0.08312838819116385,-0.22725698557551166
1.8009999999999124,0.05220123867436722,-0.2843143095429475
2.0009999999998906,0.0026145899109865133,-0.32180210786043
2.2009999999998686,-0.0568322394144403,-0.3365787369938756
2.4009999999998466,-0.11758109542392509,-0.312686623082622
2.6009999999998246,-0.17876884276583457,-0.2764660137270105
2.8009999999998025,-0.23666692677050338,-0.21537661140417003
3.0009999999997805,-0.3013558746385583,-0.15279082107217237
3.2009999999997585,-0.36797950638450516,-0.0974697240468631
3.4009999999997365,-0.4298126478714859,-0.028682833955140073
3.6009999999997144,-0.49556045497414475,0.05276246137533741
3.8009999999996924,-0.5634410954926274,0.14080634324084867
4.000999999999671,-0.6357881498151016,0.22370245616177642
4.200999999999738,-0.7147089831089208,0.2767921334908884
4.400999999999804,-0.7930837710292811,0.3232423251519368
4.600999999999871,-0.8641984018611406,0.372591545150441
4.800999999999938,-0.9107932701837863,0.43142454714625744
5.000000000000004,-0.9056532203573456,0.49819756922218594
5.200000000000071,-0.8699638537950365,0.5733557802232502
5.400000000000138,-0.8276803137946762,0.6519081696766176
5.600000000000205,-0.7807043760170145,0.7280382542082443
5.800000000000272,-0.7247568886069683,0.8023199005423339
6.000000000000338,-0.6604230914317095,0.8490484126817619
6.200000000000405,-0.5895312040265298,0.8782209095958533
6.400000000000472,-0.5106820342108465,0.8747398797701568
6.600000000000539,-0.43204418359102476,0.8494100057560573
6.800000000000606,-0.3711726070501798,0.8120632842377628
7.000000000000672,-0.34673108075876363,0.7615477135290923
7.200000000000739,-0.35360782342994385,0.7028183163438432
7.400000000000806,-0.38500703773412087,0.6422611575716863
7.600000000000873,-0.4347016477071911,0.5820338392663018
7.8000000000009395,-0.5140582556753368,0.5375035079896221
8.000000000001005,-0.6018821294586177,0.48605526827328366
8.200000000000895,-0.6938020973132591,0.4306266409905894
8.400000000000784,-0.774763153944338,0.3754739501449735
8.600000000000673,-0.860695977117508,0.33406280309692943
8.800000000000562,-0.9492391819881955,0.3202584764782531
9.000000000000451,-1.0428010884087737,0.34398032366784204
9.20000000000034,-1.1416011902158432,0.37284163113640045
9.40000000000023,-1.2411859848306035,0.40268693066438893
9.600000000000119,-1.3343068204151944,0.4501616680235552
9.800000000000008,-1.4054374318184972,0.513176295233455
10.000999999999896,-1.4200870343158976,0.584826342013858
10.200999999999786,-1.3923843237756703,0.654026528650296
10.400999999999675,-1.3400585609248385,0.7073221509926185
10.600999999999564,-1.2737615575874919,0.7450895924619055
10.800999999999453,-1.2001913043587302,0.7666862598892195
11.000999999999342,-1.1215894493961542,0.7728695951782324
11.200999999999231,-1.040365811791295,0.7670880584269735
11.40099999999912,-0.9723663219018267,0.7355363066905154
11.60099999999901,-0.9433493614990721,0.6859314061797184
11.800999999998899,-0.9601729140740642,0.6334038815225681
12.000999999998788,-1.0009962165547777,0.574871775101169
12.200999999998677,-1.0620244705019966,0.5178746836228894
12.400999999998566,-1.1320108259389259,0.4765329647230303
12.600999999998455,-1.2040260842631205,0.4456956934047011
12.800999999998345,-1.2808540661185732,0.4544965232594357
13.000999999998234,-1.3625603064322729,0.4970753343849668
13.200999999998123,-1.439673213382163,0.5652959254642593
13.400999999998012,-1.5113786498768425,0.6475439713838899
13.600999999997901,-1.574500241519286,0.7256317278964832
13.80099999999779,-1.595196474238534,0.7991716239971531
14.00099999999768,-1.5854380978249965,0.8631178828437787
14.200999999997569,-1.5586618894814046,0.9224684234934157
14.400999999997458,-1.5178763188925881,0.915827721852746
14.600999999997347,-1.4645001926098484,0.8768529446020852
14.800999999997236,-1.4084549874263959,0.8321777316507182
15.000999999997125,-1.3648768006977412,0.771216550746263
15.200999999997014,-1.3232534087145285,0.6970389834672993
15.400999999996904,-1.2998882047499933,0.6152882062256424
15.600999999996793,-1.3098646178156306,0.534254389473026
15.800999999996682,-1.341555862298601,0.45013121848262305
16.000999999996573,-1.3819169235897548,0.3667148009799694
16.200999999996817,-1.4474577499426171,0.30867004349806476
16.40099999999706,-1.5178850909024857,0.27228130708113596
16.600999999997306,-1.5884082048105288,0.25877727241537063
16.80099999999755,-1.657165271910537,0.287071982360436
17.000999999997795,-1.730137291439033,0.3343522208771261
17.20099999999804,-1.7928709495068418,0.38818109263387557
17.400999999998284,-1.800790763156207,0.4521762278166035
17.60099999999853,-1.7818734885095742,0.5252626285427267
17.800999999998773,-1.7507156401067017,0.6094654770282393
18.000999999999017,-1.7051666541809531,0.6922092317412275
18.20099999999926,-1.6352122507150917,0.7563894976977751
18.400999999999506,-1.5490506863944573,0.8027627273428323
18.60099999999975,-1.4650213785777888,0.8521575062968111
18.799999999999994,-1.3772114813610299,0.8724618846946977
19.000000000000238,-1.2923211098962388,0.8612642531839428
19.200000000000482,-1.215062774490635,0.8224577370181049
19.400000000000727,-1.1437818571294787,0.7732276298501751
19.60000000000097,-1.0778380325368844,0.7106247496748987
19.800000000001216,-1.038683629368499,0.6362733702274203
20.00000000000146,-1.030182921701115,0.5519158100527478
