Time (s),X (m),Y (m)
0.001,0.0011890620069237587,-0.00035268032603768894
0.20000000000000015,0.0030618156744270835,-0.0002535308020332652
0.4000000000000003,0.01265740599953017,-0.0035035046484082864
0.6000000000000004,0.016045216314732828,-0.0025787759558147457
0.8000000000000006,0.022827996797845883,-0.0007618735851728818
1.0000000000000007,0.026761807705743646,0.003549408383720582
1.2009999999999785,0.031641131737637496,0.0075174877629181095
1.4009999999999565,0.03674040986848081,0.002414238641522056
1.6009999999999345,0.04449097080315907,-0.003723192923926529
1.8009999999999124,0.04803245932251057,-0.003989379447361787
2.0009999999998906,0.0519088387473716,-0.0020755069754621225
2.2009999999998686,0.06120295670394309,-0.004791676952536093
2.4009999999998466,0.07672641592103772,-0.006576383636572719
2.6009999999998246,0.09450049104041403,-0.012061277025959062
2.8009999999998025,0.11194224677168102,-0.012316270127320166
3.0009999999997805,0.12329831613279377,-0.0183357696471976
3.2009999999997585,0.14206285397434226,-0.023514895009345692
3.4009999999997365,0.158173319302669,-0.03094156588136356
3.6009999999997144,0.17430933930641151,-0.04175027286215936
3.8009999999996924,0.1915289107303186,-0.05371985344053414
4.000999999999671,0.2098594916147163,-0.06897113247017495
4.200999999999738,0.22670799000906708,-0.07773314429692897
4.400999999999804,0.23908585399202772,-0.08032363119433947
4.600999999999871,0.25067187577033995,-0.08587197835555792
4.800999999999938,0.26975877229232087,-0.09453306961080396
5.000000000000004,0.2828436269989592,-0.10097504818064948
5.200000000000071,0.2973166493414956,-0.10780080075279273
5.400000000000138,0.31353352490612896,-0.11281979098940417
5.600000000000205,0.32894280338670806,-0.12046478535425872
5.800000000000272,0.33647571112935637,-0.12349129991397333
6.000000000000338,0.35311316126160114,-0.1298432193818854
6.200000000000405,0.3665557669880136,-0.13522273151664438
6.400000000000472,0.38563818595945193,-0.14242358692800264
6.600000000000539,0.3980955839315636,-0.1468862191192293
6.800000000000606,0.40792577981231193,-0.1500320977807466
7.000000000000672,0.4256386930430915,-0.1577608457912765
7.200000000000739,0.44354971521301645,-0.1668132793464871
7.400000000000806,0.45846678794018475,-0.17086052716842606
7.600000000000873,0.47456157844477764,-0.17272632095631751
7.8000000000009395,0.49406587468998714,-0.18041470462715442
8.000000000001005,0.5117737446411875,-0.19060922405850214
8.200000000000895,0.5292199619246246,-0.20218409979443605
8.400000000000784,0.5468296739461483,-0.21252955653518954
8.600000000000673,0.5640462543337822,-0.2187980573062755
8.800000000000562,0.5781224993855906,-0.2214859145760195
9.000000000000451,0.5964684304012591,-0.23823472686530076
9.20000000000034,0.6144810768626088,-0.25193761601299197
9.40000000000023,0.6352869902078514,-0.2612560031715779
9.600000000000119,0.6513590113432917,-0.27111622603703944
9.800000000000008,0.66583701862167,-0.2883800481835196
10.000999999999896,0.6881343677808489,-0.3015748915350931
10.200999999999786,0.7070774047410014,-0.3100302099878552
10.400999999999675,0.7196759044802973,-0.318194867719854
10.600999999999564,0.736240870037749,-0.3261084552740359
10.800999999999453,0.7492659124148918,-0.33415171705400226
11.000999999999342,0.7641585554074004,-0.33930896677083544
11.200999999999231,0.7841294724299392,-0.34671576130945014
11.40099999999912,0.8036556093319888,-0.3536467903289959
11.60099999999901,0.8250247881300322,-0.3725883160655564
11.800999999998899,0.8435433059838437,-0.38457838057068666
12.000999999998788,0.855716916017497,-0.39812583819135433
12.200999999998677,0.8643282548814388,-0.41258553038515994
12.400999999998566,0.8692149571960197,-0.4246157509645869
12.600999999998455,0.875528320367143,-0.4446855435020973
12.800999999998345,0.8824343222258734,-0.4606974362546004
13.000999999998234,0.8846162891225268,-0.48040901199369124
13.200999999998123,0.8849749538379273,-0.49719624061109213
13.400999999998012,0.8849215936570947,-0.5149368098744452
13.600999999997901,0.8820353595916358,-0.5362645324136757
13.80099999999779,0.8831070031060497,-0.5511613588337043
14.00099999999768,0.8797858155457933,-0.5712285305423139
14.200999999997569,0.8713833314873665,-0.5912171146923592
14.400999999997458,0.8707164705241492,-0.6067213358198733
14.600999999997347,0.8696621068165943,-0.6197207346347309
14.800999999997236,0.8723074270746166,-0.6410105252141194
15.000999999997125,0.8710751530910436,-0.6574338989774101
15.200999999997014,0.870268969657932,-0.6768407680592481
15.400999999996904,0.86691405263361,-0.7000653876601788
15.600999999996793,0.8666221162817551,-0.7179255873423445
15.800999999996682,0.865517698095103,-0.7397772082949056
16.000999999996573,0.8605084994593788,-0.7586016036482085
16.200999999996817,0.8584827604612427,-0.7748407459893809
16.40099999999706,0.8568044202184323,-0.7909990756655094
16.600999999997306,0.8563548296640048,-0.8051062669264445
16.80099999999755,0.8508488060253592,-0.8265686149409163
17.000999999997795,0.8471478083445301,-0.8481759345989318
17.20099999999804,0.8401751940738805,-0.8684265064670224
17.400999999998284,0.8309802488951112,-0.8911086852933465
17.60099999999853,0.8257375555115974,-0.9080561563219318
17.800999999998773,0.8231211043033466,-0.9229941081009051
18.000999999999017,0.8181911266107675,-0.9427279130523974
18.20099999999926,0.8119589632672266,-0.965860308387984
18.400999999999506,0.8050744035911275,-0.9826777612958789
18.60099999999975,0.796020550744701,-1.0041383319218933
18.799999999999994,0.7916562570871015,-1.0151977243171433
19.000000000000238,0.7839947673670103,-1.031596216481466
19.200000000000482,0.7789170289240127,-1.0510651238505828
19.400000000000727,0.7694396637478675,-1.0730900786371274
19.60000000000097,0.7639620489205088,-1.0889452902026717
19.800000000001216,0.7609755491026609,-1.1051497425028005
20.00000000000146,0.7515015334868917,-1.124653820716355
