Time (s),X (m),Y (m)
0.001,0.000949226864630559,-0.0007291460897812452
0.20000000000000015,0.000382831316284043,0.0023480742820635907
0.4000000000000003,0.0022981188924295322,0.004169834636105512
0.6000000000000004,0.008014146560239374,0.01258673444924766
0.8000000000000006,0.015040298512007791,0.018227942357796973
1.0000000000000007,0.021918198691408722,0.01355659462374746
1.2009999999999785,0.03595223212174325,0.012135118510149232
1.4009999999999565,0.05003722230130313,0.007131265536208997
1.6009999999999345,0.06930172631007255,0.0008208156222203162
1.8009999999999124,0.08009885028371984,-0.00369811013459589
2.0009999999998906,0.10215382522750234,-0.005554969828588823
2.2009999999998686,0.12129689051213728,0.0038081658248480944
2.4009999999998466,0.1430405665959961,0.006773628208260266
2.6009999999998246,0.16331452175090327,0.008151853686727379
2.8009999999998025,0.17375640876762105,0.012517490105793274
3.0009999999997805,0.18020303069436064,0.017913418359294248
3.2009999999997585,0.1935152689174496,0.01810820184864371
3.4009999999997365,0.21497407949855057,0.017139519194954673
3.6009999999997144,0.23170528327663675,0.019384984561037256
3.8009999999996924,0.251544204327484,0.023353826630899546
4.000999999999671,0.2743198911840845,0.03055117221109729
4.200999999999738,0.295446761878017,0.031056024149833543
4.400999999999804,0.32735992094691313,0.02320921454642341
4.600999999999871,0.3491016557160872,0.02479762826523044
4.800999999999938,0.36575984003533774,0.028132076639284572
5.000000000000004,0.38092521107116384,0.03364209222424374
5.200000000000071,0.4050015913696806,0.04170165539356153
5.400000000000138,0.4176135659992683,0.05106220265436918
5.600000000000205,0.42898437826871433,0.05898079017422364
5.800000000000272,0.4499953914472817,0.053704926867897275
6.000000000000338,0.4682754379857183,0.057470842639174145
6.200000000000405,0.48709753332008526,0.06809333327101594
6.400000000000472,0.5087009434912102,0.0658384192807501
6.600000000000539,0.5321111996160247,0.0693397091035124
6.800000000000606,0.5527096669273475,0.07418477604737507
7.000000000000672,0.5751058465017096,0.0728176906509613
7.200000000000739,0.6003943087287839,0.07393654220256833
7.400000000000806,0.6193755401307012,0.06946179211272015
7.600000000000873,0.6317584237272102,0.05705901366143706
7.8000000000009395,0.6432523958774067,0.05109507360091659
8.000000000001005,0.6586840407236118,0.05325689037459555
8.200000000000895,0.6743556016945533,0.04565547866720954
8.400000000000784,0.691755787060087,0.03203904973792218
8.600000000000673,0.7049463842217619,0.02414493986688163
8.800000000000562,0.7149327422634127,0.012512028391864376
9.000000000000451,0.7270451956134955,-0.006909708218035961
9.20000000000034,0.7439703373457492,-0.023259412219132383
9.40000000000023,0.755946809951407,-0.04512040412169107
9.600000000000119,0.7686644710035545,-0.05530786647160693
9.800000000000008,0.7813023138581365,-0.06521433995201292
10.000999999999896,0.7850810034211401,-0.08996180318161644
10.200999999999786,0.7890608530809056,-0.10692374656577867
10.400999999999675,0.7944772975884971,-0.1260847451824744
10.600999999999564,0.8023792293021405,-0.13591183139558893
10.800999999999453,0.8113154192692923,-0.14645340887141958
11.000999999999342,0.8184702209909349,-0.15976277279954307
11.200999999999231,0.8212406406431992,-0.1820444543758267
11.40099999999912,0.8197908876716122,-0.2068026462761087
11.60099999999901,0.8203462590591195,-0.22622090530586525
11.800999999998899,0.8190303055656779,-0.24971008249147356
12.000999999998788,0.8216329823910449,-0.27624107172819184
12.200999999998677,0.8212651927099204,-0.3068493211956131
12.400999999998566,0.8216545375953269,-0.3295831172614785
12.600999999998455,0.8192878221900041,-0.34832609565462636
12.800999999998345,0.8240485966431361,-0.37055095319748954
13.000999999998234,0.8223709171221046,-0.3928128338643699
13.200999999998123,0.8187423510946884,-0.42289598439822385
13.400999999998012,0.8089038981713115,-0.4520606095715912
13.600999999997901,0.8047433319282736,-0.4733717202752581
13.80099999999779,0.7992147786825265,-0.4997326998949706
14.00099999999768,0.7968328022812656,-0.5235296627195304
14.200999999997569,0.7928205186544164,-0.5465653278206685
14.400999999997458,0.7863216994699617,-0.5696891000558276
14.600999999997347,0.7762405306367166,-0.5912178678324648
14.800999999997236,0.7623820894892954,-0.6127765757822253
15.000999999997125,0.7544545417856934,-0.6369623715439883
15.200999999997014,0.7541379953721286,-0.6508682741237436
15.400999999996904,0.7419517768487788,-0.6656972680058881
15.600999999996793,0.7225166196625377,-0.6794923103523635
15.800999999996682,0.7050400699411199,-0.6936905104001093
16.000999999996573,0.6874047613858991,-0.708768351527147
16.200999999996817,0.6727079734367614,-0.7192050875721295
16.40099999999706,0.6522247259790511,-0.7313538121625816
16.600999999997306,0.6355478501626323,-0.7409608615675625
16.80099999999755,0.6118027647152102,-0.7464646195599024
17.000999999997795,0.5913893000789544,-0.7532261988674859
17.20099999999804,0.5723502240967414,-0.7572539009554236
17.400999999998284,0.5498569067167318,-0.7597688446948744
17.60099999999853,0.5339515469249466,-0.7621928927642103
17.800999999998773,0.5136085194242124,-0.7677729985144314
18.000999999999017,0.4897160565358437,-0.7647048766320843
18.20099999999926,0.4610642689681539,-0.7633253165169073
18.400999999999506,0.4289629573448494,-0.7545431727060204
18.60099999999975,0.4023357500194429,-0.7467876666991992
18.799999999999994,0.3713955708266174,-0.7450185335093187
19.000000000000238,0.33660314804775754,-0.7358400971520958
19.200000000000482,0.3131753933014517,-0.7262989071059074
19.400000000000727,0.2876183640156528,-0.719982295102958
19.60000000000097,0.2660996101290096,-0.7180493612379608
19.800000000001216,0.2453430269657376,-0.7153562688937094
20.00000000000146,0.22422870715780585,-0.7125554013072519
