Time (s),X (m),Y (m)
0.001,-0.0003713730577023104,0.0008446836120385872
0.20000000000000015,0.0005087758785792276,0.0014725663442460193
0.4000000000000003,-0.003865784112961881,0.00788851795675448
0.6000000000000004,-0.0033567182463530667,0.008152237048568555
0.8000000000000006,-0.0017674728549580286,0.007499426397261655
1.0000000000000007,9.499984881490195e-06,0.006389224486229848
1.2009999999999785,0.0021063102984731625,0.005617061364287771
1.4009999999999565,0.0049677388228815,0.005014410977040192
1.6009999999999345,0.007347286039360202,0.0033217197743140112
1.8009999999999124,0.008888835370838788,0.0017259071843396675
2.0009999999998906,0.009513221746233787,0.0008334372150130933
2.2009999999998686,0.010215118101361095,0.00010131450602820591
2.4009999999998466,0.01085789613001062,-0.0006693620226857724
2.6009999999998246,0.011493426878654272,-0.0012678263688656616
2.8009999999998025,0.012116323500699576,-0.0019073697566173629
3.0009999999997805,0.012920949887149966,-0.002848364018512127
3.2009999999997585,0.013686370291653137,-0.003643556191656021
3.4009999999997365,0.014449605347533465,-0.004454393723990238
3.6009999999997144,0.015250192308114646,-0.005341724276898194
3.8009999999996924,0.016067743845205186,-0.006251693680555532
4.000999999999671,0.016967361872489477,-0.007283610204621974
4.200999999999738,0.01790802165878655,-0.00834985283982212
4.400999999999804,0.0188438496216415,-0.009445702616422823
4.600999999999871,0.019775340867667014,-0.01051276214479333
4.800999999999938,0.020699601265511975,-0.011479076662477664
5.000000000000004,0.021704771866214875,-0.012651665053466534
5.200000000000071,0.02276743463642175,-0.01384402797261341
5.400000000000138,0.023811498492764278,-0.014997437284796527
5.600000000000205,0.02486490602298151,-0.0161472431309121
5.800000000000272,0.02589068092537712,-0.017231142589176712
6.000000000000338,0.02694413948462507,-0.01833544752672717
6.200000000000405,0.027994199737716458,-0.01941910942769706
6.400000000000472,0.029021812016157035,-0.020467247927776332
6.600000000000539,0.030079369757587193,-0.021521784049957516
6.800000000000606,0.031206073829183605,-0.022621692628849256
7.000000000000672,0.03229610733598936,-0.02367804330132141
7.200000000000739,0.03336076244448379,-0.02469565048023453
7.400000000000806,0.03443703603936953,-0.025703329261732414
7.600000000000873,0.03549442530778939,-0.02666960273188185
7.8000000000009395,0.03657439418219138,-0.027650032877190048
8.000000000001005,0.037684134125029786,-0.02864877045258818
8.200000000000895,0.0387775341929541,-0.02959747349115959
8.400000000000784,0.03997198434840755,-0.030636457480572914
8.600000000000673,0.04106674908784466,-0.031579127878178445
8.800000000000562,0.04222678309306754,-0.032533728894137026
9.000000000000451,0.04336675369445797,-0.0334701302234508
9.20000000000034,0.04447726658911337,-0.034365198489346944
9.40000000000023,0.04564564601857461,-0.03531368107273116
9.600000000000119,0.04678538787715595,-0.036199402967005495
9.800000000000008,0.04793400638544172,-0.037081605386910146
10.000999999999896,0.04915820643478295,-0.03800318203391628
10.200999999999786,0.050322500314010594,-0.03885294486285374
10.400999999999675,0.05148528077798925,-0.03970015726039017
10.600999999999564,0.052658624765232274,-0.04054914755868816
10.800999999999453,0.053848785846967194,-0.04138938885788767
11.000999999999342,0.05504866581704641,-0.04222108443990044
11.200999999999231,0.05627857692420387,-0.043068460422678034
11.40099999999912,0.057501411957790904,-0.04388496636208797
11.60099999999901,0.05872535466965372,-0.04469942815399668
11.800999999998899,0.05996110673068348,-0.04549576827601626
12.000999999998788,0.06119935120517093,-0.046281323378975364
12.200999999998677,0.06245901747909923,-0.047047270129849064
12.400999999998566,0.06371108631903602,-0.047813594912270885
12.600999999998455,0.06498697578794031,-0.04857002293177543
12.800999999998345,0.0661195070600714,-0.04922070850118589
13.000999999998234,0.06761127847417459,-0.049722865919860186
13.200999999998123,0.06959702535940741,-0.05005945464933483
13.400999999998012,0.07151771318995055,-0.05031806608487522
13.600999999997901,0.07405112277310123,-0.050658595713423064
13.80099999999779,0.07556250559819316,-0.050625496462372827
14.00099999999768,0.07824008118317256,-0.05089433781930131
14.200999999997569,0.08005378100340849,-0.050929878253619
14.400999999997458,0.08185083011124254,-0.05087686399559729
14.600999999997347,0.08391030648143262,-0.050841162941795595
14.800999999997236,0.0863212575345928,-0.051050059194378584
15.000999999997125,0.08833317199774683,-0.050789171516746216
15.200999999997014,0.089706575230153,-0.050804636376160145
15.400999999996904,0.09115424368717118,-0.0510163952197731
15.600999999996793,0.093029785201419,-0.050735902639489856
15.800999999996682,0.09543783227481797,-0.050947222344055625
16.000999999996573,0.09662141822867361,-0.05094078362331724
16.200999999996817,0.09799377312122212,-0.05133269749415927
16.40099999999706,0.09932149666821131,-0.051719778459002115
16.600999999997306,0.10060258451260325,-0.052088783073795844
16.80099999999755,0.10184686030636407,-0.05242331964029349
17.000999999997795,0.10321772924363255,-0.05277475256275446
17.20099999999804,0.10450982073721704,-0.053113053580901196
17.400999999998284,0.105961469654107,-0.05344773356851179
17.60099999999853,0.10719499769822453,-0.05371086864712691
17.800999999998773,0.10855148888843492,-0.054011049021311076
18.000999999999017,0.10993633151596247,-0.054291721034186065
18.20099999999926,0.11125200792891338,-0.054536861266771305
18.400999999999506,0.11262120520853583,-0.05479841275642055
18.60099999999975,0.11400267115543404,-0.05506467517064604
18.799999999999994,0.11530341382809488,-0.055291288284079525
19.000000000000238,0.11667906455070391,-0.0555005395508642
19.200000000000482,0.11806746569729383,-0.0557060809514648
19.400000000000727,0.11945856724662465,-0.05591268835014136
19.60000000000097,0.12089173655781575,-0.05611564920695673
19.800000000001216,0.12214651132064581,-0.05628638767867744
20.00000000000146,0.12353874804537589,-0.056450736265929106
