Time (s),X (m),Y (m)
0.001,0.0009492268646305597,0.0007291460897812449
0.20000000000000015,-0.0012885911087228967,-0.0028709899930973353
0.4000000000000003,-0.0004863565419689274,-0.0025243623744734566
0.6000000000000004,0.006072325338161492,-2.170274620862764e-05
0.8000000000000006,0.010077022324533173,0.00032595727662411395
1.0000000000000007,0.01812623228988885,0.0013439756902388004
1.2009999999999785,0.033741341546153616,0.007627271562791449
1.4009999999999565,0.04779303535571646,0.015080334425713007
1.6009999999999345,0.06006552656945796,0.02496558700921754
1.8009999999999124,0.07416958598818638,0.024451908536548154
2.0009999999998906,0.08980440426272737,0.018310156569179694
2.2009999999998686,0.10745297113787806,0.01966944264458266
2.4009999999998466,0.12606961331345665,0.025762104891618762
2.6009999999998246,0.13744769857465566,0.027083537772426163
2.8009999999998025,0.15290601668463769,0.0409955964092727
3.0009999999997805,0.1761260292502804,0.05029219795918553
3.2009999999997585,0.19755043504473116,0.04128883765560861
3.4009999999997365,0.22072236525463712,0.036630297114267296
3.6009999999997144,0.24248275006722447,0.036573635787144655
3.8009999999996924,0.26404591820208817,0.03961264045424009
4.000999999999671,0.282102532336644,0.051931553496350986
4.200999999999738,0.30126342069628287,0.07222324414013949
4.400999999999804,0.3235559743598738,0.09668247809046901
4.600999999999871,0.34113200788067044,0.12004828843114
4.800999999999938,0.35919413370311865,0.13830007271917277
5.000000000000004,0.37750752671545473,0.14815139231658875
5.200000000000071,0.3963504838956875,0.16249753025053892
5.400000000000138,0.4152781570101368,0.173730403529498
5.600000000000205,0.4318877087541235,0.1911936472331585
5.800000000000272,0.44337594709356914,0.21599985571419977
6.000000000000338,0.457240606489093,0.22055425520187183
6.200000000000405,0.4759235038790615,0.22878736715882278
6.400000000000472,0.4932657449117999,0.24635309397512714
6.600000000000539,0.513595830639344,0.2650671025853122
6.800000000000606,0.5318409810620999,0.2798452661339133
7.000000000000672,0.5479167309201686,0.295315601763712
7.200000000000739,0.5757448867231538,0.3076888882770484
7.400000000000806,0.5973164688496153,0.319015753613498
7.600000000000873,0.6171121381820068,0.32516081918856204
7.8000000000009395,0.6351085776296496,0.3429613014259003
8.000000000001005,0.6555063019516583,0.35412485145691647
8.200000000000895,0.6775841836943427,0.36408788487440313
8.400000000000784,0.6988081460852839,0.37672877136795563
8.600000000000673,0.7155958437223826,0.3983852975108121
8.800000000000562,0.7352262475936158,0.4251437577466752
9.000000000000451,0.7625456914310913,0.44426648726415213
9.20000000000034,0.786568728217043,0.46479895071494914
9.40000000000023,0.8074506777276325,0.4752071157047098
9.600000000000119,0.8221434851091814,0.48962089818309895
9.800000000000008,0.8317531960830054,0.5053922817966281
10.000999999999896,0.8473317672061492,0.5250218623383959
10.200999999999786,0.8594217919142181,0.5414345400906864
10.400999999999675,0.8685997239691998,0.5633855119664842
10.600999999999564,0.8876080686479464,0.5896814192926645
10.800999999999453,0.9018582533346519,0.6187983757157511
11.000999999999342,0.911798743030962,0.6395771947104023
11.200999999999231,0.9223932491817527,0.6575379264461001
11.40099999999912,0.9351522486573172,0.6779430129579908
11.60099999999901,0.9509852660940967,0.702875109151354
11.800999999998899,0.9685259346611148,0.7225166280681168
12.000999999998788,0.9873563478908616,0.740171378298985
12.200999999998677,0.9991904898223317,0.7555824297589249
12.400999999998566,1.0019645892285851,0.7777885465806619
12.600999999998455,1.0072191262342376,0.811525528912572
12.800999999998345,1.013050727469731,0.8499871496403226
13.000999999998234,1.0238047387575533,0.8730115508502074
13.200999999998123,1.0327108156519218,0.8909114916074318
13.400999999998012,1.0425448280605685,0.9158407522954162
13.600999999997901,1.0547852642101345,0.9423667832107291
13.80099999999779,1.0636953711903092,0.9588903339243391
14.00099999999768,1.0732235328347184,0.9673357830116979
14.200999999997569,1.0814846243647382,0.9889816220783846
14.400999999997458,1.0912639498558394,1.0184031630690658
14.600999999997347,1.0943692084115157,1.0512917706494016
14.800999999997236,1.098890622901944,1.0750305604120605
15.000999999997125,1.105789663147818,1.0980192559167916
15.200999999997014,1.1128787915071392,1.1183133546455915
15.400999999996904,1.1187426899618713,1.1344338160976406
15.600999999996793,1.12612960892882,1.158988390863922
15.800999999996682,1.1360002267429947,1.1752059758224205
16.000999999996573,1.1460974721839072,1.2020602163502285
16.200999999996817,1.1502139797294615,1.2392273539082368
16.40099999999706,1.1499191098017523,1.2660778277883133
16.600999999997306,1.149835626555005,1.2893901445698153
16.80099999999755,1.1532049297444915,1.3154776274006608
17.000999999997795,1.1580305809742553,1.342495927303978
17.20099999999804,1.1615075662652672,1.3642308323520391
17.400999999998284,1.1665555653737838,1.3865922174901768
17.60099999999853,1.1645017715409245,1.4100034955664011
17.800999999998773,1.1628968661412695,1.446444349294264
18.000999999999017,1.1671889123653172,1.4752400933713794
18.20099999999926,1.1743914884326578,1.502247369098641
18.400999999999506,1.183728955227787,1.5215153031189481
18.60099999999975,1.1915289694625022,1.5398100268280914
18.799999999999994,1.198504000995869,1.5598310671551465
19.000000000000238,1.1999202501202015,1.5879251782066706
19.200000000000482,1.2039316863359808,1.6097783702779582
19.400000000000727,1.2041912052216805,1.6397008567572533
19.60000000000097,1.2056886256441872,1.6728011690991536
19.800000000001216,1.2114670295791157,1.7001779769168233
20.00000000000146,1.2145619540778239,1.7223813432358257
