Time (s),X (m),Y (m)
0.001,-0.0004427414248986554,0.0007899207378008392
0.20000000000000015,0.000557702467348134,0.0013055608599285673
0.4000000000000003,-0.003785210630898476,0.007117682596718386
0.6000000000000004,-0.0022543732949031102,0.007614649068371763
0.8000000000000006,0.00043783509476410815,0.005123513442600794
1.0000000000000007,0.0023772960697622707,0.004784994134376543
1.2009999999999785,0.0047841359799915455,0.004238734233578605
1.4009999999999565,0.007400521839756063,0.0030930543171661905
1.6009999999999345,0.008970498434873457,0.001791598935233968
1.8009999999999124,0.009834338971899037,0.0009905223330136798
2.0009999999998906,0.010584129250563288,0.0003045573543718687
2.2009999999998686,0.011261307606797544,-0.00034392787583797994
2.4009999999998466,0.011954099507543425,-0.0010269561858341
2.6009999999998246,0.012769947402557628,-0.0017681404928875854
2.8009999999998025,0.0134890644042105,-0.002432546612671942
3.0009999999997805,0.014224233433197956,-0.003125444252411665
3.2009999999997585,0.015049571757811329,-0.0038815467835061975
3.4009999999997365,0.015884051554068877,-0.004647527649862288
3.6009999999997144,0.016766006667361215,-0.0055041821815897335
3.8009999999996924,0.017658265152708394,-0.0063409854667054
4.000999999999671,0.018596872026590314,-0.007223637396337265
4.200999999999738,0.019521937154838055,-0.008093643541117678
4.400999999999804,0.020534357274420875,-0.00911244637533583
4.600999999999871,0.0214722227070523,-0.010014112493491751
4.800999999999938,0.022333486185657295,-0.010779142328876966
5.000000000000004,0.023341432438922474,-0.011747541366286068
5.200000000000071,0.02437187112680321,-0.012734193879101696
5.400000000000138,0.025366640104353435,-0.013670977895458025
5.600000000000205,0.026451435021514078,-0.01468446988818576
5.800000000000272,0.02743133471005798,-0.015530467468641541
6.000000000000338,0.02850124626764488,-0.016522621359231836
6.200000000000405,0.029547270840026726,-0.017452738796962255
6.400000000000472,0.030667793191621995,-0.018506305112753533
6.600000000000539,0.03182828903642017,-0.01952868063415437
6.800000000000606,0.03291837488513022,-0.02051126756287071
7.000000000000672,0.03397574280045288,-0.02139203104190032
7.200000000000739,0.0351561788885748,-0.022438910250732594
7.400000000000806,0.036285185030922526,-0.023369239113429672
7.600000000000873,0.0374673770435609,-0.024341101980234932
7.8000000000009395,0.038637784046819494,-0.02530307353739122
8.000000000001005,0.039789744446613075,-0.02624286699867684
8.200000000000895,0.04094036533793366,-0.027157820705604317
8.400000000000784,0.042034822092990407,-0.028036080644251914
8.600000000000673,0.04316564914940772,-0.02890316705671421
8.800000000000562,0.044229752102239485,-0.02972696792489371
9.000000000000451,0.04546125497454278,-0.030638491480910794
9.20000000000034,0.046708527657151416,-0.03155689113560035
9.40000000000023,0.04788457726318183,-0.032405556975073885
9.600000000000119,0.049079994828407275,-0.03326787946363572
9.800000000000008,0.05030052354019815,-0.034119398207632906
10.000999999999896,0.05154508393237155,-0.03497861672686367
10.200999999999786,0.052728880924703174,-0.03576137330910366
10.400999999999675,0.05392763789640348,-0.036567207390734706
10.600999999999564,0.055168308669562315,-0.03737075243467205
10.800999999999453,0.05640332629603112,-0.03814926964838225
11.000999999999342,0.05760240538528907,-0.038904200286418805
11.200999999999231,0.058844976693002406,-0.03967753723051316
11.40099999999912,0.06011787178795617,-0.04045917128875597
11.60099999999901,0.061340756692541146,-0.04117227115222096
11.800999999998899,0.06265195475112435,-0.0419382704791432
12.000999999998788,0.0639711098813227,-0.04266709575094743
12.200999999998677,0.06527901826048461,-0.04339653296834044
12.400999999998566,0.0665519439919416,-0.04407730101215318
12.600999999998455,0.06785199853688915,-0.044757859579907036
12.800999999998345,0.06909701350022993,-0.045395687701352695
13.000999999998234,0.07040132948864794,-0.04604049116879821
13.200999999998123,0.07164244876127489,-0.046654193384110317
13.400999999998012,0.07284431183447722,-0.047249368749986115
13.600999999997901,0.07412716467499403,-0.04787348378481741
13.80099999999779,0.07535703035284774,-0.048454677016747334
14.00099999999768,0.07669009856601725,-0.0490406199240446
14.200999999997569,0.07788959651045758,-0.04956964376227447
14.400999999997458,0.07911899890140717,-0.05009670983407968
14.600999999997347,0.08035074184565705,-0.0506158670459535
14.800999999997236,0.08161676989539039,-0.051132992741280664
15.000999999997125,0.08288083584672865,-0.051635608740156144
15.200999999997014,0.08417863995040015,-0.05213307875599771
15.400999999996904,0.08549896348026555,-0.05261489002798394
15.600999999996793,0.08682768457679906,-0.053094870720860075
15.800999999996682,0.0881818447318632,-0.05355554390123801
16.000999999996573,0.08951833177460816,-0.05401552601706692
16.200999999996817,0.09090518925999425,-0.054462892945001305
16.40099999999706,0.09228301345214636,-0.05490675640395827
16.600999999997306,0.09367685640764682,-0.05533867553358141
16.80099999999755,0.09510142864031357,-0.05574394474059991
17.000999999997795,0.09648453934224885,-0.05613701139880495
17.20099999999804,0.09783427761895358,-0.056511022459884756
17.400999999998284,0.09927862954478199,-0.05689977255036278
17.60099999999853,0.10065669812779877,-0.05724146871558389
17.800999999998773,0.1021030097087364,-0.0575911221037008
18.000999999999017,0.1034848904849815,-0.05791408679848195
18.20099999999926,0.10495212126874416,-0.05823593624768246
18.400999999999506,0.10632520585280043,-0.05852656605028519
18.60099999999975,0.10771773356188594,-0.05882599660088991
18.799999999999994,0.10915708462882845,-0.05911179634824386
19.000000000000238,0.1105342066906152,-0.059379295537656925
19.200000000000482,0.11195281255242219,-0.05964938252887153
19.400000000000727,0.11336409444291189,-0.059909356263872046
19.60000000000097,0.11479568386099949,-0.0601557036360365
19.800000000001216,0.11624348104867432,-0.060404991857903774
20.00000000000146,0.117587403266798,-0.06062522658885097
