Time (s),X (m),Y (m)
0.001,-0.000795421750936344,-0.00017906049427360483
0.20000000000000015,0.0018117928458435285,-0.0011292687351929234
0.4000000000000003,0.005048096765532294,-0.00026103203073527524
0.6000000000000004,0.006784266136851525,0.004414743653387834
0.8000000000000006,0.013514459823259236,0.008064922378033633
1.0000000000000007,0.03937556983289633,0.0028976168460860237
1.2009999999999785,0.06453835275282063,-0.007952393782793324
1.4009999999999565,0.0866305088856288,-0.018573571541565286
1.6009999999999345,0.11600202313657997,-0.028430008872528972
1.8009999999999124,0.14710260037362397,-0.04081081133777523
2.0009999999998906,0.18374734676506863,-0.06201611688276692
2.2009999999998686,0.22519334004088323,-0.09132478071569668
2.4009999999998466,0.2629035555643878,-0.11692838105132135
2.6009999999998246,0.29605510886135045,-0.14133265543256374
2.8009999999998025,0.33351623049168727,-0.1681844307613032
3.0009999999997805,0.373633472612012,-0.19790367554098443
3.2009999999997585,0.42005226481922653,-0.2410597949169226
3.4009999999997365,0.46889343127401695,-0.2814389125801941
3.6009999999997144,0.5083172939327353,-0.32674362326559303
3.8009999999996924,0.5271790510474631,-0.3718655960157651
4.000999999999671,0.5183447315172972,-0.4235962725796288
4.200999999999738,0.4969226623160456,-0.47261756342988387
4.400999999999804,0.47492599000754065,-0.5130077204936865
4.600999999999871,0.4520412613552957,-0.5581077117942304
4.800999999999938,0.4244952279057697,-0.6182060969839825
5.000000000000004,0.39578504601077696,-0.678553737710793
5.200000000000071,0.36867927171538567,-0.7292003838677811
5.400000000000138,0.3339399858198478,-0.786598384800359
5.600000000000205,0.28480730520953146,-0.8549201516631414
5.800000000000272,0.23375118790397428,-0.9245755559221217
6.000000000000338,0.18637557081956743,-0.9845293044223684
6.200000000000405,0.13838113437378313,-1.026145431653821
6.400000000000472,0.08970275283342706,-1.0460830342705913
6.600000000000539,0.042006077006914576,-1.0369557117973294
6.800000000000606,0.001687240773736219,-1.0162965727776003
7.000000000000672,-0.020330954481010015,-0.982025848284825
7.200000000000739,-0.02098117912591535,-0.9448294633299621
7.400000000000806,0.002462505170316883,-0.8933161080885659
7.600000000000873,0.03610479846063949,-0.839280682009731
7.8000000000009395,0.07088638800457052,-0.7938264546310537
8.000000000001005,0.10478323734678889,-0.7480575559919524
8.200000000000895,0.1421249637271192,-0.6967144172734485
8.400000000000784,0.19133079743035084,-0.6528317711383127
8.600000000000673,0.25104250472863654,-0.6296442238622119
8.800000000000562,0.3083336011897913,-0.6292728963721166
9.000000000000451,0.36880156416885035,-0.6436185608813769
9.20000000000034,0.4119202233907285,-0.6657384274842106
9.40000000000023,0.45010509016208367,-0.6887816284792714
9.600000000000119,0.48887055205897706,-0.7149841243740779
9.800000000000008,0.5262873971019894,-0.744432756625544
10.000999999999896,0.5741330184561291,-0.7757612464274869
10.200999999999786,0.6377914355868626,-0.8105163147401933
10.400999999999675,0.7102391372117849,-0.8492171801597916
10.600999999999564,0.7866830090826153,-0.8949470062518239
10.800999999999453,0.856337410016259,-0.9410856865572736
11.000999999999342,0.915211317603071,-0.9990690194032523
11.200999999999231,0.9474438215331467,-1.0560204577957693
11.40099999999912,0.9403822896617806,-1.110546932699698
11.60099999999901,0.9126148486877281,-1.1479412015633301
11.800999999998899,0.8837521133343353,-1.1625398183176086
12.000999999998788,0.8412443027808475,-1.1586704537096693
12.200999999998677,0.7905261312624599,-1.1389942955900507
12.400999999998566,0.7331111116978497,-1.1047837928687547
12.600999999998455,0.6713957601638708,-1.0627221510869633
12.800999999998345,0.6093267768213885,-1.0110784435451052
13.000999999998234,0.5688820616489724,-0.9629540151013135
13.200999999998123,0.5595778712090905,-0.9160856461293579
13.400999999998012,0.5749277320175288,-0.8665036758543369
13.600999999997901,0.601782019209148,-0.8141870156831182
13.80099999999779,0.6349661943035539,-0.753226033984667
14.00099999999768,0.6658289352594208,-0.7046075056904191
14.200999999997569,0.7036067286391792,-0.6494515187066264
14.400999999997458,0.7451346506249595,-0.5912988274209358
14.600999999997347,0.8042899635209568,-0.529288050106466
14.800999999997236,0.8703688812074611,-0.470177509866702
15.000999999997125,0.9226987937235676,-0.4341713433707199
15.200999999997014,0.9602807871050647,-0.4242514855276136
15.400999999996904,0.9966059093413362,-0.4280985767196667
15.600999999996793,1.0376603792787484,-0.43552983451691174
15.800999999996682,1.08156080957636,-0.4543877898373659
16.000999999996573,1.1321455158013551,-0.48568492714600353
16.200999999996817,1.1942472411219232,-0.5356770498030119
16.40099999999706,1.2554801809849212,-0.594812693976414
16.600999999997306,1.3137796777588482,-0.6569537861601876
16.80099999999755,1.3659387001966663,-0.7181473995015357
17.000999999997795,1.3974037892249591,-0.7662373759990221
17.20099999999804,1.4054562934739505,-0.7866292936728542
17.400999999998284,1.3952238734877054,-0.8069462974780104
17.60099999999853,1.3722003735921624,-0.8362566158396227
17.800999999998773,1.3569960542713164,-0.8746870221311001
18.000999999999017,1.329234852704605,-0.917968236340814
18.20099999999926,1.2822511714824136,-0.9616134360417427
18.400999999999506,1.223108212413927,-0.9789605236769577
18.60099999999975,1.174197139318992,-0.972060932324456
18.799999999999994,1.1225975396978527,-0.9537981384617816
19.000000000000238,1.0700316995520305,-0.9337119203626217
19.200000000000482,1.0252668866675243,-0.8930166276793549
19.400000000000727,1.0193105069883288,-0.8329949875686761
19.60000000000097,1.039475696223609,-0.7718571183946145
19.800000000001216,1.0597938114700856,-0.7301451050235981
20.00000000000146,1.0867753039677774,-0.6858457416251268
