Time (s),X (m),Y (m)
0.001,0.0011130987088041246,0.0005155841445599734
0.20000000000000015,-0.0038409253475664667,-0.0018000363997761018
0.4000000000000003,0.0042058151457958284,0.0015730155104305644
0.6000000000000004,0.007695861326580742,0.0009106706660868086
0.8000000000000006,0.013363409452387799,0.0038856654141731957
1.0000000000000007,0.016399276690015535,0.004779494811106914
1.2009999999999785,0.011601475587664558,-0.005892697786883134
1.4009999999999565,0.024986466930092748,-0.01276864540597054
1.6009999999999345,0.04545780002042938,-0.016533497555314202
1.8009999999999124,0.054797411413900286,-0.028111827664150563
2.0009999999998906,0.06221866639542285,-0.036739187028182484
2.2009999999998686,0.08182383689558818,-0.04053915766053787
2.4009999999998466,0.10406617471846559,-0.039972259848950066
2.6009999999998246,0.12424776295934485,-0.03793953072261084
2.8009999999998025,0.14149014999419138,-0.0337767976126351
3.0009999999997805,0.1591414003281611,-0.027869453010653494
3.2009999999997585,0.18518431418098533,-0.018022129397501578
3.4009999999997365,0.2084310144871318,-0.012993476060351648
3.6009999999997144,0.22319987002477903,-0.01953064591465977
3.8009999999996924,0.23182081317275316,-0.033778410328342695
4.000999999999671,0.2558846667672059,-0.04678870020104797
4.200999999999738,0.26406315036910466,-0.06232425997937581
4.400999999999804,0.27893806726317283,-0.07829016375208543
4.600999999999871,0.29486317691948505,-0.09060307301076848
4.800999999999938,0.3103749892233599,-0.09978534684593289
5.000000000000004,0.3388160498575105,-0.11254545852669169
5.200000000000071,0.36819876727978273,-0.12798738469021526
5.400000000000138,0.39515666746046685,-0.14454519094949553
5.600000000000205,0.42052158754963304,-0.160057056361044
5.800000000000272,0.438855766164535,-0.18164169679109382
6.000000000000338,0.46538383504264397,-0.2000640325911281
6.200000000000405,0.4797387103047094,-0.22065979317526638
6.400000000000472,0.4974585485729706,-0.24506537958713878
6.600000000000539,0.5155939539613366,-0.26521246069052323
6.800000000000606,0.5366849348086696,-0.28069854237396796
7.000000000000672,0.5567886447784555,-0.29709059315425307
7.200000000000739,0.566056346216334,-0.30681079062842664
7.400000000000806,0.578929824761749,-0.31599865031064517
7.600000000000873,0.607594057626155,-0.3342356318182812
7.8000000000009395,0.6242792610338248,-0.3519187412061623
8.000000000001005,0.6467401554763659,-0.3755897746976809
8.200000000000895,0.67443164762991,-0.39554575587080987
8.400000000000784,0.6831850714414806,-0.4159678601598022
8.600000000000673,0.6856185317332031,-0.44292745330942535
8.800000000000562,0.7078064001337561,-0.47319602783902587
9.000000000000451,0.7416027203664254,-0.49918056000670163
9.20000000000034,0.7668434115317235,-0.5229337685067821
9.40000000000023,0.7769946148401924,-0.5465218055136899
9.600000000000119,0.8034121324146943,-0.5685582403127027
9.800000000000008,0.8291135785320849,-0.5873964258298079
10.000999999999896,0.8550175306277503,-0.6033056265451782
10.200999999999786,0.8784462210830962,-0.6186342706379203
10.400999999999675,0.903932765206186,-0.6384676247426685
10.600999999999564,0.9278517828371678,-0.6592174930829781
10.800999999999453,0.9421913294961014,-0.681781087762064
11.000999999999342,0.9651070396343149,-0.7064463548702404
11.200999999999231,0.9922196553766275,-0.7300900447132687
11.40099999999912,1.0082106948167875,-0.746647178610473
11.60099999999901,1.024898138979167,-0.7655165257508041
11.800999999998899,1.0648724409610897,-0.7833858866127459
12.000999999998788,1.0963237448720486,-0.7986872345814156
12.200999999998677,1.1253039835958096,-0.8148791708838075
12.400999999998566,1.1548787298252954,-0.8291580918028592
12.600999999998455,1.1905396744552266,-0.8418959685139752
12.800999999998345,1.2240331904701396,-0.8506010770842778
13.000999999998234,1.2588219534570284,-0.860704349279422
13.200999999998123,1.2964563606120298,-0.8755896650438061
13.400999999998012,1.3243549464951923,-0.8914004821424812
13.600999999997901,1.355932454079962,-0.9122712747901676
13.80099999999779,1.3747374136935298,-0.934035386230101
14.00099999999768,1.4034284152323506,-0.9512577658428097
14.200999999997569,1.4219265241629906,-0.964303343376069
14.400999999997458,1.4545780945645257,-0.9745902811821108
14.600999999997347,1.4986448795483724,-0.9856001354534484
14.800999999997236,1.538445641138157,-0.9894566522514122
15.000999999997125,1.5778761412726283,-0.990945101080567
15.200999999997014,1.6038540428924537,-0.9997164247895073
15.400999999996904,1.6398842400305556,-1.01145962215812
15.600999999996793,1.6678574545876383,-1.029944627799242
15.800999999996682,1.7000673012780605,-1.0527584647881316
16.000999999996573,1.7258219313479777,-1.075780318720734
16.200999999996817,1.7585596717577083,-1.0938633659055736
16.40099999999706,1.7883063427853845,-1.108998450913832
16.600999999997306,1.8275669246405788,-1.1145190324705099
16.80099999999755,1.874958545163167,-1.114916532883303
17.000999999997795,1.9007696305322346,-1.1206266942396326
17.20099999999804,1.9298403568525717,-1.1304618604871226
17.400999999998284,1.970008291184163,-1.1332836491970268
17.60099999999853,2.020501363860049,-1.134279583736698
17.800999999998773,2.0569443500420017,-1.1358707807705075
18.000999999999017,2.1017748389625877,-1.1312939872677035
18.20099999999926,2.146224018643568,-1.1278578407483262
18.400999999999506,2.183942484645574,-1.1209928490207657
18.60099999999975,2.2193970285315725,-1.1152206674461964
18.799999999999994,2.2450754644060535,-1.1118917163853823
19.000000000000238,2.2665806916250366,-1.112655020991487
19.200000000000482,2.2977401242302427,-1.1172583594997039
19.400000000000727,2.3331944736615586,-1.1284362067881666
19.60000000000097,2.3779014229699453,-1.1418060855676773
19.800000000001216,2.4220541626842818,-1.1537767122092941
20.00000000000146,2.4658022588098354,-1.1616046231895563
