Time (s),X (m),Y (m)
0.001,-0.0006729371591054965,0.000515584144559974
0.20000000000000015,0.0033632809669491602,-0.0018169578548108745
0.4000000000000003,0.01205684393863257,-0.0013213843109164019
0.6000000000000004,0.02686963856447188,-0.005208129871901469
0.8000000000000006,0.05185713217592675,-0.005053924145005822
1.0000000000000007,0.08312624791484838,-0.00807712726853754
1.2009999999999785,0.11824040289110893,-0.00782496228188128
1.4009999999999565,0.16380653384369712,-0.00880001710340653
1.6009999999999345,0.21175477637248374,-0.007260465110461331
1.8009999999999124,0.25573896972706767,-0.009797614446170212
2.0009999999998906,0.302367328612954,-0.022160037345219222
2.2009999999998686,0.34361968308202445,-0.046464881713589264
2.4009999999998466,0.3804153820497479,-0.08189295539761819
2.6009999999998246,0.4050011016783387,-0.12284077237047103
2.8009999999998025,0.4133547500421704,-0.16666597794736648
3.0009999999997805,0.4128620170697629,-0.21932461863264158
3.2009999999997585,0.399832727696933,-0.2788986337400457
3.4009999999997365,0.3714155828518706,-0.3352827003303989
3.6009999999997144,0.33759160296374213,-0.387733646928021
3.8009999999996924,0.2843809619828526,-0.4144038033572135
4.000999999999671,0.23436777673396947,-0.4222870468402519
4.200999999999738,0.1807913395219145,-0.4097620486640364
4.400999999999804,0.12116538800637267,-0.3859355438343997
4.600999999999871,0.06408066623515898,-0.3561288112371172
4.800999999999938,0.02551911004112851,-0.31950211248486654
5.000000000000004,0.012908476018522163,-0.27218601143216403
5.200000000000071,0.017082318395675172,-0.219304511693099
5.400000000000138,0.0343105870396448,-0.16719010487851219
5.600000000000205,0.04811431767995797,-0.11760376654932791
5.800000000000272,0.06058983425598811,-0.06721455473041667
6.000000000000338,0.0912421545481028,-0.02231350172652304
6.200000000000405,0.1315625445471522,-0.0011721477247055986
6.400000000000472,0.17515418098978117,0.003172734213678145
6.600000000000539,0.2230372448874036,-0.01073703196473911
6.800000000000606,0.26163018932679233,-0.04893768409854709
7.000000000000672,0.27938437747396866,-0.0999577482260657
7.200000000000739,0.2742878476471538,-0.15778389484401004
7.400000000000806,0.26093922523598767,-0.21413692535430828
7.600000000000873,0.23437967044652644,-0.27104914712932504
7.8000000000009395,0.1882161296440131,-0.3313462235681878
8.000000000001005,0.1515943549782675,-0.3851436296157381
8.200000000000895,0.11712951215394535,-0.4314063153614535
8.400000000000784,0.07109908513609883,-0.45865912899412514
8.600000000000673,0.032837071005856484,-0.47115346307775957
8.800000000000562,-0.013976616070038837,-0.4684723608883109
9.000000000000451,-0.06567376797182073,-0.46075139118340935
9.20000000000034,-0.11828062075380633,-0.4405767961808941
9.40000000000023,-0.17061001712079077,-0.4084147768404955
9.600000000000119,-0.20925330642518833,-0.3618803963035668
9.800000000000008,-0.21791732946286135,-0.30989535363026594
10.000999999999896,-0.19245927270314223,-0.26865949953432783
10.200999999999786,-0.15226116001085813,-0.24296407292427397
10.400999999999675,-0.10812909100046307,-0.22629113232916326
10.600999999999564,-0.06284773604115416,-0.2215302889421883
10.800999999999453,-0.013211468173292974,-0.23077119173835867
11.000999999999342,0.043648153109576614,-0.25444638737109954
11.200999999999231,0.10703035845198984,-0.28229009147193296
11.40099999999912,0.17162187387870045,-0.32796890012288016
11.60099999999901,0.21631861099471947,-0.37568243280911545
11.800999999998899,0.22620221211135993,-0.42626351781159233
12.000999999998788,0.21573162966268952,-0.48523180114114356
12.200999999998677,0.19419811533295128,-0.5529707403534989
12.400999999998566,0.17370028896767167,-0.621255605191961
12.600999999998455,0.14755424733766248,-0.6893360424891077
12.800999999998345,0.11116596907960714,-0.7511619752412937
13.000999999998234,0.055844917253611105,-0.7869406865044495
13.200999999998123,0.004456616676202137,-0.8026067246764678
13.400999999998012,-0.05000305875928774,-0.7941288958744552
13.600999999997901,-0.11596024535628385,-0.761571532832318
13.80099999999779,-0.17612541751816513,-0.7025367089514295
14.00099999999768,-0.22234229571439998,-0.6316225979346034
14.200999999997569,-0.24685145538023223,-0.5557823668467343
14.400999999997458,-0.2438306800672512,-0.47232320925226945
14.600999999997347,-0.23353912206794145,-0.4023352396949577
14.800999999997236,-0.22319558704520406,-0.33280552629642024
15.000999999997125,-0.19234390843838198,-0.2615039591742012
15.200999999997014,-0.15965100473806385,-0.20300775609637053
15.400999999996904,-0.10636331834096947,-0.1784186603774765
15.600999999996793,-0.04849949200834539,-0.17578956934414394
15.800999999996682,0.009567882219669806,-0.1817988316190596
16.000999999996573,0.07300235576840848,-0.19417534847082302
16.200999999996817,0.14585123249935794,-0.22679438266398505
16.40099999999706,0.2172569207682819,-0.25054035183292084
16.600999999997306,0.26606987906107615,-0.27868058591803957
16.80099999999755,0.2913353289329417,-0.3155939218032865
17.000999999997795,0.30460925458217414,-0.36480167647209466
17.20099999999804,0.3012139617052767,-0.4175148698482612
17.400999999998284,0.2907196518062318,-0.4796575880205839
17.60099999999853,0.2792121640710951,-0.5449255295869153
17.800999999998773,0.2584954650340319,-0.6192474240068503
18.000999999999017,0.21841318108504829,-0.6942962558196791
18.20099999999926,0.16608863142863614,-0.7504378139240285
18.400999999999506,0.10132515670993592,-0.7688691151963394
18.60099999999975,0.03251579735113058,-0.7484047723540128
18.799999999999994,-0.038869625105753404,-0.7173674912806933
19.000000000000238,-0.10127969530980012,-0.674298868688899
19.200000000000482,-0.14186533007166005,-0.6276180114670539
19.400000000000727,-0.15946815376711937,-0.5750344893409944
19.60000000000097,-0.16129057369594219,-0.5167028727847819
19.800000000001216,-0.13818984032312065,-0.4608900355755953
20.00000000000146,-0.09985798610324222,-0.4237998728614359
