Time (s),X (m),Y (m)
0.001,0.0011130987088041246,-0.000515584144559974
0.20000000000000015,-0.0010896873261251692,0.004406626456939196
0.4000000000000003,0.006423835918419601,0.0027165459221968687
0.6000000000000004,0.01977910299585559,-0.001923718384233101
0.8000000000000006,0.037427816404063,-0.0009788206117120897
1.0000000000000007,0.05204867595223832,0.009434160999681371
1.2009999999999785,0.06848129621958501,0.012047755365285377
1.4009999999999565,0.08256268091307284,0.013713989520358657
1.6009999999999345,0.1008673173457865,0.016879843141805555
1.8009999999999124,0.13208136419309802,0.006120739620689499
2.0009999999998906,0.15301315013322006,0.0018600808646000921
2.2009999999998686,0.17539903362723813,0.005147866930742734
2.4009999999998466,0.20059127319981906,-0.005152310843242173
2.6009999999998246,0.22962718525356757,-0.01951783475252868
2.8009999999998025,0.25111680145631377,-0.0385641282412895
3.0009999999997805,0.2742629426441028,-0.05347601171525198
3.2009999999997585,0.293165646372601,-0.08014760324220875
3.4009999999997365,0.3079783763889852,-0.11796246532128446
3.6009999999997144,0.3198381379940805,-0.14189852250908605
3.8009999999996924,0.31995497517608934,-0.17194283184697007
4.000999999999671,0.31825114474049276,-0.2012762131458181
4.200999999999738,0.3144268977971236,-0.23062344575442104
4.400999999999804,0.3023598722385849,-0.2646291702107794
4.600999999999871,0.28233362155932823,-0.3039999239573997
4.800999999999938,0.26538300088878597,-0.34306971599027464
5.000000000000004,0.261285736543453,-0.37299163334171626
5.200000000000071,0.2511922921212202,-0.3998221483804121
5.400000000000138,0.23980481283022065,-0.4243740290129309
5.600000000000205,0.22637762467942868,-0.45552678529671203
5.800000000000272,0.2065915338368792,-0.4766622482054873
6.000000000000338,0.16815422553862067,-0.4901731413832449
6.200000000000405,0.13907909147618197,-0.5050948730310236
6.400000000000472,0.1218953327854317,-0.5176963072409516
6.600000000000539,0.0842521976577632,-0.5222516218121837
6.800000000000606,0.043210470971705016,-0.5218762147037964
7.000000000000672,0.0011189934441515456,-0.5168889039671156
7.200000000000739,-0.03532877904356159,-0.5143280599778062
7.400000000000806,-0.07534359148657,-0.5016424793333651
7.600000000000873,-0.11824886508072306,-0.4798390976735536
7.8000000000009395,-0.14685015475535074,-0.4413310208413835
8.000000000001005,-0.15801333121358724,-0.40568497868787096
8.200000000000895,-0.1527176943648237,-0.36644217372994237
8.400000000000784,-0.13394332478361898,-0.3305243426061243
8.600000000000673,-0.09796401503273681,-0.3113264143128963
8.800000000000562,-0.054322665125953025,-0.30414953775460535
9.000000000000451,-0.007618672704156079,-0.30076245175107247
9.20000000000034,0.029395519140036228,-0.29203836381652976
9.40000000000023,0.06449073406498292,-0.28579080604217033
9.600000000000119,0.1026056409406625,-0.28471399725198104
9.800000000000008,0.1495207432343064,-0.28608122119255286
10.000999999999896,0.20289909425930786,-0.2940895549446731
10.200999999999786,0.24876455024217534,-0.29532767376985286
10.400999999999675,0.28321737970431715,-0.30225015529674126
10.600999999999564,0.31808755468156813,-0.31479085107989124
10.800999999999453,0.35807071620712155,-0.3289547696678748
11.000999999999342,0.38724193511145905,-0.3334411716571278
11.200999999999231,0.42189410960016166,-0.3502099323821728
11.40099999999912,0.45909053902329866,-0.36475979231653427
11.60099999999901,0.49951545595449875,-0.3774313146009379
11.800999999998899,0.5421432861844159,-0.3912989232564479
12.000999999998788,0.5839343775575695,-0.40497073562967445
12.200999999998677,0.6317669229594689,-0.4226443812391409
12.400999999998566,0.6793310756518726,-0.4351568069591525
12.600999999998455,0.7197414427572024,-0.4391032593780931
12.800999999998345,0.7599262109490562,-0.4434440662852596
13.000999999998234,0.8050400255002598,-0.45205730570717956
13.200999999998123,0.8470791761007361,-0.4694558494031216
13.400999999998012,0.886815936169895,-0.49869981339729896
13.600999999997901,0.9221658156971504,-0.5032796364784682
13.80099999999779,0.9522570670742196,-0.513587296896321
14.00099999999768,0.9638311974369086,-0.5532499920888223
14.200999999997569,0.9606273363130925,-0.6006671288294807
14.400999999997458,0.9491525160855366,-0.6468143695543013
14.600999999997347,0.9399548460674346,-0.6915206137539327
14.800999999997236,0.9253713708054209,-0.7458665351868934
15.000999999997125,0.9081354474593746,-0.8030543860832215
15.200999999997014,0.8961124806044256,-0.8497092720213227
15.400999999996904,0.8797706742212856,-0.9017703337586569
15.600999999996793,0.8712372164928224,-0.9505188222329158
15.800999999996682,0.8629401291949936,-0.9929742871177948
16.000999999996573,0.8583671961557644,-1.0305987343326413
16.200999999996817,0.8242150208041156,-1.0657678406925897
16.40099999999706,0.7856803311387244,-1.097675875079565
16.600999999997306,0.7440140579634076,-1.1206567581984912
16.80099999999755,0.7108224338096726,-1.1384588284650194
17.000999999997795,0.6730952744293732,-1.1451945235065035
17.20099999999804,0.6228327609893634,-1.1320346193746165
17.400999999998284,0.579031311339966,-1.1078345319990561
17.60099999999853,0.5398863325844186,-1.0870209848366414
17.800999999998773,0.4959569593090483,-1.0663632665755287
18.000999999999017,0.4555305279448729,-1.0391018185536818
18.20099999999926,0.414948038723517,-1.022585442590418
18.400999999999506,0.38072299354695444,-1.0164249346890426
18.60099999999975,0.3548627906808172,-1.0007550056988317
18.799999999999994,0.3328380204203508,-0.9803853095620289
19.000000000000238,0.3168391359014477,-0.9586984340080432
19.200000000000482,0.30632445906069644,-0.9304068078820645
19.400000000000727,0.30559594559174724,-0.8956287052930453
19.60000000000097,0.3077537737312365,-0.8510520692083052
19.800000000001216,0.3071659833406232,-0.8170027459684299
20.00000000000146,0.3105909524559494,-0.7834246718304188
