Time (s),X (m),Y (m)
0.001,-0.0005090653149319316,0.0007291460897812449
0.20000000000000015,0.002053462992969173,-0.0008290208648575896
0.4000000000000003,0.008933303297553527,-0.0023933517272777586
0.6000000000000004,0.015243013321511905,-0.0072318812785415595
0.8000000000000006,0.017906111992839903,-0.005581070560503619
1.0000000000000007,0.02595685392932502,-0.011480443341392716
1.2009999999999785,0.030209925137434,-0.01159742092542868
1.4009999999999565,0.036474717534530625,-0.007113810592825068
1.6009999999999345,0.05066539180138374,-0.00016817735746525983
1.8009999999999124,0.06690274271720097,0.004639412890389214
2.0009999999998906,0.07569345089963207,0.009877676440704275
2.2009999999998686,0.08874472658167833,0.021580095239723516
2.4009999999998466,0.10338510783505929,0.02325114487675923
2.6009999999998246,0.11640566269879317,0.019854903610131768
2.8009999999998025,0.13269318076682252,0.021691909429443906
3.0009999999997805,0.1501183890231955,0.02503364195940412
3.2009999999997585,0.16717879035710498,0.02716425391608474
3.4009999999997365,0.18316172379523699,0.030660867046859077
3.6009999999997144,0.19771628684485848,0.028894623060578627
3.8009999999996924,0.2081471649300701,0.03257064873769936
4.000999999999671,0.2201577397448876,0.029666841290680063
4.200999999999738,0.23188960027176772,0.029224840844098494
4.400999999999804,0.24355644935339263,0.035973963891946285
4.600999999999871,0.26052097437479366,0.040668512253113326
4.800999999999938,0.270931191787385,0.047297424244797395
5.000000000000004,0.2827825266428412,0.04803283985244777
5.200000000000071,0.30141547912916433,0.04426565308256821
5.400000000000138,0.31387370210256893,0.04942580515299882
5.600000000000205,0.33170181458410825,0.04907276513711699
5.800000000000272,0.34872524065905086,0.045306656907846556
6.000000000000338,0.36792682032602764,0.03970375136223308
6.200000000000405,0.3796765067115614,0.04282531928888754
6.400000000000472,0.3927553206810644,0.04369031649967401
6.600000000000539,0.4118167932936873,0.04185839337262427
6.800000000000606,0.43234378582403266,0.03971879495149378
7.000000000000672,0.4439762998659546,0.04682355393203452
7.200000000000739,0.4544462199396854,0.05263042219280534
7.400000000000806,0.4655187074001178,0.05763243320010803
7.600000000000873,0.48108157525855544,0.056365172898699405
7.8000000000009395,0.4981925021345597,0.056196558995553425
8.000000000001005,0.5166313047517207,0.05586810610999939
8.200000000000895,0.5388879211965223,0.04993170710031523
8.400000000000784,0.5538943984170348,0.049273121263975754
8.600000000000673,0.5699841560723804,0.05918083145501231
8.800000000000562,0.5915349084268341,0.06038673763711293
9.000000000000451,0.6095257343022007,0.054884365404576876
9.20000000000034,0.6277069193189349,0.0548657625184396
9.40000000000023,0.6437014582912387,0.054150782435715535
9.600000000000119,0.6635882973990003,0.05561725733806376
9.800000000000008,0.6813701258220978,0.0569085836201067
10.000999999999896,0.6973323629260306,0.06788040755631089
10.200999999999786,0.7126281942758373,0.07332880412948349
10.400999999999675,0.726952532093478,0.07157567826608512
10.600999999999564,0.7502793205710487,0.06783977682809526
10.800999999999453,0.7643890967502326,0.07276068679887589
11.000999999999342,0.7722562748762716,0.07872709042329253
11.200999999999231,0.7909870794357143,0.07867820421915744
11.40099999999912,0.8125021597580327,0.08416126115931782
11.60099999999901,0.8294676520600069,0.08565725700544541
11.800999999998899,0.8480322226938755,0.0822797789783282
12.000999999998788,0.8667842974110955,0.08806111168068712
12.200999999998677,0.8854165272636589,0.08973147795159603
12.400999999998566,0.8997087548411687,0.09463140530523503
12.600999999998455,0.9158344856681782,0.09866446137235797
12.800999999998345,0.9318510635943932,0.1103848801450415
13.000999999998234,0.9547961178321122,0.11634604925728527
13.200999999998123,0.9813089166279991,0.1155262642208091
13.400999999998012,1.0028363955020119,0.11680897590747356
13.600999999997901,1.0205770451279086,0.1260991797977316
13.80099999999779,1.0404320068460169,0.13162036753784895
14.00099999999768,1.0545715819757175,0.1393384886923001
14.200999999997569,1.069620163587496,0.1408865390199252
14.400999999997458,1.0866446137712134,0.13847862603775524
14.600999999997347,1.098749363528968,0.14337650296584373
14.800999999997236,1.110316134083252,0.1456774448200967
15.000999999997125,1.1213581328772553,0.14783363118811452
15.200999999997014,1.1389206517650075,0.15151322300329623
15.400999999996904,1.1598481146725392,0.14864405824926166
15.600999999996793,1.1756966768011199,0.14623263012345222
15.800999999996682,1.19001572565864,0.14376969369113318
16.000999999996573,1.2063142425419062,0.13870719525916766
16.200999999996817,1.2229072511271548,0.13273707159550882
16.40099999999706,1.2394860346000591,0.12352027284676732
16.600999999997306,1.2613333944261909,0.12009895263729295
16.80099999999755,1.281264487249927,0.11704534599204301
17.000999999997795,1.296186902129229,0.1222250338904533
17.20099999999804,1.3133673937409391,0.1248270837687754
17.400999999998284,1.3325404450549219,0.12532913073110633
17.60099999999853,1.3536141867827065,0.12422511527860239
17.800999999998773,1.3756170943518815,0.12416919187656687
18.000999999999017,1.3955952928798712,0.11252667519308376
18.20099999999926,1.4115885196734008,0.10126937047567076
18.400999999999506,1.4291621428856311,0.09914248839678677
18.60099999999975,1.4477634104328991,0.09465685825562556
18.799999999999994,1.4636413858473245,0.08195711533945409
19.000000000000238,1.483483456064408,0.06578397504860171
19.200000000000482,1.5032374031825038,0.0627412759912088
19.400000000000727,1.5241826320064833,0.052691868981115074
19.60000000000097,1.5402596253530818,0.0409959208282771
19.800000000001216,1.5578128105285667,0.03233363550966918
20.00000000000146,1.5747948576806745,0.021080945431850767
