Time (s),X (m),Y (m)
0.001,-0.00013259955118837574,-0.0009689812320744441
0.20000000000000015,0.0016469996047687107,0.0006174233213477566
0.4000000000000003,0.001635934434849633,-0.003779570271779243
0.6000000000000004,0.00823858692109895,-0.007881848869891659
0.8000000000000006,0.021102925532829525,-0.006839973056760789
1.0000000000000007,0.032881752012429134,-0.00845213922069873
1.2009999999999785,0.04298398139907013,-0.017799678020029436
1.4009999999999565,0.0536824405459378,-0.011730442661138112
1.6009999999999345,0.06512248706558152,-0.0006682106256251165
1.8009999999999124,0.0804103024357152,-0.006483149906941745
2.0009999999998906,0.09613131908589818,-0.00658559752063974
2.2009999999998686,0.10761714612586003,-0.009488026507361975
2.4009999999998466,0.12345204201725316,-0.009631042461243005
2.6009999999998246,0.13850170020800404,-0.0035257687841283095
2.8009999999998025,0.15687970331585271,0.007053055594000401
3.0009999999997805,0.17504289206111648,0.016883953107427834
3.2009999999997585,0.18903740323671114,0.024876255136071175
3.4009999999997365,0.2054207708668448,0.02662727128390578
3.6009999999997144,0.21939622871699713,0.028265653864947303
3.8009999999996924,0.23223319455437152,0.02551962536889355
4.000999999999671,0.24802186745750643,0.02261101652426858
4.200999999999738,0.25948547960139035,0.026597974671740056
4.400999999999804,0.2693716217513507,0.023810749702283886
4.600999999999871,0.282800416319258,0.023741376575687895
4.800999999999938,0.2980229393797244,0.028003305771156003
5.000000000000004,0.31447561662456663,0.030221575785825096
5.200000000000071,0.32749151606096977,0.0357999854673925
5.400000000000138,0.3437336085715453,0.035841398609859645
5.600000000000205,0.3579909969542797,0.04932510429272722
5.800000000000272,0.3766610699295627,0.05908234313751746
6.000000000000338,0.39102559544767185,0.05778083031832512
6.200000000000405,0.4037289748635511,0.07036038056837517
6.400000000000472,0.41503346758664206,0.0818005257733042
6.600000000000539,0.42649677493884813,0.0926038788623409
6.800000000000606,0.43968589170102856,0.09430682876803174
7.000000000000672,0.4546563884260481,0.10934435283914173
7.200000000000739,0.47379655468747073,0.1256077397978718
7.400000000000806,0.49022756794235106,0.13568635356235997
7.600000000000873,0.5114100669636885,0.14255296693521047
7.8000000000009395,0.5291735398435277,0.16109471227381172
8.000000000001005,0.5502228509378274,0.1761070860153288
8.200000000000895,0.5678147162433289,0.19015625084094656
8.400000000000784,0.5811136318700844,0.19860754285924523
8.600000000000673,0.5977384390324536,0.2019775872051192
8.800000000000562,0.6123143451926003,0.20543112971750074
9.000000000000451,0.626391920261888,0.2140743631151625
9.20000000000034,0.6406141132405272,0.22276804342244105
9.40000000000023,0.6529175199870052,0.228030383580881
9.600000000000119,0.669255812421282,0.23833480447091582
9.800000000000008,0.6822811354109525,0.24381741834555326
10.000999999999896,0.7018546193471971,0.2580901092334542
10.200999999999786,0.7175746602624103,0.2747184862684454
10.400999999999675,0.7335736767162392,0.29641146361291654
10.600999999999564,0.7477171539997794,0.3105179915068804
10.800999999999453,0.7602155185683103,0.3263056738693477
11.000999999999342,0.7746900735611986,0.3369114444576691
11.200999999999231,0.789048975243631,0.351741687208716
11.40099999999912,0.8042860580176031,0.36615445290879967
11.60099999999901,0.8226436685472722,0.3762069596982973
11.800999999998899,0.8387521409312955,0.3967264925209356
12.000999999998788,0.8558795836300869,0.406445445444134
12.200999999998677,0.8692985911819354,0.41829161637569934
12.400999999998566,0.8891433914650625,0.4228642318939205
12.600999999998455,0.9095741195244968,0.4363932834008992
12.800999999998345,0.9286977876195034,0.44444679778514035
13.000999999998234,0.9425913883704452,0.43872972113436537
13.200999999998123,0.9559669828523537,0.44774151262711726
13.400999999998012,0.9729757560512025,0.46022936421413574
13.600999999997901,0.9920241671467023,0.4693367708460825
13.80099999999779,1.0077283354318196,0.47963492826074977
14.00099999999768,1.0250704553536933,0.4911222326851828
14.200999999997569,1.0402748239376818,0.5114162196006231
14.400999999997458,1.0550103543704752,0.5331070327087916
14.600999999997347,1.0717179534796577,0.5463914493846304
14.800999999997236,1.0864433396610418,0.5630955505004837
15.000999999997125,1.1026460961928832,0.5730035751750732
15.200999999997014,1.121742965150809,0.5845837089393491
15.400999999996904,1.1361441557072343,0.593870729156706
15.600999999996793,1.152665849070133,0.6071619017597781
15.800999999996682,1.1692548580212108,0.6236997713029654
16.000999999996573,1.1850934710436605,0.640341498942108
16.200999999996817,1.200540049419404,0.6489916068371152
16.40099999999706,1.2163608172457392,0.657364691826489
16.600999999997306,1.2303576751722138,0.6638332878262123
16.80099999999755,1.2472330929217998,0.6715438368132592
17.000999999997795,1.2633253046541641,0.685210974583519
17.20099999999804,1.2795877852199231,0.6996749000430081
17.400999999998284,1.2954274926468163,0.7192185758217667
17.60099999999853,1.309465588492104,0.7316856686711689
17.800999999998773,1.320258188370637,0.7437618333102806
18.000999999999017,1.331967759548252,0.7573451235682847
18.20099999999926,1.3446888734515223,0.7636187493951672
18.400999999999506,1.3580365266071193,0.7728204872185943
18.60099999999975,1.3707343945279773,0.7833754253191922
18.799999999999994,1.3853560008352226,0.8019004157050958
19.000000000000238,1.3976027391133978,0.8198324961840304
19.200000000000482,1.4114084948082553,0.8369984342643556
19.400000000000727,1.4247737154943643,0.8539942213436877
19.60000000000097,1.4365787023742211,0.8692958072364166
19.800000000001216,1.450980612930584,0.8884412839266388
20.00000000000146,1.463400724848014,0.9028347771597235
