Time (s),X (m),Y (m)
0.001,0.00048696676677933824,-0.0009960320817112695
0.20000000000000015,0.0011539488867362885,0.0008062742433465942
0.4000000000000003,0.0039656959602193086,-0.0011774903516864048
0.6000000000000004,0.0067005758334861614,-0.0009766723471134556
0.8000000000000006,0.010229960749747927,-0.0033434489317002544
1.0000000000000007,0.016982431240888524,-0.00449308756978365
1.2009999999999785,0.017566452172950338,0.0021819532757767633
1.4009999999999565,0.020646865121762416,0.007664125324195108
1.6009999999999345,0.02086801474400485,0.016450083415552933
1.8009999999999124,0.022088834363871594,0.02004027456837559
2.0009999999998906,0.024568412786072483,0.016062878152091477
2.2009999999998686,0.029712199692581005,0.01893911480879798
2.4009999999998466,0.030995798109778348,0.031228399950671386
2.6009999999998246,0.03213851195163015,0.03533102971796465
2.8009999999998025,0.032543498288804505,0.042082979854296654
3.0009999999997805,0.036533670013140916,0.030644236171201253
3.2009999999997585,0.042318569805022056,0.020306442121543748
3.4009999999997365,0.04769102963103809,0.028999833904213672
3.6009999999997144,0.05069012363076882,0.03525599156373637
3.8009999999996924,0.05276009512351682,0.02174767621616537
4.000999999999671,0.05896868132335836,0.02886664749560788
4.200999999999738,0.06515523839231491,0.03544319193669046
4.400999999999804,0.07176576398403357,0.04206406067513947
4.600999999999871,0.07945680450139138,0.04947874471667895
4.800999999999938,0.08696176876566349,0.055656353825158225
5.000000000000004,0.09414214375019372,0.061172336138977136
5.200000000000071,0.10142351306808901,0.06022184673057016
5.400000000000138,0.11019146192969681,0.06340122544481072
5.600000000000205,0.11719111868467297,0.06960015790911579
5.800000000000272,0.11671480073157833,0.06474853119627706
6.000000000000338,0.12090819725383152,0.06913866732377472
6.200000000000405,0.1272450204149747,0.07351521214548597
6.400000000000472,0.12968369459459206,0.06551729519985412
6.600000000000539,0.13162168133527083,0.055983957649707504
6.800000000000606,0.13397305193422732,0.056640301351383204
7.000000000000672,0.13849581873294026,0.06346794910598273
7.200000000000739,0.14401113549703443,0.06573157871542971
7.400000000000806,0.14920474690411742,0.05881443549243702
7.600000000000873,0.15721648046371756,0.06462959452615524
7.8000000000009395,0.15689729883196107,0.059706454419034626
8.000000000001005,0.15844817476120815,0.05844830015627603
8.200000000000895,0.16274489204977863,0.06051090758256377
8.400000000000784,0.16338725397120762,0.04978911152087386
8.600000000000673,0.1674478572069261,0.05449981610508593
8.800000000000562,0.1731319094231834,0.061427874110432594
9.000000000000451,0.17986813059550502,0.06595571366864458
9.20000000000034,0.18652534141172816,0.06797263066817251
9.40000000000023,0.19194701363099756,0.07229318015124257
9.600000000000119,0.19720898176810536,0.07839477200663007
9.800000000000008,0.1983133152425666,0.06405462957159348
10.000999999999896,0.20469128039826032,0.06125822075916701
10.200999999999786,0.2102750756907792,0.0651305580012212
10.400999999999675,0.20762380410178338,0.057447371100121894
10.600999999999564,0.20851021070968861,0.0488856613317408
10.800999999999453,0.21419956693809916,0.05233484773167955
11.000999999999342,0.21199621802447854,0.04547133866966777
11.200999999999231,0.21319870593082196,0.04246198503462138
11.40099999999912,0.2184970962388878,0.04600780929143932
11.60099999999901,0.22617345121418492,0.05009356889245968
11.800999999998899,0.23405487617383677,0.05608431900283115
12.000999999998788,0.24065479055644598,0.06105800280366862
12.200999999998677,0.23690186982010192,0.04868105926250306
12.400999999998566,0.2402931349146283,0.04789017304303309
12.600999999998455,0.2457802522949793,0.05167321221717929
12.800999999998345,0.2520278415396039,0.05084870122962353
13.000999999998234,0.25898398519677274,0.055915925219791295
13.200999999998123,0.25867248008062427,0.052266656359318805
13.400999999998012,0.2629763656756506,0.0553882345165915
13.600999999997901,0.2671510486564917,0.05427659432519898
13.80099999999779,0.2745014394673255,0.05830243390702273
14.00099999999768,0.282224068518919,0.06498590773091151
14.200999999997569,0.28513769977803716,0.06738016896899919
14.400999999997458,0.2928982146347941,0.07394216562230042
14.600999999997347,0.29391983117591136,0.06201502231054909
14.800999999997236,0.301524062061601,0.06407450458188542
15.000999999997125,0.30781750018833187,0.0695749718409772
15.200999999997014,0.31472649990912666,0.07580414483964648
15.400999999996904,0.3221337385801733,0.07463243727296817
15.600999999996793,0.32604026677994963,0.07740992747648937
15.800999999996682,0.33079937939189064,0.08163161979679959
16.000999999996573,0.33620671498484495,0.08447799635393868
16.200999999996817,0.3315422482709962,0.06790167729093623
16.40099999999706,0.33771937146980036,0.06936321838922731
16.600999999997306,0.34319661965971127,0.07518286872029445
16.80099999999755,0.3497547729286078,0.07668902370029722
17.000999999997795,0.35868906384769705,0.07682232556362122
17.20099999999804,0.3670657706660659,0.08244998297930389
17.400999999998284,0.3732304089048499,0.08569411125095147
17.60099999999853,0.37976949238380353,0.0860341703905009
17.800999999998773,0.3849863944835707,0.08812382848953619
18.000999999999017,0.39196069708749964,0.09333631814112998
18.20099999999926,0.39948480419439847,0.09545594004373557
18.400999999999506,0.40838038068917093,0.09864515278066897
18.60099999999975,0.41750884434592433,0.10407143875518113
18.799999999999994,0.42574801995870426,0.10562074068485139
19.000000000000238,0.4339353915331892,0.11001216728659807
19.200000000000482,0.43444608351301617,0.09987683039434063
19.400000000000727,0.44376536609322054,0.10150606254589398
19.60000000000097,0.450249489841486,0.1016646456118728
19.800000000001216,0.4602419043976955,0.10432521178725221
20.00000000000146,0.4681863108472645,0.108462058250562
