Time (s),X (m),Y (m)
0.001,-0.000795421750936344,0.00017906049427360518
0.20000000000000015,0.004875926072323359,-0.0009458142128536722
0.4000000000000003,0.008034302278623529,-0.0007047841913871752
0.6000000000000004,0.014511258421949372,-0.00401846789838114
0.8000000000000006,0.019664630034236682,-0.0041408920742105094
1.0000000000000007,0.023371136635600472,-0.005736505347663199
1.2009999999999785,0.029119167395333996,-0.00718997685691626
1.4009999999999565,0.035269507144602,-0.008637368054292757
1.6009999999999345,0.038893636864476326,-0.008511267450803134
1.8009999999999124,0.04217854036233555,-0.008617037683369343
2.0009999999998906,0.04778232097417503,-0.00795267920218139
2.2009999999998686,0.051863554811750645,-0.007122879016430369
2.4009999999998466,0.0564873883196516,-0.006845332459801113
2.6009999999998246,0.059693575804730864,-0.005980320272812398
2.8009999999998025,0.06394558306413176,-0.004424400241531022
3.0009999999997805,0.06591797461090804,-0.003689999351916472
3.2009999999997585,0.06710538490089406,-0.003125355063846123
3.4009999999997365,0.06915100232952189,-0.002493663750983611
3.6009999999997144,0.07083541061875999,-0.0018367584579193404
3.8009999999996924,0.0731023913159584,-0.0009561256137593209
4.000999999999671,0.07501163833734746,0.0002126105531383266
4.200999999999738,0.07734725597971241,0.0011297659360522232
4.400999999999804,0.07963930787716689,0.002018244865035919
4.600999999999871,0.08202285555933843,0.0030860401567220893
4.800999999999938,0.08405968888564472,0.004080256726696779
5.000000000000004,0.08586136143104847,0.005445909967113826
5.200000000000071,0.08839413319454664,0.006493590398986977
5.400000000000138,0.09008264117793459,0.007618619467255655
5.600000000000205,0.09129683886791946,0.009195489451470959
5.800000000000272,0.09363074204749289,0.010727410096617207
6.000000000000338,0.09524926211165921,0.01180361926625364
6.200000000000405,0.09737270040999141,0.013398652871889448
6.400000000000472,0.09946962302197378,0.01449576300602426
6.600000000000539,0.10153049906169662,0.01563059660478997
6.800000000000606,0.10335129609661198,0.016798993998571675
7.000000000000672,0.10602897761610944,0.018120659918665856
7.200000000000739,0.1081403157758545,0.019251932030288327
7.400000000000806,0.11020303855328824,0.02087234146690542
7.600000000000873,0.11205003567400414,0.022099550668049462
7.8000000000009395,0.1145551651756125,0.023539657319116423
8.000000000001005,0.11707888528059732,0.02490611171692936
8.200000000000895,0.11948034905604107,0.026563457156104003
8.400000000000784,0.12205407720073051,0.0282315464294103
8.600000000000673,0.12471062312473755,0.03008651039540554
8.800000000000562,0.1269597418602955,0.03195080083752291
9.000000000000451,0.12980265436391805,0.03396262449498325
9.20000000000034,0.13250255846562728,0.03593901238087535
9.40000000000023,0.13553920459276284,0.038039500404130316
9.600000000000119,0.13830802422749058,0.04035370545904173
9.800000000000008,0.1412203727868968,0.042728646845728475
10.000999999999896,0.14383625996976376,0.04505121014405529
10.200999999999786,0.14672954834666907,0.04751988315758838
10.400999999999675,0.1493883656636094,0.05010122967139578
10.600999999999564,0.15239864797571773,0.05282830423600036
10.800999999999453,0.15501261225358595,0.055444575780473265
11.000999999999342,0.15767829763845936,0.058316389321063596
11.200999999999231,0.16050511223100825,0.061152023930045867
11.40099999999912,0.16337950290381056,0.06420585512086238
11.60099999999901,0.16626999336482087,0.06716997158084717
11.800999999998899,0.16941814017189327,0.07051300141456313
12.000999999998788,0.17213020924049602,0.07350623203378862
12.200999999998677,0.17513480865157843,0.07676443153248662
12.400999999998566,0.17812428549396853,0.07997204956389735
12.600999999998455,0.1814108308502082,0.08350563823694698
12.800999999998345,0.18437012720431445,0.08677894986404677
13.000999999998234,0.18788774261961602,0.09073984705970616
13.200999999998123,0.1908613745394425,0.09410045591803927
13.400999999998012,0.19393091740647908,0.09753379088085419
13.600999999997901,0.19688849852650214,0.10145903330643366
13.80099999999779,0.20026807635908847,0.10519172341112888
14.00099999999768,0.20369550460743702,0.10865997889013375
14.200999999997569,0.20676036337738304,0.11232681156851727
14.400999999997458,0.20973667633091314,0.11593959142342132
14.600999999997347,0.21312856797757154,0.11983724971028581
14.800999999997236,0.21614814217962694,0.12352533570776575
15.000999999997125,0.21973066664001353,0.12716567115092017
15.200999999997014,0.2224824331171453,0.1311105180567858
15.400999999996904,0.22590334493581213,0.13540276202313434
15.600999999996793,0.2288003606492474,0.13988693349393763
15.800999999996682,0.2322843564808955,0.14435158198096615
16.000999999996573,0.23513466457305712,0.14869300503864746
16.200999999996817,0.2383084059486694,0.15348795861241346
16.40099999999706,0.24153975439084627,0.15806890129175252
16.600999999997306,0.24515392406535177,0.1623922418508473
16.80099999999755,0.2485879677385845,0.16619235116012496
17.000999999997795,0.2523623381563276,0.1705519553419321
17.20099999999804,0.25574725882456223,0.17491431428684756
17.400999999998284,0.25927081987769723,0.17940616949171115
17.60099999999853,0.2625302988753237,0.18411985802268718
17.800999999998773,0.26610521463725983,0.18866961422641637
18.000999999999017,0.2693343477912449,0.19295045890222984
18.20099999999926,0.27258500622975823,0.197939209776572
18.400999999999506,0.2759790727710698,0.2022712464748797
18.60099999999975,0.27923848536369716,0.2077521269795999
18.799999999999994,0.28262925240957526,0.2121700585083525
19.000000000000238,0.2865900642098363,0.21744857417165114
19.200000000000482,0.28988620631588213,0.22227663072622825
19.400000000000727,0.2934069962615547,0.22704502908192756
19.60000000000097,0.29671984439675586,0.23192446745604675
19.800000000001216,0.30051371698324963,0.23684979152292163
20.00000000000146,0.3037522075125427,0.24140204886956526
