Time (s),X (m),Y (m)
0.001,0.0010647643868879006,-0.0005914538325516239
0.20000000000000015,0.0017185123767847882,-0.0005591619470102186
0.4000000000000003,0.005895079867211206,0.007602679227373474
0.6000000000000004,0.026806737795209444,-0.001667949449549391
0.8000000000000006,0.05315525579584419,-0.01445479670122571
1.0000000000000007,0.0785281286013989,-0.03250179272476172
1.2009999999999785,0.11050842762317695,-0.07465891461369677
1.4009999999999565,0.14042365783862634,-0.10892840218517387
1.6009999999999345,0.16992202078135968,-0.13220353647293487
1.8009999999999124,0.18503792626824164,-0.1647997764912139
2.0009999999998906,0.21716489403055567,-0.19019123155669213
2.2009999999998686,0.23333177213288034,-0.2196111786627525
2.4009999999998466,0.22528248160203423,-0.24790473024506798
2.6009999999998246,0.2033836505947947,-0.27089743867474897
2.8009999999998025,0.17367595520854048,-0.28750934561061714
3.0009999999997805,0.1450437724121983,-0.2985999868912593
3.2009999999997585,0.11107969935769671,-0.30696272697937876
3.4009999999997365,0.07143050471643352,-0.29906515228293573
3.6009999999997144,0.029339870351426656,-0.29340175759480513
3.8009999999996924,-0.0071949100933865855,-0.29166076856281287
4.000999999999671,-0.025674417008121564,-0.2744557547221527
4.200999999999738,-0.024250938674958433,-0.228171356120457
4.400999999999804,-0.00808796384672963,-0.1687932129751573
4.600999999999871,0.023198243251619684,-0.11335414789766851
4.800999999999938,0.05809052135846058,-0.06000187680901986
5.000000000000004,0.11382105722790405,-0.028940619525055923
5.200000000000071,0.16227955372524247,-0.013412661698514756
5.400000000000138,0.2111275142305402,-0.00715065660401772
5.600000000000205,0.2620194574351976,-0.010581557336437666
5.800000000000272,0.31878831389118606,-0.029560937790430574
6.000000000000338,0.38273490561216483,-0.06425293198561544
6.200000000000405,0.4442586339239958,-0.09916812128361517
6.400000000000472,0.4859363291046189,-0.14558270385376693
6.600000000000539,0.4964937332972928,-0.19394118079962847
6.800000000000606,0.48131360231418957,-0.23769454980557042
7.000000000000672,0.4418961056860138,-0.2633073231026504
7.200000000000739,0.3939532204135653,-0.2587266506284886
7.400000000000806,0.34917098937525426,-0.24095647592736122
7.600000000000873,0.3137666394149793,-0.21622504728856423
7.8000000000009395,0.29639785546263075,-0.1650322487478682
8.000000000001005,0.2987009919691752,-0.10327340479838602
8.200000000000895,0.3130816723545742,-0.042112711987432404
8.400000000000784,0.33504475247509097,0.01564099785693592
8.600000000000673,0.36899061135993794,0.06391020364743077
8.800000000000562,0.4284165978290311,0.08746293661483309
9.000000000000451,0.5002827203172476,0.09343279615634752
9.20000000000034,0.5751327884658021,0.0824490373452102
9.40000000000023,0.641826554515656,0.050221764406880046
9.600000000000119,0.6953077498794895,0.002046332111146818
9.800000000000008,0.7403993573770057,-0.046792914298027434
10.000999999999896,0.7712562267989064,-0.1026201407620107
10.200999999999786,0.7768781417770331,-0.16346953991448887
10.400999999999675,0.7552189685516038,-0.23246962003031296
10.600999999999564,0.7295597818477144,-0.2988280861733145
10.800999999999453,0.6933881871877849,-0.3479098334627544
11.000999999999342,0.6488460248621633,-0.37156396045456946
11.200999999999231,0.5951326844060305,-0.3748932663518979
11.40099999999912,0.5573569634732549,-0.3618437233691028
11.60099999999901,0.5454701579321741,-0.32638508665982013
11.800999999998899,0.5498176718231141,-0.2685647897061649
12.000999999998788,0.5619999201648181,-0.20301128261430135
12.200999999998677,0.5819400006479198,-0.13103205700994697
12.400999999998566,0.5993479408261365,-0.05867194164971719
12.600999999998455,0.6079663181082963,0.004060173153293011
12.800999999998345,0.6188004435997366,0.0634505405628576
13.000999999998234,0.6486699012146817,0.11444629104073056
13.200999999998123,0.6882708382728487,0.1456762298995448
13.400999999998012,0.7371788314090989,0.15814789043212962
13.600999999997901,0.801121629373634,0.15790595590235895
13.80099999999779,0.8584900803103406,0.1455013777444711
14.00099999999768,0.9018143363036413,0.12786326048670504
14.200999999997569,0.9147430071487557,0.0990348674290096
14.400999999997458,0.8988045357584987,0.06320226518000117
14.600999999997347,0.8638690092173268,0.03690814885656942
14.800999999997236,0.8152760953558282,0.026980323874157813
15.000999999997125,0.7660308181338241,0.018893438214290383
15.200999999997014,0.720637378204358,0.012937132199908719
15.400999999996904,0.6730571344924622,0.009115914709937748
15.600999999996793,0.6246039486242846,0.02024359088607295
15.800999999996682,0.5739775378674392,0.03354687348626228
16.000999999996573,0.5359277210832609,0.06528738873243492
16.200999999996817,0.5144776575564703,0.1105941940722532
16.40099999999706,0.510230553319121,0.1605454117046213
16.600999999997306,0.5272413009039458,0.22726631103082556
16.80099999999755,0.5561072218891453,0.2945057681762205
17.000999999997795,0.5934774033124416,0.35639634477790183
17.20099999999804,0.6296711946841522,0.4096288908472149
17.400999999998284,0.6714603211187838,0.44736673746886635
17.60099999999853,0.7249352383397925,0.47066003701116554
17.800999999998773,0.7982686582964164,0.46666777558572453
18.000999999999017,0.8708839562353491,0.45173308297190545
18.20099999999926,0.9385021409708724,0.42321121937103506
18.400999999999506,0.9913588613501773,0.37935989883665905
18.60099999999975,1.017186388565889,0.3260869848287087
18.799999999999994,1.0088225860790516,0.26775566818489377
19.000000000000238,0.9867580246456615,0.21612157556530553
19.200000000000482,0.94518218913228,0.1854344396710954
19.400000000000727,0.8843179945256294,0.16988174938199
19.60000000000097,0.8124292447431261,0.17285066931100562
19.800000000001216,0.7426559925686979,0.18629043066950507
20.00000000000146,0.6698692246026124,0.19318439608787977
