Time (s),X (m),Y (m)
0.001,-4.680521708071185e-05,0.00099603208171127
0.20000000000000015,0.0028314934586960677,0.0025339418672995382
0.4000000000000003,0.010877089225891841,0.009258521025911945
0.6000000000000004,0.031325390032515006,0.019608133477656022
0.8000000000000006,0.06788956389331262,0.026085704151454288
1.0000000000000007,0.1197396617734868,0.022000716606239774
1.2009999999999785,0.17201710352493765,0.0050074796855254415
1.4009999999999565,0.1953420734957604,-0.02605937202472132
1.6009999999999345,0.2012862043777214,-0.07113432523207609
1.8009999999999124,0.19640072323775604,-0.12031962328590491
2.0009999999998906,0.17890435891735812,-0.1552115397632723
2.2009999999998686,0.14348348240869144,-0.13689644207234575
2.4009999999998466,0.09018476680997774,-0.10614478157437891
2.6009999999998246,0.02494099370621984,-0.07628450358246894
2.8009999999998025,-0.03375108089468287,-0.03968685238948821
3.0009999999997805,-0.07119354946288589,0.019029995885643008
3.2009999999997585,-0.09226493981986136,0.086653744692769
3.4009999999997365,-0.11440400157566213,0.15835188690508262
3.6009999999997144,-0.12122257823626503,0.23293681783478667
3.8009999999996924,-0.1392462124592531,0.30973182897226315
4.000999999999671,-0.14809774403437975,0.38893579474167733
4.200999999999738,-0.12479572703381057,0.4505878935374593
4.400999999999804,-0.08885191534259451,0.5209204256856272
4.600999999999871,-0.050351837445210906,0.5946422070140281
4.800999999999938,-0.00687021215849227,0.6417718405769562
5.000000000000004,0.050968929234748016,0.6486582007382953
5.200000000000071,0.1195354760146834,0.6419658725942482
5.400000000000138,0.1910043085197698,0.6356213465342065
5.600000000000205,0.25277131964249655,0.5994138804808748
5.800000000000272,0.3066425570650575,0.5542522395917119
6.000000000000338,0.3546270267840686,0.501203295196014
6.200000000000405,0.36260663501871904,0.4411397622803282
6.400000000000472,0.34268661560864067,0.3723599939319866
6.600000000000539,0.3083743579513272,0.3084049009596862
6.800000000000606,0.25762115963902593,0.2622144354842226
7.000000000000672,0.1953898466845543,0.2559598071264238
7.200000000000739,0.12198090559502128,0.2612889006400442
7.400000000000806,0.05460776677666668,0.2910469797066105
7.600000000000873,-0.014297925311162024,0.33760797318994407
7.8000000000009395,-0.05836345910647646,0.4008995980169923
8.000000000001005,-0.0628412287023876,0.46891682372865257
8.200000000000895,-0.05338229241698082,0.5410405642540111
8.400000000000784,-0.019583381874593832,0.6122581701476455
8.600000000000673,0.021877280136352997,0.6796224988322288
8.800000000000562,0.07372812610834424,0.737002053492765
9.000000000000451,0.1330257502440136,0.781763324836732
9.20000000000034,0.2011004445753189,0.7900118249881829
9.40000000000023,0.2658533191683971,0.7633463385745065
9.600000000000119,0.32332165876661356,0.7177274460150626
9.800000000000008,0.3789376516028326,0.6682918988749356
10.000999999999896,0.4328609033973461,0.6133327715739888
10.200999999999786,0.4673838059414845,0.5532036010053119
10.400999999999675,0.47202569191424715,0.4881687403917445
10.600999999999564,0.45705057327436266,0.4153598394245118
10.800999999999453,0.4238383057508153,0.3392647287090593
11.000999999999342,0.37566101033727756,0.2697534176016296
11.200999999999231,0.3010864146540835,0.21072347703035557
11.40099999999912,0.22040403147672083,0.15694441513849536
11.60099999999901,0.13635461209010627,0.1085740755802451
11.800999999998899,0.0528383150826055,0.07698270486457773
12.000999999998788,-0.028386204708012612,0.08433146078893655
12.200999999998677,-0.10419158045007941,0.12369626101071314
12.400999999998566,-0.17133056850431017,0.17249965211880822
12.600999999998455,-0.22429180642742655,0.23831947913201418
12.800999999998345,-0.26361670299904605,0.3169672563972358
13.000999999998234,-0.3030421022505897,0.3920568029803632
13.200999999998123,-0.3199711569314884,0.47056636469772245
13.400999999998012,-0.30362291885410925,0.5501722226533806
13.600999999997901,-0.2637093366716819,0.62039281867664
13.80099999999779,-0.20983988019968106,0.6758334630735608
14.00099999999768,-0.1492731592717482,0.7169040942672357
14.200999999997569,-0.08213425098360844,0.7343128696918536
14.400999999997458,-0.012431757425104889,0.7215637201285081
14.600999999997347,0.05303422133253321,0.6890947862711015
14.800999999997236,0.1156301470815305,0.6466383788935381
15.000999999997125,0.16554515691721816,0.6013191015607376
15.200999999997014,0.17927331981107156,0.546274767489625
15.400999999996904,0.19577361542290225,0.47921731657450245
15.600999999996793,0.18505538501155083,0.4055399693599729
15.800999999996682,0.1517372393057718,0.32873932219278496
16.000999999996573,0.12115717306573101,0.24945305583903649
16.200999999996817,0.0943010895901056,0.17446209680454114
16.40099999999706,0.06030486237314061,0.10130935274412704
16.600999999997306,0.01832658105382931,0.06098781416543171
16.80099999999755,-0.035795770400170145,0.05501555596476857
17.000999999997795,-0.10106852631410476,0.05996384017339077
17.20099999999804,-0.17459982232243323,0.07645822538462232
17.400999999998284,-0.24324719054887922,0.11831099907514882
17.60099999999853,-0.3099711674217504,0.17573409773545004
17.800999999998773,-0.38387505377697856,0.23122671495847869
18.000999999999017,-0.45310783886472017,0.29277347202364895
18.20099999999926,-0.5098244634506532,0.35499828658948185
18.400999999999506,-0.5295607075548333,0.4209026663445616
18.60099999999975,-0.5175598052362728,0.4943037603147665
18.799999999999994,-0.4805705044258327,0.5678641597104983
19.000000000000238,-0.4236336775869567,0.6404070948682345
19.200000000000482,-0.36154938161482153,0.70987279920327
19.400000000000727,-0.29657603589706044,0.7740835131765966
19.60000000000097,-0.221038873143951,0.8301594134765167
19.800000000001216,-0.13930159387485477,0.8620515560449111
20.00000000000146,-0.05840365241076008,0.8533948317964841
