Time (s),X (m),Y (m)
0.001,0.0011546366250239817,-0.00043579054991000363
0.20000000000000015,0.003596782708529073,-0.0013757624393414558
0.4000000000000003,0.007005906040705153,0.0008890336064417251
0.6000000000000004,0.011904548393492982,0.0009260270466440064
0.8000000000000006,0.043220104825643,-0.00723459479457699
1.0000000000000007,0.07371241236198843,-0.016413483284498293
1.2009999999999785,0.1107080099288243,-0.02723995678326732
1.4009999999999565,0.15106077540172944,-0.0487984039319908
1.6009999999999345,0.18532261718042486,-0.08396632333575496
1.8009999999999124,0.20331476147802247,-0.13623732644480663
2.0009999999998906,0.21639390621328236,-0.18069747068637385
2.2009999999998686,0.21678516945408685,-0.22599091754469802
2.4009999999998466,0.21601848011748648,-0.27321046343859623
2.6009999999998246,0.21239534137831306,-0.3176714433523171
2.8009999999998025,0.20349963924664546,-0.35693622622236426
3.0009999999997805,0.17661609878091067,-0.3786332747659399
3.2009999999997585,0.14104256466959106,-0.38988698655827747
3.4009999999997365,0.10113289253880905,-0.38723128717060196
3.6009999999997144,0.060793477334936015,-0.379562870230427
3.8009999999996924,0.011313805732559879,-0.36413067990578063
4.000999999999671,-0.04042897309497928,-0.3468208221329329
4.200999999999738,-0.09883581459540478,-0.3147263822660665
4.400999999999804,-0.15325660731879795,-0.2673794802753979
4.600999999999871,-0.19284838345678568,-0.2070913404773632
4.800999999999938,-0.21061815250596183,-0.14838337837929605
5.000000000000004,-0.20742422586514286,-0.09188688965913569
5.200000000000071,-0.18961521078254184,-0.02947805922911468
5.400000000000138,-0.15542833864462147,0.03299082365241488
5.600000000000205,-0.10842082076653844,0.07247287070020263
5.800000000000272,-0.05787942127021862,0.08584579902963069
6.000000000000338,-0.016320208054488652,0.07658870151846514
6.200000000000405,0.0010664197459412154,0.04307918424269863
6.400000000000472,0.007424202009019786,0.005660563044833986
6.600000000000539,0.002470119932252683,-0.03154617943873552
6.800000000000606,-0.02181062810026856,-0.062128626810113094
7.000000000000672,-0.05860606039377332,-0.07981167856468645
7.200000000000739,-0.1042915862653506,-0.08018884351804628
7.400000000000806,-0.1523341897625948,-0.07478615751388874
7.600000000000873,-0.1963396780013851,-0.05577463379349826
7.8000000000009395,-0.22154695508985542,-0.008534598795360695
8.000000000001005,-0.23170675795379106,0.043272111249598885
8.200000000000895,-0.2177384066032219,0.10131428378037553
8.400000000000784,-0.1919871862226691,0.16607601754726278
8.600000000000673,-0.1689923758353121,0.2297109585268309
8.800000000000562,-0.14809323412552636,0.2855128765890401
9.000000000000451,-0.12859123664032274,0.3233433972309058
9.20000000000034,-0.10008938130630797,0.34625924151146864
9.40000000000023,-0.06713100281553033,0.35229860021359327
9.600000000000119,-0.03234747009865779,0.3311728294615054
9.800000000000008,-0.001434029592275389,0.29282184964204905
10.000999999999896,0.009625928108476907,0.23445729727284556
10.200999999999786,-0.002082639526067528,0.171568580017685
10.400999999999675,-0.024323414315835665,0.11619556289454554
10.600999999999564,-0.03732903504336313,0.061586242078839594
10.800999999999453,-0.06162742746220315,0.0013181656993929039
11.000999999999342,-0.09186011094795567,-0.0622615673977872
11.200999999999231,-0.13211996267528367,-0.12640594270590322
11.40099999999912,-0.19465058073484948,-0.1832056294627949
11.60099999999901,-0.26790522269242295,-0.2183126881059883
11.800999999998899,-0.32776891007769005,-0.23549981132695177
12.000999999998788,-0.38361203035967517,-0.22028869433142625
12.200999999998677,-0.42370745054276665,-0.19541371600590568
12.400999999998566,-0.4356265259371775,-0.15179974468563803
12.600999999998455,-0.42430716893412845,-0.1017513262833357
12.800999999998345,-0.38850061206926856,-0.04670026226782975
13.000999999998234,-0.35459014037066333,-0.003361054112775775
13.200999999998123,-0.3018483760354155,0.008613679801056267
13.400999999998012,-0.24171546950160366,0.0030675982685380828
13.600999999997901,-0.18024405869446342,-0.020808237814614786
13.80099999999779,-0.11620080773286671,-0.053160359638182476
14.00099999999768,-0.05935047063232119,-0.0870403054425405
14.200999999997569,-0.027378282582770506,-0.12398119477248
14.400999999997458,-0.0266221479199163,-0.16337371430592681
14.600999999997347,-0.06133321453513359,-0.2032870965456352
14.800999999997236,-0.10568417341550843,-0.2294606778715475
15.000999999997125,-0.15606386130027153,-0.23894374518820366
15.200999999997014,-0.21087368884418053,-0.23054708834095142
15.400999999996904,-0.2631849131792428,-0.21599176321371394
15.600999999996793,-0.3241411339302386,-0.18666875386592474
15.800999999996682,-0.3926308262351654,-0.1477491796279668
16.000999999996573,-0.4615683421194888,-0.09718785922408325
16.200999999996817,-0.5114589249052289,-0.03843242808604258
16.40099999999706,-0.5320963985371312,0.026328235262492342
16.600999999997306,-0.5411961221637245,0.08135005524058866
16.80099999999755,-0.537261132541629,0.1385720526209605
17.000999999997795,-0.5138436574287574,0.1957255310451701
17.20099999999804,-0.48478779086831864,0.24899267404695632
17.400999999998284,-0.4587486444158424,0.2784340341558095
17.60099999999853,-0.41945739944346344,0.27067107316229805
17.800999999998773,-0.3704337924504407,0.2345097448456719
18.000999999999017,-0.3231576294279887,0.19876123507096186
18.20099999999926,-0.29350531596768736,0.1631690531910225
18.400999999999506,-0.2920041054554035,0.11312302674647404
18.60099999999975,-0.3049304728144007,0.06082913693466541
18.799999999999994,-0.327118372356103,0.0036721587748667957
19.000000000000238,-0.3534430872334187,-0.055596120083018896
19.200000000000482,-0.3885673996804295,-0.11775202088069456
19.400000000000727,-0.4276328613152661,-0.17967536478262558
19.60000000000097,-0.4764031423176925,-0.22126086436037298
19.800000000001216,-0.5277008059551866,-0.22890276591353678
20.00000000000146,-0.5797508687085903,-0.21228830194563775
