Time (s),X (m),Y (m)
0.001,-0.0007489004572251305,0.00035268032603768894
0.20000000000000015,0.0015168338255216482,-0.00024369696306829114
0.4000000000000003,0.006119184866923339,-0.0008180942460067127
0.6000000000000004,0.01555654732707704,-0.003906840602979377
0.8000000000000006,0.020661129484930665,-0.002600551561746042
1.0000000000000007,0.0280798660259591,0.0016508271289306356
1.2009999999999785,0.029965553165061026,0.0003191938510157495
1.4009999999999565,0.03777531529000712,0.003475515047536548
1.6009999999999345,0.042355131658624395,0.0014017111897039248
1.8009999999999124,0.047578201009507014,0.0017641477814413751
2.0009999999998906,0.059845138472088194,-8.464593140814598e-05
2.2009999999998686,0.0823577335288572,-0.004799080432031412
2.4009999999998466,0.0995596499084436,-0.009849191038684988
2.6009999999998246,0.10910264679554324,-0.012700497523598045
2.8009999999998025,0.12168183508294704,-0.01498108551414207
3.0009999999997805,0.13310819018403564,-0.015317372652332852
3.2009999999997585,0.14065669167478892,-0.018200889722565478
3.4009999999997365,0.14899213011791093,-0.020326088745973064
3.6009999999997144,0.15924065234068463,-0.022917064571363957
3.8009999999996924,0.1656504761225444,-0.02577470490995848
4.000999999999671,0.1725642035806677,-0.027480804732035645
4.200999999999738,0.18544532581451628,-0.03266985603652442
4.400999999999804,0.19866212402660519,-0.04061892359136816
4.600999999999871,0.21527989361037259,-0.04351201647609395
4.800999999999938,0.22978466971039455,-0.044693540222932274
5.000000000000004,0.24694104608590864,-0.04776564152682055
5.200000000000071,0.2636809706693336,-0.05190019337667464
5.400000000000138,0.2798007280541679,-0.05539147765322472
5.600000000000205,0.2894072065730408,-0.056560604745899905
5.800000000000272,0.29367941928016145,-0.0530702621288622
6.000000000000338,0.30228200321332604,-0.051930104622376974
6.200000000000405,0.3162037777933338,-0.05596582166334573
6.400000000000472,0.32797722960818015,-0.05533068861660346
6.600000000000539,0.3461739009265668,-0.06406581623031485
6.800000000000606,0.36497706606274005,-0.07272821546782662
7.000000000000672,0.3802713989935961,-0.07859431132238837
7.200000000000739,0.3950339083097395,-0.08360171952592003
7.400000000000806,0.40931110339520194,-0.08530331459108129
7.600000000000873,0.4245765636063306,-0.0917219884077535
7.8000000000009395,0.4468807152727884,-0.09895036509230185
8.000000000001005,0.46239220706920514,-0.10462386051677511
8.200000000000895,0.4737261513985775,-0.10829712433031125
8.400000000000784,0.48941803206368323,-0.11056149265873877
8.600000000000673,0.5029994507273766,-0.11876306639312222
8.800000000000562,0.5191570242386879,-0.12785714582579916
9.000000000000451,0.5392024732841321,-0.1368849100959263
9.20000000000034,0.5549032093138258,-0.1398480607336245
9.40000000000023,0.5711340529234123,-0.14448624282851155
9.600000000000119,0.5830961261499534,-0.1494832597149315
9.800000000000008,0.598581128190868,-0.153240713015222
10.000999999999896,0.615919679423869,-0.1581208455361165
10.200999999999786,0.629497948922382,-0.1629566892029119
10.400999999999675,0.6418220839889139,-0.16824501599162395
10.600999999999564,0.6583078854837182,-0.17418354567635838
10.800999999999453,0.671674726448718,-0.18160404214747725
11.000999999999342,0.6906407653802197,-0.19345417048999272
11.200999999999231,0.71155575411869,-0.20146814515714104
11.40099999999912,0.7313872730823584,-0.2084853256355659
11.60099999999901,0.7521585009849295,-0.21879911195153062
11.800999999998899,0.7689495405847497,-0.2253619236149848
12.000999999998788,0.7902859086235643,-0.23068440492951744
12.200999999998677,0.8075592227981104,-0.2401668479484668
12.400999999998566,0.823939206455263,-0.24718605956600104
12.600999999998455,0.8449539165361744,-0.258221062971182
12.800999999998345,0.8628957025978944,-0.26805829993688657
13.000999999998234,0.8770108461070472,-0.2724577089352853
13.200999999998123,0.8881419044722219,-0.28186238438463707
13.400999999998012,0.901843354809642,-0.2879457494312051
13.600999999997901,0.9164085175859786,-0.2995413908818127
13.80099999999779,0.9328928198627149,-0.30635322788860964
14.00099999999768,0.9498137461818014,-0.3196232566151626
14.200999999997569,0.9630490759548346,-0.32864835831763256
14.400999999997458,0.970730484101274,-0.339203403100468
14.600999999997347,0.9778774615367453,-0.34893676155118647
14.800999999997236,0.9920337871107395,-0.36278180797234233
15.000999999997125,1.0047639477459946,-0.3725485312810459
15.200999999997014,1.0112083564395629,-0.3857015972169265
15.400999999996904,1.0179841942182424,-0.4028707201332017
15.600999999996793,1.0231769998018692,-0.414614471604487
15.800999999996682,1.0219220476389177,-0.43008979386555085
16.000999999996573,1.0241276409346662,-0.4461354677448338
16.200999999996817,1.0231796208565487,-0.46598929838836367
16.40099999999706,1.022900380709286,-0.484687558839196
16.600999999997306,1.0210458849259112,-0.5057941613665913
16.80099999999755,1.019619365768842,-0.5209999366893172
17.000999999997795,1.0158092365991154,-0.5454354081253928
17.20099999999804,1.0103903779604944,-0.5629958038958206
17.400999999998284,1.0099856411572157,-0.5819116590085007
17.60099999999853,1.0050508705668861,-0.6001547113718378
17.800999999998773,0.9997466299001324,-0.6217648276114698
18.000999999999017,0.9961849825975513,-0.6395272542224033
18.20099999999926,0.9944785819127001,-0.655602161290413
18.400999999999506,0.9917218658493868,-0.674180492801456
18.60099999999975,0.9865675589100357,-0.6955725898595951
18.799999999999994,0.9804632636429583,-0.714726466049437
19.000000000000238,0.9705881400797707,-0.732337462989607
19.200000000000482,0.9598296196566313,-0.7558587503809455
19.400000000000727,0.9602878451388284,-0.7672062022494492
19.60000000000097,0.9583358620687533,-0.7819831895971411
19.800000000001216,0.951747527676857,-0.7977558743015273
20.00000000000146,0.9450439201481301,-0.8214210096054162
