Time (s),X (m),Y (m)
0.001,0.00048696676677933824,0.00099603208171127
0.20000000000000015,0.002887543700603582,0.00036499703823451813
0.4000000000000003,0.01304331041057593,0.0037965624379836457
0.6000000000000004,0.030465945966747336,0.006671113820516062
0.8000000000000006,0.06760813578163925,0.008487612897114822
1.0000000000000007,0.10162591562772828,-0.0006968185485840909
1.2009999999999785,0.1422473085547572,-0.01296417967091518
1.4009999999999565,0.19131689672590596,-0.021297302839816377
1.6009999999999345,0.24630850430658593,-0.016985522896424153
1.8009999999999124,0.3030850408570688,-0.008779548752428777
2.0009999999998906,0.36144709690198046,0.008285137205078768
2.2009999999998686,0.41499570650527945,0.01464637719744649
2.4009999999998466,0.4725453328445698,0.019601334016166313
2.6009999999998246,0.5289080295176548,0.02960902008868757
2.8009999999998025,0.592951416727588,0.04393936373464429
3.0009999999997805,0.659729200938303,0.05301492065270702
3.2009999999997585,0.7377135808980256,0.05683786475569588
3.4009999999997365,0.8018544817699007,0.04056705784940484
3.6009999999997144,0.8592786664712894,0.01934983781136339
3.8009999999996924,0.8992892786081096,-0.0037519592185867104
4.000999999999671,0.9434549723548528,-0.03780680741365493
4.200999999999738,0.9806604519045179,-0.0765374543979001
4.400999999999804,0.9955910817607267,-0.1205713139043813
4.600999999999871,0.9903658936249696,-0.18104024468716276
4.800999999999938,0.9633713582368342,-0.22177698443349483
5.000000000000004,0.9251879346520784,-0.2525846557075745
5.200000000000071,0.8798670206149851,-0.2865804051623357
5.400000000000138,0.8271750571039906,-0.3137536507573798
5.600000000000205,0.77167417850911,-0.33863426919996287
5.800000000000272,0.7132475423242147,-0.3741623430157537
6.000000000000338,0.6451221665715702,-0.40632009088355076
6.200000000000405,0.569671769725675,-0.4265300978768609
6.400000000000472,0.4960424549014902,-0.4346690066258126
6.600000000000539,0.41966520044796296,-0.438326052244798
6.800000000000606,0.34048516405845336,-0.4385243630397515
7.000000000000672,0.27979615434648186,-0.43423040347006825
7.200000000000739,0.2205911517066431,-0.4127931712080293
7.400000000000806,0.16393274470039426,-0.37689049316725276
7.600000000000873,0.1245220792181211,-0.3192759421283022
7.8000000000009395,0.10329394207372393,-0.25783042079468144
8.000000000001005,0.09381330031645171,-0.18803675339035392
8.200000000000895,0.10737997645904535,-0.11116827695849042
8.400000000000784,0.14707625834716162,-0.05021016166222735
8.600000000000673,0.1999467370141737,-0.018224086253832792
8.800000000000562,0.2560271929804192,0.009049991233007386
9.000000000000451,0.3141310857304769,0.0248752534396036
9.20000000000034,0.38644762211643824,0.041933473546441995
9.40000000000023,0.4682990940962557,0.05082767043331087
9.600000000000119,0.5434763620979833,0.0518776439061858
9.800000000000008,0.6075320975092443,0.04573956886053294
10.000999999999896,0.6916068829740284,0.035030135875356735
10.200999999999786,0.7529536971132685,0.022278287255973396
10.400999999999675,0.8002338757188059,-0.008363000707028922
10.600999999999564,0.8490025986646554,-0.06672522709102294
10.800999999999453,0.8921983771238062,-0.1455746352558847
11.000999999999342,0.92145183607939,-0.23169436066179563
11.200999999999231,0.9444904908817087,-0.30403827094976943
11.40099999999912,0.9497079265092164,-0.37365963296737803
11.60099999999901,0.9271697674588626,-0.4202631679256918
11.800999999998899,0.8750476817224732,-0.47383520070058543
12.000999999998788,0.8181493986217521,-0.5217147999779558
12.200999999998677,0.7650558516617079,-0.5484367068314991
12.400999999998566,0.7059167876925739,-0.5629097673410275
12.600999999998455,0.6441452301565204,-0.588274382135647
12.800999999998345,0.575659211445125,-0.6131673394598134
13.000999999998234,0.48708189082772774,-0.6437208990651767
13.200999999998123,0.38964584940392916,-0.6745424917518437
13.400999999998012,0.2921506415855402,-0.7142900300109791
13.600999999997901,0.2023506625777351,-0.7575980355683971
13.80099999999779,0.1239648413710148,-0.7906473090506112
14.00099999999768,0.06091165326612949,-0.8017244368104409
14.200999999997569,0.000892715770577993,-0.7908663783048087
14.400999999997458,-0.04995685596303024,-0.7593739881894311
14.600999999997347,-0.10620883819478484,-0.7135795826997643
14.800999999997236,-0.1470670332695354,-0.6488382397787993
15.000999999997125,-0.179402525853463,-0.5741535781014167
15.200999999997014,-0.21167616218520158,-0.493180747744595
15.400999999996904,-0.23810276681644654,-0.4139889090666353
15.600999999996793,-0.2474087100865448,-0.3489418863647476
15.800999999996682,-0.24581965393349084,-0.2883843373060548
16.000999999996573,-0.2430625461275218,-0.2223914919932544
16.200999999996817,-0.23362608687838715,-0.13748825624725386
16.40099999999706,-0.21062422396746402,-0.07034028954423492
16.600999999997306,-0.17663579417232766,-0.03451381953754093
16.80099999999755,-0.13449419411191574,0.019533636762237752
17.000999999997795,-0.07947640105114046,0.07575454147529279
17.20099999999804,-0.009594509636455632,0.1191825368443562
17.400999999998284,0.0747049439031868,0.1577464377988885
17.60099999999853,0.15879570099235393,0.19003280487854177
17.800999999998773,0.22502108655130484,0.23433590641849072
18.000999999999017,0.2748587112470596,0.28716624174085287
18.20099999999926,0.3315530597122984,0.3277399212964386
18.400999999999506,0.4031898536403082,0.36207507222610896
18.60099999999975,0.4766579866482195,0.40292346133158125
18.799999999999994,0.5539606362117744,0.4397486921122736
19.000000000000238,0.636388479946784,0.4664181648900741
19.200000000000482,0.7182246592193126,0.4882454975380478
19.400000000000727,0.8050676658540771,0.5067434192889955
19.60000000000097,0.8928928513333317,0.5321493302616287
19.800000000001216,0.9843157170512847,0.5768151585438572
20.00000000000146,1.0773866001522916,0.6271079749293279
