Time (s),X (m),Y (m)
0.001,-0.0006729371591054965,0.000515584144559974
0.20000000000000015,0.0022785757657547813,0.00013604572965716084
0.4000000000000003,0.010370872126596747,0.000154629909809909
0.6000000000000004,0.02845110508675787,0.0028811809268696276
0.8000000000000006,0.05896219199001983,0.0069589658256751325
1.0000000000000007,0.09156688545367722,0.009053744602062309
1.2009999999999785,0.12847652161157452,0.005431615747209505
1.4009999999999565,0.1721999300869971,-0.0062675874745786704
1.6009999999999345,0.21977465553268813,-0.02775826418481822
1.8009999999999124,0.25998439401122,-0.03889041275767864
2.0009999999998906,0.290682785344727,-0.07213737748974865
2.2009999999998686,0.31714366497605045,-0.11787101478587866
2.4009999999998466,0.32743005530890507,-0.17456642589853735
2.6009999999998246,0.33015127882159856,-0.22717185634681586
2.8009999999998025,0.3272927260641294,-0.28176682557687693
3.0009999999997805,0.32466217380292767,-0.33442701955823134
3.2009999999997585,0.31814920596019663,-0.39132311773260364
3.4009999999997365,0.3071994005184453,-0.4470601990484181
3.6009999999997144,0.28288954594410454,-0.507014566466804
3.8009999999996924,0.2544682861144482,-0.5648096702582398
4.000999999999671,0.21570275777891113,-0.6076462376035284
4.200999999999738,0.18028645190616727,-0.6393949013287465
4.400999999999804,0.13875167208669112,-0.6549594119646616
4.600999999999871,0.08837485418992928,-0.6524381443521323
4.800999999999938,0.03173265409928661,-0.6303469258380374
5.000000000000004,-0.022167454770053954,-0.5965440519136419
5.200000000000071,-0.0614604737429084,-0.5556553254703429
5.400000000000138,-0.07773943433866945,-0.5015020839866949
5.600000000000205,-0.05539346547268675,-0.45081858031378846
5.800000000000272,-0.02483998799754629,-0.41203963308212543
6.000000000000338,0.02875130382230796,-0.3994153444599656
6.200000000000405,0.08682949184168302,-0.4019791029038394
6.400000000000472,0.14557921398689802,-0.41941196673971415
6.600000000000539,0.20246633488139515,-0.44848164531501733
6.800000000000606,0.23414479006915886,-0.4775111897409155
7.000000000000672,0.25396261317062885,-0.5072081699755543
7.200000000000739,0.2631726100425896,-0.5473863900814321
7.400000000000806,0.2549878996833419,-0.6020528190252209
7.600000000000873,0.23992912349718587,-0.6649569171573158
7.8000000000009395,0.21412209486178285,-0.7242694501019645
8.000000000001005,0.16925347338440883,-0.7719420393308326
8.200000000000895,0.11151382919885462,-0.7879269955815895
8.400000000000784,0.05290654292958003,-0.7919522270936586
8.600000000000673,-0.009522404613643549,-0.7880375938565922
8.800000000000562,-0.056370060203174185,-0.7432275383627058
9.000000000000451,-0.071181758439278,-0.6621582833839543
9.20000000000034,-0.059955047496379414,-0.574677016142185
9.40000000000023,-0.03125538885871426,-0.48823070799153995
9.600000000000119,0.0099708381037486,-0.4263057555855346
9.800000000000008,0.050153299247381204,-0.38706242843702576
10.000999999999896,0.09903258778358712,-0.3752183866291652
10.200999999999786,0.16279617349362624,-0.38837430195551076
10.400999999999675,0.2323302007609153,-0.4051256041909351
10.600999999999564,0.3058567032178022,-0.43333573277987464
10.800999999999453,0.3648490909781746,-0.4573568505746762
11.000999999999342,0.39915592425874075,-0.5068901507580166
11.200999999999231,0.41674982954389744,-0.5584751512958236
11.40099999999912,0.4166119011592213,-0.6197943145566532
11.60099999999901,0.39900425118459926,-0.6877327740577246
11.800999999998899,0.3522584645944931,-0.7475541141453371
12.000999999998788,0.2999081256322305,-0.7898858494674599
12.200999999998677,0.2446015285951291,-0.8024303705531017
12.400999999998566,0.19175007416185616,-0.7794873702586922
12.600999999998455,0.14823482237637434,-0.7330042777383022
12.800999999998345,0.12362006620777033,-0.67404140499094
13.000999999998234,0.11414162477913764,-0.614617636992642
13.200999999998123,0.12729097925750113,-0.5496942744757963
13.400999999998012,0.15329760303884252,-0.48133591601801806
13.600999999997901,0.19544681692774363,-0.4086376481892742
13.80099999999779,0.2420960963227329,-0.3423988025557799
14.00099999999768,0.29884773035975226,-0.30020705127981223
14.200999999997569,0.3669831274667366,-0.29308425707034214
14.400999999997458,0.4366962593904544,-0.296602552711274
14.600999999997347,0.49446835231591374,-0.3226864154067434
14.800999999997236,0.5263491057881118,-0.36586809762144024
15.000999999997125,0.5417931805521767,-0.4165666529452418
15.200999999997014,0.5430860754290464,-0.4714475532967494
15.400999999996904,0.5250445892383839,-0.5406290644815056
15.600999999996793,0.47451390042832337,-0.6093528574900972
15.800999999996682,0.4064278786540584,-0.6474601056399881
16.000999999996573,0.3426499818126486,-0.6622992137625551
16.200999999996817,0.2725136485943132,-0.653849961622686
16.40099999999706,0.20312097536193938,-0.6281693414142245
16.600999999997306,0.1474556828852655,-0.5767982160009688
16.80099999999755,0.13094977502122798,-0.5146896315530561
17.000999999997795,0.14384756280626604,-0.43746661269576975
17.20099999999804,0.17200305199882981,-0.3619524158304594
17.400999999998284,0.22818131925514623,-0.29587031660947066
17.60099999999853,0.29250972769312533,-0.2562064126708681
17.800999999998773,0.3697804823439841,-0.24403355621293
18.000999999999017,0.4330000527782576,-0.23614865864352028
18.20099999999926,0.49696619207974374,-0.23831937317556348
18.400999999999506,0.564472151459774,-0.2515987883354361
18.60099999999975,0.6156651600569053,-0.2988272961915652
18.799999999999994,0.6348691028813321,-0.35924373038316826
19.000000000000238,0.6269018561148593,-0.42512382734037013
19.200000000000482,0.6085996720187279,-0.49008549377663996
19.400000000000727,0.5643731018579671,-0.5389518348492243
19.60000000000097,0.5037527068320908,-0.5639610164995833
19.800000000001216,0.4458941794717587,-0.567610234671917
20.00000000000146,0.3864424515210958,-0.5546197429459523
