Time (s),X (m),Y (m)
0.001,-0.00013259955118837574,-0.0009689812320744441
0.20000000000000015,-0.0010078881268537083,-0.004882376367113587
0.4000000000000003,0.0017969066772307019,-0.004735208855867067
0.6000000000000004,0.0060387962920965856,0.0026039218516724907
0.8000000000000006,0.010070385239797093,-0.0011150432191172914
1.0000000000000007,0.014924080056518312,0.00045112394018009035
1.2009999999999785,0.019586382902431608,0.0034194495059845114
1.4009999999999565,0.025127740060404902,0.0049029463784472024
1.6009999999999345,0.030066168788272056,0.004027707194677531
1.8009999999999124,0.0344129476642781,0.006660601270556197
2.0009999999998906,0.03855673927049172,0.01072987997791163
2.2009999999998686,0.04223779247436731,0.01211725475318434
2.4009999999998466,0.04633663485165154,0.01464842167518303
2.6009999999998246,0.050694412470999574,0.017119223734901472
2.8009999999998025,0.055363514375062185,0.018577978621524695
3.0009999999997805,0.059189033048213886,0.01915586254874664
3.2009999999997585,0.06319495628815137,0.024133395366798094
3.4009999999997365,0.06723686775233835,0.022293714000364357
3.6009999999997144,0.07221567744030771,0.026236317464944148
3.8009999999996924,0.07578212276786628,0.03280709797827646
4.000999999999671,0.07798065899498843,0.03425730740636878
4.200999999999738,0.0818760206687611,0.037895207960593716
4.400999999999804,0.08617564078835802,0.04101436981950017
4.600999999999871,0.08792302294219595,0.045094501607816626
4.800999999999938,0.09139522111470114,0.050166972296677034
5.000000000000004,0.09376206494383231,0.05591290150978497
5.200000000000071,0.09688461867231471,0.05846227154505723
5.400000000000138,0.09842481180017595,0.06190736919416642
5.600000000000205,0.10211067113503097,0.06625803121532403
5.800000000000272,0.10362632487873918,0.07204118435365912
6.000000000000338,0.10709383532614469,0.07809350618702994
6.200000000000405,0.10773838187078359,0.08531435206520475
6.400000000000472,0.10822838357737072,0.09030966546235869
6.600000000000539,0.11167093232310422,0.09359483854051413
6.800000000000606,0.11125579689604921,0.10141960728729374
7.000000000000672,0.11370548391868339,0.10644320502074678
7.200000000000739,0.11610074863176847,0.11014527810701824
7.400000000000806,0.12020678872676681,0.11300552517556436
7.600000000000873,0.1211412403666789,0.11791182296313699
7.8000000000009395,0.12227983860697555,0.12381379326268854
8.000000000001005,0.12259741846680232,0.12998382142053969
8.200000000000895,0.12042625476062485,0.13659688223063085
8.400000000000784,0.11842988785797796,0.1425187541046489
8.600000000000673,0.11912058205905812,0.14820512281988216
8.800000000000562,0.11745033181597643,0.15502563663314034
9.000000000000451,0.11316882301876562,0.16149926075076268
9.20000000000034,0.11317330283126906,0.16723732031170122
9.40000000000023,0.10956710563341966,0.1731781886122456
9.600000000000119,0.10676107560857419,0.17861920987831945
9.800000000000008,0.10458000235030948,0.18484421880989646
10.000999999999896,0.10592858351993496,0.19059089915577973
10.200999999999786,0.10337985251552297,0.19652725855062297
10.400999999999675,0.1016088710389214,0.20206536213124213
10.600999999999564,0.10087377459144557,0.2086562885945266
10.800999999999453,0.09871735141950164,0.21316145310768786
11.000999999999342,0.09748087325445226,0.21831813758471474
11.200999999999231,0.09379057904496116,0.2232524511183396
11.40099999999912,0.09042484881825535,0.22752044415567063
11.60099999999901,0.08908424582114437,0.2314505611115837
11.800999999998899,0.08659831733718303,0.2346659031967564
12.000999999998788,0.0861680931659884,0.23868461213331524
12.200999999998677,0.08485215671771755,0.24281298982241692
12.400999999998566,0.08404532605084127,0.24606096125935986
12.600999999998455,0.08253277248068007,0.24880208944027413
12.800999999998345,0.07753380586491125,0.2526704502317097
13.000999999998234,0.0725375309863037,0.25531651018995183
13.200999999998123,0.06736187254411091,0.2576197167240327
13.400999999998012,0.06355679637487309,0.2601199179596369
13.600999999997901,0.06125347303077509,0.26447464092226086
13.80099999999779,0.056742473932152745,0.268724238884035
14.00099999999768,0.05265328417471104,0.2725054189280265
14.200999999997569,0.04850896761207218,0.2766425910307093
14.400999999997458,0.04285093999117429,0.2787695645486761
14.600999999997347,0.03838456881700176,0.28150851659479875
14.800999999997236,0.03454835805474028,0.28561416139290774
15.000999999997125,0.030398927669373924,0.2876868514572976
15.200999999997014,0.026288961221208548,0.28928050913137765
15.400999999996904,0.020311689023518383,0.29093743694356317
15.600999999996793,0.015096692422055281,0.2942185566210393
15.800999999996682,0.011411309512241806,0.2976388433076486
16.000999999996573,0.0034949951191916824,0.29902543141084276
16.200999999996817,-0.002249259415979681,0.2980628259444751
16.40099999999706,-0.00780726554620523,0.29791351185344334
16.600999999997306,-0.014926905211594952,0.29783430571154684
16.80099999999755,-0.021034809579996056,0.2983690682328855
17.000999999997795,-0.02874621382089347,0.29688297056930585
17.20099999999804,-0.03791421954795469,0.2917965516486666
17.400999999998284,-0.04366371166721576,0.292798274267623
17.60099999999853,-0.0502547459805492,0.29320883679241
17.800999999998773,-0.05623047144696735,0.2909429398205877
18.000999999999017,-0.06199611185566344,0.29281316332120355
18.20099999999926,-0.06891968924326583,0.2914291204646779
18.400999999999506,-0.07495063865523043,0.2908183258341693
18.60099999999975,-0.08102642011310109,0.28917045331277297
18.799999999999994,-0.08760487539426004,0.28753753267729093
19.000000000000238,-0.09351549800949958,0.2869429325369847
19.200000000000482,-0.09965049540284428,0.2865630807919153
19.400000000000727,-0.10549241744333306,0.2854821210398384
19.60000000000097,-0.11241551892294482,0.2836495592496899
19.800000000001216,-0.11806654276842773,0.28239681710737935
20.00000000000146,-0.12289921441190195,0.2770120186787402
