Time (s),X (m),Y (m)
0.001,-0.00021570977506068912,-0.0009345558501746678
0.20000000000000015,0.006175091656004345,0.005787303598420723
0.4000000000000003,0.0192475952451526,0.013061659558387114
0.6000000000000004,0.036036633863725624,0.019857984660105788
0.8000000000000006,0.05425723774865878,0.020381888652882346
1.0000000000000007,0.07543693359695466,0.013243604770741131
1.2009999999999785,0.10393579259458191,0.00527558832803032
1.4009999999999565,0.12979844084976197,-0.00474250741022538
1.6009999999999345,0.16238744886570367,-0.0030612069235797347
1.8009999999999124,0.19325244057264104,-0.004686006420801399
2.0009999999998906,0.2231825911441887,-0.006180982934263449
2.2009999999998686,0.2573161676269881,0.00020252957358014086
2.4009999999998466,0.29380101335948583,0.011047107162985697
2.6009999999998246,0.3175813802821238,0.011682639476310595
2.8009999999998025,0.3523521782067122,0.011377185619281999
3.0009999999997805,0.38781431353682694,0.016128433254601064
3.2009999999997585,0.4274633507891375,0.018673396531273125
3.4009999999997365,0.46779420447729175,0.024942278719292207
3.6009999999997144,0.5041367165420689,0.02919050787501881
3.8009999999996924,0.5407643846575274,0.027306585417154184
4.000999999999671,0.5840963193648351,0.0296557119441846
4.200999999999738,0.6291138382266861,0.03695098041126384
4.400999999999804,0.6686321056702844,0.047793899139578315
4.600999999999871,0.706792928621995,0.05592820647126008
4.800999999999938,0.7382191970398493,0.05974959750075846
5.000000000000004,0.7663822182368301,0.05291279361340605
5.200000000000071,0.80056920320237,0.05523969275577188
5.400000000000138,0.8439048262505935,0.060275407364541594
5.600000000000205,0.880025360345073,0.07405805179808476
5.800000000000272,0.9235346659644091,0.09776087467961626
6.000000000000338,0.9703395876839189,0.11691427344982508
6.200000000000405,1.0180489846356369,0.13417876022871084
6.400000000000472,1.0631558634447094,0.15079661189831225
6.600000000000539,1.1029660457662118,0.1644953149994099
6.800000000000606,1.148364626376579,0.17656048038706876
7.000000000000672,1.1966828935243454,0.1886302041008804
7.200000000000739,1.2403058630374355,0.19704890551106244
7.400000000000806,1.281873054652929,0.20910904368344213
7.600000000000873,1.3260661389761674,0.21620158351994934
7.8000000000009395,1.3718973938223666,0.23133965522116656
8.000000000001005,1.4096190939009687,0.23709195444733708
8.200000000000895,1.45181237603557,0.24297570152804257
8.400000000000784,1.4937947519000232,0.24264258025923802
8.600000000000673,1.538522237064547,0.25014902682024015
8.800000000000562,1.586667029336633,0.25866651649552275
9.000000000000451,1.6365468448241,0.2836920213779951
9.20000000000034,1.6802753495343805,0.2912288857999363
9.40000000000023,1.725228632093378,0.31240294076542907
9.600000000000119,1.7705977580997874,0.33668878006602593
9.800000000000008,1.812801197286216,0.34248259657438357
10.000999999999896,1.8518034214592265,0.35296309050216057
10.200999999999786,1.89128802473554,0.36571835361224553
10.400999999999675,1.9324844282093385,0.3862260215742755
10.600999999999564,1.9795223432023072,0.40122958584556945
10.800999999999453,2.0239844391199115,0.41696477315306474
11.000999999999342,2.0616335317515575,0.42815188569033896
11.200999999999231,2.0928853305349375,0.4301299125672389
11.40099999999912,2.118355262292928,0.4318634336290137
11.60099999999901,2.159007351028002,0.43929989374881645
11.800999999998899,2.203870909830342,0.4511734715037758
12.000999999998788,2.2518212202343695,0.46534249664066923
12.200999999998677,2.2981840989338984,0.4728556644211132
12.400999999998566,2.3429214106863356,0.4782060268459085
12.600999999998455,2.386726641845549,0.4929431872764697
12.800999999998345,2.4268739379057065,0.5040521381924906
13.000999999998234,2.464569616493557,0.5145996787278339
13.200999999998123,2.4969121192836385,0.524226663756167
13.400999999998012,2.5298550154363513,0.5294426895311541
13.600999999997901,2.5683520330899836,0.5338849418644107
13.80099999999779,2.611320644943117,0.5316352523402915
14.00099999999768,2.666912802374927,0.5359012871098349
14.200999999997569,2.7199990590565712,0.534286085100537
14.400999999997458,2.778755904528039,0.535377290414097
14.600999999997347,2.818221790720512,0.531958967742102
14.800999999997236,2.8616871411449885,0.5189133221428995
15.000999999997125,2.90079018555035,0.5011062410540548
15.200999999997014,2.931955912683483,0.4802853776196545
15.400999999996904,2.9437929154126232,0.44926012487020167
15.600999999996793,2.9655567516675854,0.4074486427539271
15.800999999996682,2.987207621134537,0.3582213763890199
16.000999999996573,3.0056241480050847,0.30213624274420475
16.200999999996817,3.0250591543312213,0.2556121179709727
16.40099999999706,3.0448698255905042,0.20783331134991656
16.600999999997306,3.056365280362566,0.1593581656881692
16.80099999999755,3.0856771762129607,0.11181340689871413
17.000999999997795,3.1196111000475173,0.07100378220470636
17.20099999999804,3.139925662064064,0.02935443337062766
17.400999999998284,3.1702200907253273,-0.012303544655861923
17.60099999999853,3.2023279563489244,-0.0554321509014205
17.800999999998773,3.2397975610310845,-0.09711352128631204
18.000999999999017,3.2651462421910806,-0.13533924858568144
18.20099999999926,3.2936510469204032,-0.16477020285860614
18.400999999999506,3.3243971910455197,-0.1962990752005859
18.60099999999975,3.363665619615003,-0.2219322023241851
18.799999999999994,3.416208373656775,-0.23893589911448476
19.000000000000238,3.46719321691822,-0.25194025917148527
19.200000000000482,3.5165614698469665,-0.2689635489561302
19.400000000000727,3.5774163814228808,-0.2790367576017899
19.60000000000097,3.6351582682762276,-0.2816409585225957
19.800000000001216,3.689540156965484,-0.2838117207521541
20.00000000000146,3.740593551109052,-0.28593109105434067
