Time (s),X (m),Y (m)
0.001,0.0010100015126501532,0.0006628221997479689
0.20000000000000015,-0.0013052031052185843,-0.0022392791935532154
0.4000000000000003,0.0010283117047357412,-0.0025648474715876143
0.6000000000000004,0.006991151809743834,-0.0016726298839841
0.8000000000000006,0.009882556427019958,-0.0009593666581959722
1.0000000000000007,0.014161880891087213,0.00019187589590646193
1.2009999999999785,0.019216483404720968,0.002097109229338558
1.4009999999999565,0.02419463920669057,0.004991409774514621
1.6009999999999345,0.029346176566208793,0.0071121545675778275
1.8009999999999124,0.03421593952418955,0.010607076377616311
2.0009999999998906,0.03916464066105872,0.014317755488887066
2.2009999999998686,0.0448452705293996,0.017570489975092918
2.4009999999998466,0.05068169756469238,0.02168152909884447
2.6009999999998246,0.05547533872716295,0.024797411481699567
2.8009999999998025,0.061175926051935274,0.02979543161974853
3.0009999999997805,0.06560846130022352,0.03210568260917451
3.2009999999997585,0.07059198267053719,0.03716822495027299
3.4009999999997365,0.07606944992581569,0.04308365940473889
3.6009999999997144,0.08080046071823711,0.04779214767225826
3.8009999999996924,0.08549598242713416,0.053074130546708835
4.000999999999671,0.09072521042413267,0.05847189509647495
4.200999999999738,0.09577950504190308,0.0638213403231341
4.400999999999804,0.09991975767212113,0.06832566207450214
4.600999999999871,0.10392280741282268,0.07423122607181395
4.800999999999938,0.107847523482572,0.080155490763347
5.000000000000004,0.11073337059619168,0.08573988609625427
5.200000000000071,0.11314894519654471,0.0915528237359037
5.400000000000138,0.11518124756842187,0.09709631023038996
5.600000000000205,0.11669640257806349,0.10283513903594968
5.800000000000272,0.11789379738935271,0.10915454510077285
6.000000000000338,0.11858975784863993,0.11556988304005933
6.200000000000405,0.11889927000244889,0.12147752824842163
6.400000000000472,0.1186911450636182,0.12722440206392485
6.600000000000539,0.11790753558244699,0.13469173162713052
6.800000000000606,0.11785848930901206,0.1422421107462163
7.000000000000672,0.11666701269267214,0.14881304859397484
7.200000000000739,0.11574062162781895,0.15547878577727348
7.400000000000806,0.1138825737300384,0.16286649428172026
7.600000000000873,0.11199589739592179,0.16941742215084804
7.8000000000009395,0.10952315749950961,0.17679457394003079
8.000000000001005,0.10668582949205567,0.184589107613004
8.200000000000895,0.10381656708887305,0.19079789691854854
8.400000000000784,0.10098885107479788,0.19769335924977385
8.600000000000673,0.09785653324480523,0.20461080315717223
8.800000000000562,0.09435603479673933,0.21123533783197992
9.000000000000451,0.09122241987342761,0.21837335254677462
9.20000000000034,0.08733552106993153,0.22490053585661168
9.40000000000023,0.08317184953784397,0.23126480548886585
9.600000000000119,0.07771719465513668,0.2390448124473204
9.800000000000008,0.0727259572542361,0.24480024916151502
10.000999999999896,0.06732819848841541,0.2516332409986641
10.200999999999786,0.061782589410282675,0.2575338326411712
10.400999999999675,0.05623500077351841,0.26332294045757876
10.600999999999564,0.050793832518896694,0.26794758707674005
10.800999999999453,0.0456097906125013,0.27278100318446086
11.000999999999342,0.03956823437533077,0.2776467869307154
11.200999999999231,0.03379049213198989,0.2820212052979614
11.40099999999912,0.02773821596876483,0.2856323374107624
11.60099999999901,0.023635826225490986,0.2884786477036059
11.800999999998899,0.017943911824983737,0.29091021619895596
12.000999999998788,0.011391060790919727,0.29357659585939755
12.200999999998677,0.00615548353556082,0.29518066800314524
12.400999999998566,-0.000408482210823073,0.29640479621654664
12.600999999998455,-0.007955333102895444,0.29674623269601746
12.800999999998345,-0.015107842872317728,0.29673910160248573
13.000999999998234,-0.02172728473906199,0.29737176450780833
13.200999999998123,-0.02870775890870733,0.2971123552354091
13.400999999998012,-0.03612472587716032,0.2960640015292433
13.600999999997901,-0.04308772411482906,0.2953126277557572
13.80099999999779,-0.050631608962714125,0.29389181463945185
14.00099999999768,-0.05784514980879109,0.29174946633213134
14.200999999997569,-0.0650842130622807,0.28938176095178547
14.400999999997458,-0.07334230688697317,0.2867674594136636
14.600999999997347,-0.08101438192564234,0.2842471171042849
14.800999999997236,-0.08792813962098386,0.2809488551446962
15.000999999997125,-0.09491472632088863,0.27798878938260624
15.200999999997014,-0.10303060117796817,0.2744544378071379
15.400999999996904,-0.11105421958227671,0.26913753359984294
15.600999999996793,-0.11817978056307817,0.2653436992566185
15.800999999996682,-0.12388353720938518,0.26086337912792185
16.000999999996573,-0.1312167884041996,0.2551258748186004
16.200999999996817,-0.13747213891539914,0.2505000864603629
16.40099999999706,-0.14421357218123543,0.244273481761102
16.600999999997306,-0.1506793399228083,0.23884407322915607
16.80099999999755,-0.15683235759071268,0.23311852254545926
17.000999999997795,-0.1620738444715262,0.22785621997799949
17.20099999999804,-0.16704265125309983,0.22222113550345257
17.400999999998284,-0.17216173321185568,0.21623952456139345
17.60099999999853,-0.1766815076582147,0.210270862093414
17.800999999998773,-0.18063205600852617,0.20365823122280308
18.000999999999017,-0.18384873478422017,0.197404701200119
18.20099999999926,-0.1866242864689245,0.19282782142180968
18.400999999999506,-0.1885774420723776,0.18777404779881177
18.60099999999975,-0.1905653384006864,0.18099316607858998
18.799999999999994,-0.19176374047082895,0.17415870573376743
19.000000000000238,-0.19245871319023614,0.16885212316638323
19.200000000000482,-0.19326778003504286,0.1624006077392054
19.400000000000727,-0.19336209258917367,0.15570215532618725
19.60000000000097,-0.19305955570788966,0.15025430922584204
19.800000000001216,-0.1924292843246455,0.1448913290849664
20.00000000000146,-0.19156335789605114,0.13744543277113358
