Time (s),X (m),Y (m)
0.001,-0.000795421750936344,-0.00017906049427360483
0.20000000000000015,0.00579916716695004,0.0003986018950471783
0.4000000000000003,0.01302792584634688,0.0028674348440427535
0.6000000000000004,0.013644219266610831,0.002897255463846092
0.8000000000000006,0.020532139876160854,0.0071508752145262155
1.0000000000000007,0.022074252341163562,0.009974618216255855
1.2009999999999785,0.02745349259691274,0.01286150828982647
1.4009999999999565,0.031657899677414426,0.011950544588027474
1.6009999999999345,0.04312210194207057,0.01583309490614319
1.8009999999999124,0.05565310627472319,0.01792420890502342
2.0009999999998906,0.067686185660347,0.015609891719022786
2.2009999999998686,0.07786847896727506,0.019763622959572562
2.4009999999998466,0.08518349987359775,0.021634150813041556
2.6009999999998246,0.09540411125083999,0.021650872304114922
2.8009999999998025,0.11664645115279164,0.017466949139150045
3.0009999999997805,0.12489831760017331,0.012682136729585567
3.2009999999997585,0.12956980330597226,0.010358395838699531
3.4009999999997365,0.1425432820518834,0.010208466804471586
3.6009999999997144,0.1581444170015033,0.0017631507506677842
3.8009999999996924,0.17052436985910596,-0.005885169636526612
4.000999999999671,0.17923231573011872,-0.012491399142517953
4.200999999999738,0.19781113982690535,-0.02445840288863118
4.400999999999804,0.21203313444105173,-0.03605320785176323
4.600999999999871,0.22732777220274206,-0.050329279557658736
4.800999999999938,0.2436349672388547,-0.06610701474566431
5.000000000000004,0.265355914648701,-0.07995277292207292
5.200000000000071,0.2883700797160982,-0.09782461499655683
5.400000000000138,0.3033122800507683,-0.10807196137845007
5.600000000000205,0.3197853090653189,-0.11694969749990554
5.800000000000272,0.33208403289240906,-0.1286050857432989
6.000000000000338,0.34644015664569616,-0.13538718646808615
6.200000000000405,0.35722320097087085,-0.14405354169357829
6.400000000000472,0.3649946630945498,-0.15154828373962898
6.600000000000539,0.3756478249149233,-0.15724864637474759
6.800000000000606,0.39233352457201004,-0.17002469575620904
7.000000000000672,0.4041539580618167,-0.17765133129388022
7.200000000000739,0.418168891264737,-0.1862997580070276
7.400000000000806,0.4399243803821427,-0.19798009537901326
7.600000000000873,0.44899211943371925,-0.21063635846926995
7.8000000000009395,0.47262421029195656,-0.22276807957511138
8.000000000001005,0.5061952863885344,-0.2329069476881982
8.200000000000895,0.5314154768239112,-0.24261355694643325
8.400000000000784,0.5597405788827988,-0.2522586441649463
8.600000000000673,0.5899111107229097,-0.25996315430388306
8.800000000000562,0.6016254331380814,-0.2626407738584265
9.000000000000451,0.6242665276254673,-0.2696986821366981
9.20000000000034,0.6401842603519844,-0.2818550609978301
9.40000000000023,0.6586753465837564,-0.2923100772650981
9.600000000000119,0.678135676045855,-0.30354289882418156
9.800000000000008,0.7023934150651068,-0.31385304449608903
10.000999999999896,0.7190851497972339,-0.3291581055024974
10.200999999999786,0.7318834984128499,-0.3356743387976632
10.400999999999675,0.7538169922154977,-0.34245615008666025
10.600999999999564,0.7766191983369128,-0.35685428085785714
10.800999999999453,0.7949818012459475,-0.3687793703523379
11.000999999999342,0.8159115990983467,-0.38618249828018403
11.200999999999231,0.842108378394723,-0.4022094374598298
11.40099999999912,0.8708296300196772,-0.4229712647145671
11.60099999999901,0.8873883019275447,-0.43753880594187167
11.800999999998899,0.902236020500125,-0.45026644393906984
12.000999999998788,0.9214306375852251,-0.4626363663383383
12.200999999998677,0.9481672958978463,-0.4809078757807342
12.400999999998566,0.9640023880730599,-0.4953809365316688
12.600999999998455,0.9762729260912826,-0.5067069507752497
12.800999999998345,0.997718598232407,-0.5166539994530575
13.000999999998234,1.0212861785314362,-0.5226998318609484
13.200999999998123,1.043618683382278,-0.5401595226642802
13.400999999998012,1.0523408314340208,-0.5522353166470166
13.600999999997901,1.0736013379433154,-0.5623782695517783
13.80099999999779,1.0925427413161832,-0.5720689829652026
14.00099999999768,1.1090239453107047,-0.578752162296737
14.200999999997569,1.1266647791505153,-0.5920438119570814
14.400999999997458,1.1494293156287883,-0.607623538220906
14.600999999997347,1.1714343233614013,-0.623837714506209
14.800999999997236,1.1916120212322843,-0.6430228506393524
15.000999999997125,1.2085888379293426,-0.6585073131029027
15.200999999997014,1.228569865015698,-0.6698425973913296
15.400999999996904,1.2455225032916557,-0.6799504591845718
15.600999999996793,1.2615521858290821,-0.6926431100883746
15.800999999996682,1.2831160795942322,-0.7004230427598992
16.000999999996573,1.2978592060275564,-0.7105817887775813
16.200999999996817,1.3192563400163506,-0.7193588513000319
16.40099999999706,1.3406311129878905,-0.7284244539802437
16.600999999997306,1.3615046063460463,-0.737760382789469
16.80099999999755,1.3755955062687297,-0.747119754601777
17.000999999997795,1.394733077864371,-0.7594679444693154
17.20099999999804,1.4129747389263765,-0.7763067352818345
17.400999999998284,1.4321067293931795,-0.7920368185589819
17.60099999999853,1.4472081294473371,-0.8008956802217484
17.800999999998773,1.4682990913054657,-0.8093204963542995
18.000999999999017,1.492210580093615,-0.8209029086292673
18.20099999999926,1.5151725722868836,-0.8304438923821806
18.400999999999506,1.5449494653922557,-0.842349563004958
18.60099999999975,1.5625377266598994,-0.847911552879596
18.799999999999994,1.58510037821271,-0.8551891802574397
19.000000000000238,1.6044965146866144,-0.8650926526066061
19.200000000000482,1.6281698167594416,-0.868722335002215
19.400000000000727,1.6522708867165596,-0.878231373801057
19.60000000000097,1.6592877040897,-0.8849689218357687
19.800000000001216,1.675566873231407,-0.8947470305933124
20.00000000000146,1.6876932875927282,-0.9040996913434199
