Time (s),X (m),Y (m)
0.001,0.0006558713247593165,-0.0009345558501746678
0.20000000000000015,0.0002620238091167917,0.0016492315611926313
0.4000000000000003,-0.0007889074174438434,0.009674861491001243
0.6000000000000004,0.004771377625566823,0.013822942447417393
0.8000000000000006,0.014317485322402321,0.013956375447191239
1.0000000000000007,0.03269937570268137,0.014268795057160659
1.2009999999999785,0.04766948799589748,0.008731935320722403
1.4009999999999565,0.06811690253109899,0.01769192879167111
1.6009999999999345,0.08876962988660891,0.0255189511550689
1.8009999999999124,0.10319376166641415,0.030864004895864595
2.0009999999998906,0.12108526283745458,0.023068959988484395
2.2009999999998686,0.14092553890613913,0.0081400979221947
2.4009999999998466,0.16025705764197765,0.0015939360718362663
2.6009999999998246,0.17573835312914443,-0.006431729821161868
2.8009999999998025,0.19433752312391636,-0.012944655019093068
3.0009999999997805,0.2156487222750322,-0.02218561223918324
3.2009999999997585,0.23326177272364046,-0.022277173068691935
3.4009999999997365,0.2510018097339894,-0.04564652136267795
3.6009999999997144,0.26341673584785447,-0.06770011548668438
3.8009999999996924,0.2773284932555904,-0.09152594410077945
4.000999999999671,0.2976775675576285,-0.10561552418193164
4.200999999999738,0.30968966701107864,-0.12817747072461533
4.400999999999804,0.3274535408588556,-0.14240367320398534
4.600999999999871,0.34355653970687605,-0.15535939785547673
4.800999999999938,0.36709491995449534,-0.17048378796131808
5.000000000000004,0.38802161799914703,-0.191626818428252
5.200000000000071,0.4085944814219316,-0.21381630825962722
5.400000000000138,0.4236518615818142,-0.23984069099612693
5.600000000000205,0.44197553037610515,-0.2619635226540244
5.800000000000272,0.45981257937319286,-0.28467951742123065
6.000000000000338,0.469583536155084,-0.3080129161605488
6.200000000000405,0.4884068695775265,-0.32224369472459186
6.400000000000472,0.5053003086149063,-0.3326855628627525
6.600000000000539,0.5195833672477298,-0.34866011317352363
6.800000000000606,0.5286898521651526,-0.37005188450484783
7.000000000000672,0.5362986745086807,-0.39425026893173853
7.200000000000739,0.5495203391683838,-0.41857017855370554
7.400000000000806,0.5674860810510176,-0.4453694555505544
7.600000000000873,0.5793427147809449,-0.46456010311093715
7.8000000000009395,0.5880103801483361,-0.4923365184820317
8.000000000001005,0.5900195927918952,-0.5194229859622651
8.200000000000895,0.6101231969567117,-0.5335502700626276
8.400000000000784,0.6303141799566111,-0.5515813085737271
8.600000000000673,0.6410120018161343,-0.5773715457343218
8.800000000000562,0.6464135509806617,-0.6103539958387889
9.000000000000451,0.6586804227501787,-0.6420132290482871
9.20000000000034,0.6727756705165913,-0.6601762656571445
9.40000000000023,0.6882709993753132,-0.6781353693203813
9.600000000000119,0.7057242594370287,-0.6906702022852124
9.800000000000008,0.7256496959943475,-0.7093596259241667
10.000999999999896,0.7392361066687746,-0.7281911997829774
10.200999999999786,0.7531233171602307,-0.747722132783906
10.400999999999675,0.775586515793605,-0.7667793097092075
10.600999999999564,0.787896596084197,-0.7904993481219897
10.800999999999453,0.8010883782070665,-0.8238386961679858
11.000999999999342,0.8167986370396226,-0.8565561958445449
11.200999999999231,0.8247023295716711,-0.8855300798522548
11.40099999999912,0.8342106016041777,-0.9089780577844742
11.60099999999901,0.8352935026211323,-0.9402718121494162
11.800999999998899,0.8435101682235193,-0.9594764036576939
12.000999999998788,0.8431021439656219,-0.9831981055438876
12.200999999998677,0.8440093839002157,-1.0107186657905682
12.400999999998566,0.8477869164345607,-1.0421275799534155
12.600999999998455,0.8720225266826321,-1.0693440091972028
12.800999999998345,0.8829371140449619,-1.097016536072182
13.000999999998234,0.8939369061347823,-1.123486991887495
13.200999999998123,0.9025235160903347,-1.1580790953980882
13.400999999998012,0.9148728866438804,-1.1834271899021243
13.600999999997901,0.9229265935331172,-1.2089747269398308
13.80099999999779,0.933620431453318,-1.2380399707548966
14.00099999999768,0.9396393642180074,-1.2764178662568952
14.200999999997569,0.9523305291245502,-1.3077024941035444
14.400999999997458,0.9672064911351758,-1.3313063579608146
14.600999999997347,0.9815046952279181,-1.3493883258809258
14.800999999997236,0.9937175810315909,-1.3664794520643688
15.000999999997125,0.9964642774253913,-1.388526921925676
15.200999999997014,1.00011682732536,-1.4190378091243654
15.400999999996904,1.0003356536134622,-1.4504952054115177
15.600999999996793,1.0121439649002144,-1.4817015370998754
15.800999999996682,1.0195900701431586,-1.5190856113051605
16.000999999996573,1.0126273221030502,-1.5511875909286228
16.200999999996817,1.0112473443163952,-1.576124858964887
16.40099999999706,1.012208267711088,-1.609857652796151
16.600999999997306,1.0003967115657355,-1.6395247029261253
16.80099999999755,0.9866762764009795,-1.6637325425830567
17.000999999997795,0.9734555655246351,-1.682825154642583
17.20099999999804,0.965403330355618,-1.710137598763239
17.400999999998284,0.9523700846894868,-1.730966189334707
17.60099999999853,0.9389553547426859,-1.7542758070184954
17.800999999998773,0.9072293611936907,-1.7701554204538592
18.000999999999017,0.8846157708349945,-1.7899315305123258
18.20099999999926,0.8701503976283249,-1.8110030588929855
18.400999999999506,0.8615566222586545,-1.8414931106368444
18.60099999999975,0.8327702337404556,-1.861082860228703
18.799999999999994,0.8016153014918524,-1.8722977624092265
19.000000000000238,0.7715770656914558,-1.8796226710809347
19.200000000000482,0.7509020294993783,-1.8921343018686414
19.400000000000727,0.7358199591534592,-1.9110200135167472
19.60000000000097,0.7233604844986747,-1.9356445886917888
19.800000000001216,0.7054191832148822,-1.959358534077162
20.00000000000146,0.6840739503670877,-1.9775748214453397
