Time (s),X (m),Y (m)
0.001,-0.0007759513068619564,0.00026688599193002506
0.20000000000000015,0.006371182838945393,-0.002171535173477373
0.4000000000000003,0.016593776962882303,-0.0066941798334780546
0.6000000000000004,0.03363287790699758,-0.010262369257157124
0.8000000000000006,0.05413878815606136,-0.01497323103748272
1.0000000000000007,0.0886534816938596,-0.02490190349420476
1.2009999999999785,0.13108107024938007,-0.04295763043880879
1.4009999999999565,0.17384125914039683,-0.06168773345075089
1.6009999999999345,0.21161564776246053,-0.07311084652291676
1.8009999999999124,0.25225669952341706,-0.08781750739533924
2.0009999999998906,0.2891846679997019,-0.09817218549120103
2.2009999999998686,0.32271216857641644,-0.11061730013705164
2.4009999999998466,0.3595108052910701,-0.1243931897615259
2.6009999999998246,0.39732285881164436,-0.13499048927994678
2.8009999999998025,0.4312438287953176,-0.13770316292703672
3.0009999999997805,0.46732948561378707,-0.1234824255694816
3.2009999999997585,0.49763988330383285,-0.11561634070581216
3.4009999999997365,0.5099997971754616,-0.13236510106352692
3.6009999999997144,0.5115089709526214,-0.15581781925058621
3.8009999999996924,0.49390865477513973,-0.19388993404392768
4.000999999999671,0.4661024408887999,-0.2311056245565289
4.200999999999738,0.43233507185500114,-0.254625281307961
4.400999999999804,0.39971892745102,-0.2636747186077074
4.600999999999871,0.36286468387459936,-0.2459231804760831
4.800999999999938,0.3191517063174081,-0.2019547512384022
5.000000000000004,0.2779826876776002,-0.16047118997935683
5.200000000000071,0.2516508329613349,-0.11086906458335224
5.400000000000138,0.2531336932768447,-0.052831309119159175
5.600000000000205,0.26168599712850793,-0.0029279767384834308
5.800000000000272,0.28337910029809027,0.04680573499294467
6.000000000000338,0.3018737927747607,0.09462033018118211
6.200000000000405,0.32075060980898046,0.13033604668465637
6.400000000000472,0.3562410627261636,0.14567601535033317
6.600000000000539,0.4058254035111008,0.14308580446833882
6.800000000000606,0.45716435678019407,0.12647338525565402
7.000000000000672,0.5086416227345135,0.1095738040024523
7.200000000000739,0.5617722339879447,0.08506503392006541
7.400000000000806,0.6151103865426414,0.04247680338793474
7.600000000000873,0.6523487058423791,-0.005930546833145817
7.8000000000009395,0.6648794932651985,-0.05836256001910118
8.000000000001005,0.665570562049745,-0.10306629787031218
8.200000000000895,0.6543066610571554,-0.15291511990730325
8.400000000000784,0.6301152509176513,-0.20879273862586903
8.600000000000673,0.601553972822909,-0.26740392123530926
8.800000000000562,0.5662564959896095,-0.3321756535382416
9.000000000000451,0.5316813209874732,-0.39354431620923713
9.20000000000034,0.4979600004293044,-0.4417143183093756
9.40000000000023,0.4501362357850797,-0.45460579340528673
9.600000000000119,0.3920331134929431,-0.444470985792835
9.800000000000008,0.32809527159710883,-0.4237793067214256
10.000999999999896,0.27260651595661745,-0.40483428470148564
10.200999999999786,0.21906539456511862,-0.3868817432622749
10.400999999999675,0.16162872646874435,-0.36432504110657593
10.600999999999564,0.10126950146766758,-0.33308199290744483
10.800999999999453,0.045077880135378744,-0.30536387914564955
11.000999999999342,-0.011711132814061274,-0.26813754524185085
11.200999999999231,-0.06554673017510561,-0.22844165999838473
11.40099999999912,-0.09307668796239256,-0.18703262545005403
11.60099999999901,-0.09889858031106462,-0.14290869721866362
11.800999999998899,-0.0934020656993624,-0.09018153341890515
12.000999999998788,-0.08038274331756642,-0.037609646247098276
12.200999999998677,-0.0577015744198588,0.020016024092151308
12.400999999998566,-0.028421700750754404,0.08279174446243363
12.600999999998455,-0.0032556786534747462,0.1476481511770732
12.800999999998345,0.021365617510220532,0.21189711920242138
13.000999999998234,0.04077386643439253,0.27699791959529946
13.200999999998123,0.07715650356105402,0.3408089399672372
13.400999999998012,0.129857375564663,0.38614081256925165
13.600999999997901,0.19585185815384282,0.41026732997459564
13.80099999999779,0.2677480194639509,0.41692896138449237
14.00099999999768,0.3373524010780849,0.40890162360468707
14.200999999997569,0.39814278511499945,0.39267196001159843
14.400999999997458,0.45895129964323983,0.3663765326529671
14.600999999997347,0.5302484892010323,0.321951020314994
14.800999999997236,0.6029614677421185,0.28922558287311767
15.000999999997125,0.6786034264775169,0.25032165665252076
15.200999999997014,0.7477685320095007,0.20221429817751993
15.400999999996904,0.7893834586216639,0.15525257629931177
15.600999999996793,0.797420843950854,0.09466947593682365
15.800999999996682,0.7809998969531147,0.020907159666010793
16.000999999996573,0.7594207822539067,-0.050469478626526613
16.200999999996817,0.7259596446288866,-0.11876529861548701
16.40099999999706,0.6809844303536898,-0.17560127945601703
16.600999999997306,0.6317157277548866,-0.2024992925331003
16.80099999999755,0.5761345887622432,-0.20877125821066234
17.000999999997795,0.513479821562839,-0.1935055791430115
17.20099999999804,0.44909378340528955,-0.16271082771822068
17.400999999998284,0.38804710206819565,-0.1380494281755977
17.60099999999853,0.3306246972563983,-0.11372503520536092
17.800999999998773,0.26829218734147064,-0.09150501815129848
18.000999999999017,0.2003557025769695,-0.058911945046846666
18.20099999999926,0.14034642581870324,-0.00932332747295942
18.400999999999506,0.09783104328021956,0.03963980467624265
18.60099999999975,0.0762848061989366,0.09165656806373523
18.799999999999994,0.07408992307442465,0.14877620781036674
19.000000000000238,0.09269796765299085,0.2052888867151766
19.200000000000482,0.12734076386599757,0.2583044195769722
19.400000000000727,0.18325293260274192,0.2772828179499449
19.60000000000097,0.24538971335338863,0.2631053268619907
19.800000000001216,0.3057385196541209,0.23201056406770298
20.00000000000146,0.3505293384821555,0.19244673880301727
