Time (s),X (m),Y (m)
0.001,0.0005727611008870025,0.0009689812320744445
0.20000000000000015,-0.0009438418161061779,-0.003620508431665131
0.4000000000000003,0.003701025105148826,-0.004574536391888793
0.6000000000000004,0.019963351829428762,-0.0016591586361122135
0.8000000000000006,0.04118538297192914,-0.0031083966951814894
1.0000000000000007,0.07124170714465931,-0.0007596777664768328
1.2009999999999785,0.10282390656121537,0.005032619339676114
1.4009999999999565,0.13678337472257254,0.0007669038304650742
1.6009999999999345,0.17371640159292775,0.007170393358488587
1.8009999999999124,0.21384560523595342,0.004390925313968725
2.0009999999998906,0.24752690963791693,0.0074479904947112995
2.2009999999998686,0.283188643346774,0.007633748042844019
2.4009999999998466,0.33061980191939716,0.008711509733566464
2.6009999999998246,0.3711971443184985,0.0083232282728015
2.8009999999998025,0.4041391767150375,0.0033040999791901907
3.0009999999997805,0.4287834413700868,-0.006232002284755448
3.2009999999997585,0.4629081459969385,-0.013420104966651004
3.4009999999997365,0.49432589457704534,-0.02543179407534069
3.6009999999997144,0.5343207379942404,-0.03801369063361255
3.8009999999996924,0.569695131364182,-0.053479965593210416
4.000999999999671,0.5956959907658855,-0.07187821802690028
4.200999999999738,0.6097086008572518,-0.10020246383951116
4.400999999999804,0.6327117024376806,-0.12543219528480815
4.600999999999871,0.6639929437305485,-0.15275356406237736
4.800999999999938,0.7023548449859806,-0.18910834514909133
5.000000000000004,0.7338076682951072,-0.22416600262394434
5.200000000000071,0.7608197555936875,-0.25593845745438487
5.400000000000138,0.7859501906163769,-0.28149708387419925
5.600000000000205,0.8253402762529992,-0.31358310843339715
5.800000000000272,0.8592542297229553,-0.35700996461169493
6.000000000000338,0.8660272123974891,-0.400421355998697
6.200000000000405,0.8538520561542329,-0.44936801976900304
6.400000000000472,0.8503893340834607,-0.4934822464717387
6.600000000000539,0.8474827919425428,-0.5383864254843771
6.800000000000606,0.8573864099878841,-0.5887922710446086
7.000000000000672,0.8656087299697064,-0.6319161778895994
7.200000000000739,0.8749459229016427,-0.6807393103023355
7.400000000000806,0.8894022339744827,-0.7307474125597998
7.600000000000873,0.8974322108521684,-0.7753030906785701
7.8000000000009395,0.8964510719628109,-0.8169770349382007
8.000000000001005,0.9058874256480166,-0.8714909121897264
8.200000000000895,0.9150193078877785,-0.9291590939421313
8.400000000000784,0.9287710905556569,-0.989644281243238
8.600000000000673,0.9297399210049412,-1.047657044121799
8.800000000000562,0.9246791944249915,-1.102034964626676
9.000000000000451,0.9243043014576263,-1.1577325472020925
9.20000000000034,0.9239988256978678,-1.2169057900722693
9.40000000000023,0.9139461995584885,-1.2723617772686833
9.600000000000119,0.8985344724226508,-1.3231448914371986
9.800000000000008,0.8774355835488012,-1.3695694926740125
10.000999999999896,0.8360247328641109,-1.3957638635238443
10.200999999999786,0.7865350081170455,-1.4230537711339892
10.400999999999675,0.7309391051382362,-1.4446395636961904
10.600999999999564,0.6736122437470138,-1.458628120102588
10.800999999999453,0.6199509201603557,-1.4624992757617512
11.000999999999342,0.5653036194699532,-1.4737756968043811
11.200999999999231,0.5068501736064281,-1.48762498196548
11.40099999999912,0.4427876955701146,-1.5182839503629173
11.60099999999901,0.37927483208581436,-1.5416703029115746
11.800999999998899,0.3137395236856705,-1.566887775841833
12.000999999998788,0.25017695897819975,-1.5872640960859152
12.200999999998677,0.19464134310415707,-1.5991472577359327
12.400999999998566,0.14088979417115718,-1.615993944282194
12.600999999998455,0.09580883248516968,-1.6604094910648444
12.800999999998345,0.05593645135916751,-1.6981906578522075
13.000999999998234,0.019304275402993062,-1.7353261121602803
13.200999999998123,-0.02210921840792159,-1.7681628783535661
13.400999999998012,-0.06630345982277147,-1.797652570725664
13.600999999997901,-0.1084568199531624,-1.8477294171775498
13.80099999999779,-0.1531203894684804,-1.8812021183632237
14.00099999999768,-0.1982511003383098,-1.9264464465267146
14.200999999997569,-0.24064642016557067,-1.9766537902588648
14.400999999997458,-0.2834912912286626,-2.0151729637497424
14.600999999997347,-0.33454081945869246,-2.0425169642884633
14.800999999997236,-0.38272838759580075,-2.071708183605185
15.000999999997125,-0.4166850417172938,-2.1151654598359606
15.200999999997014,-0.4447382654467127,-2.174022842260434
15.400999999996904,-0.46829301935208884,-2.22730587788245
15.600999999996793,-0.4851511658069274,-2.262232846265139
15.800999999996682,-0.506075282489795,-2.2868659373054103
16.000999999996573,-0.5295297202525536,-2.329648119335032
16.200999999996817,-0.5526488544878033,-2.3705099067767836
16.40099999999706,-0.5927112112301525,-2.394862924831307
16.600999999997306,-0.6408330869739185,-2.4251408251426607
16.80099999999755,-0.692530111580012,-2.464650296908411
17.000999999997795,-0.7516861876786978,-2.5031178305975033
17.20099999999804,-0.8174496987183022,-2.529091298875153
17.400999999998284,-0.8805837438696518,-2.5509673358346783
17.60099999999853,-0.93631191987413,-2.5697282817636755
17.800999999998773,-0.9847633313050757,-2.589786461047633
18.000999999999017,-1.0345115995071774,-2.606817306416375
18.20099999999926,-1.0879073729083497,-2.6229561449679752
18.400999999999506,-1.1506582546550952,-2.6434022376358826
18.60099999999975,-1.2191476282956581,-2.6660867457309267
18.799999999999994,-1.2908942243254433,-2.693145656778298
19.000000000000238,-1.3575930510822554,-2.7188632592450412
19.200000000000482,-1.4164746232423737,-2.727505244722232
19.400000000000727,-1.4664560369755502,-2.758439114167762
19.60000000000097,-1.512830243154183,-2.7898293343427096
19.800000000001216,-1.5577063146222774,-2.8278672132822913
20.00000000000146,-1.5979651477201273,-2.867300453361459
