Time (s),X (m),Y (m)
0.001,-0.0006729371591054965,0.000515584144559974
0.20000000000000015,0.004133896184856988,-0.0008242273746782415
0.4000000000000003,0.011378554296553425,-0.004940728579056346
0.6000000000000004,0.022397406446983438,-0.01254635814641863
0.8000000000000006,0.02564623888429337,-0.019270913250692395
1.0000000000000007,0.03702207895521518,-0.025285878268726754
1.2009999999999785,0.04587948307711705,-0.03355624409345468
1.4009999999999565,0.057190884064921836,-0.03273090771735018
1.6009999999999345,0.0744966613820843,-0.03645957338573852
1.8009999999999124,0.09261480555618559,-0.038593942558638364
2.0009999999998906,0.1115675282022405,-0.03951295153881298
2.2009999999998686,0.1319878863218934,-0.03467070383787093
2.4009999999998466,0.15323462107177202,-0.031753086869417614
2.6009999999998246,0.17713427151332845,-0.03591177622924748
2.8009999999998025,0.20272899516069529,-0.03592508321159794
3.0009999999997805,0.231747334397975,-0.045982164169184894
3.2009999999997585,0.24828139506607066,-0.04874559296423592
3.4009999999997365,0.263819893225247,-0.048867118157337554
3.6009999999997144,0.29023084457960285,-0.05085450505954018
3.8009999999996924,0.31594072608235807,-0.056422276340477875
4.000999999999671,0.3403059370304054,-0.0673472303742595
4.200999999999738,0.3496770984836661,-0.06493227074415155
4.400999999999804,0.3745818480458817,-0.06488456604181721
4.600999999999871,0.3977822057321745,-0.06235758434689013
4.800999999999938,0.42628758837066283,-0.07363191206340948
5.000000000000004,0.4512886141018652,-0.07895788842808989
5.200000000000071,0.4797309790271311,-0.08632688172740338
5.400000000000138,0.4991639692314079,-0.08718702513583834
5.600000000000205,0.5235452007271948,-0.10820582035957747
5.800000000000272,0.5445267835561804,-0.12476053942935424
6.000000000000338,0.5595683961718554,-0.14733877027053086
6.200000000000405,0.5712775669565568,-0.18120028851859846
6.400000000000472,0.5786377043356137,-0.21908043589236356
6.600000000000539,0.5828545285066286,-0.2351024933536528
6.800000000000606,0.5907187661976665,-0.26184858685774826
7.000000000000672,0.5882356491909594,-0.3065991107519444
7.200000000000739,0.5819639303656372,-0.3437203289360459
7.400000000000806,0.5742355815840945,-0.38355054722249304
7.600000000000873,0.5726337087827341,-0.41047008958033965
7.8000000000009395,0.5710596109447733,-0.43169935965711476
8.000000000001005,0.5645117444113249,-0.45288772953650713
8.200000000000895,0.5634656819395507,-0.4694191434547723
8.400000000000784,0.5547886342546192,-0.5032090901223566
8.600000000000673,0.5508744023831946,-0.5347136457029885
8.800000000000562,0.5542367168212191,-0.5577350235716572
9.000000000000451,0.5485812329827799,-0.5821624831159764
9.20000000000034,0.5393350671490752,-0.6038756543179916
9.40000000000023,0.5246636453059007,-0.6280767827183942
9.600000000000119,0.5217478111834595,-0.6430580424728719
9.800000000000008,0.5181950708760772,-0.6705991482393849
10.000999999999896,0.5241763907595953,-0.696469275390746
10.200999999999786,0.5217104275186799,-0.7320243295895202
10.400999999999675,0.5133399983640585,-0.7698869645499175
10.600999999999564,0.5001559183931,-0.8032050659036482
10.800999999999453,0.48481100020054696,-0.838918256135143
11.000999999999342,0.4693161204423627,-0.879914471451654
11.200999999999231,0.46157676089328653,-0.919794623002557
11.40099999999912,0.45485243819642174,-0.9552433554719626
11.60099999999901,0.4314475833477705,-0.9864780689227115
11.800999999998899,0.40857177941482486,-1.0142105121429876
12.000999999998788,0.38044445466438015,-1.0389459196875175
12.200999999998677,0.35042867425343854,-1.0534484074376362
12.400999999998566,0.31816279703018074,-1.0598342162387706
12.600999999998455,0.28510581158111425,-1.0642031534890535
12.800999999998345,0.2524648687379381,-1.0633165940539393
13.000999999998234,0.22640699050039698,-1.062964544785319
13.200999999998123,0.19850468783382727,-1.064178491856655
13.400999999998012,0.16862637731074476,-1.0662390138658806
13.600999999997901,0.14010780376207696,-1.0729901931712553
13.80099999999779,0.10620039228329885,-1.0740888009552232
14.00099999999768,0.0880747708588232,-1.0798388561258825
14.200999999997569,0.06195790721546498,-1.0688372596865183
14.400999999997458,0.03202178087350215,-1.0614035781853217
14.600999999997347,0.0012504680243722677,-1.0495282639174812
14.800999999997236,-0.02635425449103399,-1.0410897967557897
15.000999999997125,-0.05948565549272045,-1.0208359349364873
15.200999999997014,-0.09891314355103048,-0.9983030798702932
15.400999999996904,-0.1344854766751903,-0.981238775379609
15.600999999996793,-0.16864251038048514,-0.9662439883806953
15.800999999996682,-0.20074590088636307,-0.9478674144751179
16.000999999996573,-0.23225035439722103,-0.9337154409934555
16.200999999996817,-0.26375548104550306,-0.9051047037182446
16.40099999999706,-0.29664893439953693,-0.8831930425229743
16.600999999997306,-0.325671210258773,-0.8556927959620486
16.80099999999755,-0.3440213372887786,-0.8187955904349147
17.000999999997795,-0.35420608229253514,-0.7931441199984635
17.20099999999804,-0.3571227856880726,-0.7638034073011165
17.400999999998284,-0.35851336041317344,-0.7382112725108411
17.60099999999853,-0.35433167934596066,-0.7078805782509513
17.800999999998773,-0.3484683407705829,-0.670790235984044
18.000999999999017,-0.3356773436264165,-0.6341531402545464
18.20099999999926,-0.3303601398210121,-0.5980981660711073
18.400999999999506,-0.31860891254533147,-0.5596984373969515
18.60099999999975,-0.30833752128304964,-0.5272804682446309
18.799999999999994,-0.2931780813467927,-0.48491942530631876
19.000000000000238,-0.280041453142468,-0.4505835976472337
19.200000000000482,-0.2712403132191171,-0.41377489737568524
19.400000000000727,-0.26151667937336787,-0.38050032276939444
19.60000000000097,-0.24622348534861635,-0.3458468585232916
19.800000000001216,-0.23931780133248687,-0.3160574468723795
20.00000000000146,-0.22093000273781946,-0.2904035662013886
