Time (s),X (m),Y (m)
0.001,0.0011546366250239817,-0.00043579054991000363
0.20000000000000015,0.0002607920690649905,0.0007530559138207161
0.4000000000000003,0.0025493723202724113,-0.000124563678954297
0.6000000000000004,0.0049631285508259255,0.00020111444542357746
0.8000000000000006,0.007402450384901787,-0.0006491827361448382
1.0000000000000007,0.010685456435280617,-0.001015962000938541
1.2009999999999785,0.012069790422035678,-0.0012447322125535584
1.4009999999999565,0.015232105745756425,-0.002213256960461136
1.6009999999999345,0.018248087783092084,-0.0034241390758862583
1.8009999999999124,0.02072717924876589,-0.004366689550005625
2.0009999999998906,0.023395254369096282,-0.005368182028444779
2.2009999999998686,0.02609748979923219,-0.006382462199823513
2.4009999999998466,0.02913814815817275,-0.007516448334399256
2.6009999999998246,0.03187399434436545,-0.00852505407494545
2.8009999999998025,0.03473948779254209,-0.009547675290369912
3.0009999999997805,0.0376633540668142,-0.010417139130786067
3.2009999999997585,0.0399591783775863,-0.011158489327757386
3.4009999999997365,0.04333931567199042,-0.01214400519030191
3.6009999999997144,0.04620060876694536,-0.012981518110071403
3.8009999999996924,0.04931288472044676,-0.013840897324047391
4.000999999999671,0.05243079138089332,-0.014595243821391263
4.200999999999738,0.05546757845866641,-0.015378699355799223
4.400999999999804,0.05866018309655233,-0.01605524820116502
4.600999999999871,0.06164371767223231,-0.016793844800589267
4.800999999999938,0.06466385006794659,-0.017314728139574482
5.000000000000004,0.06818198027067135,-0.017798183602634604
5.200000000000071,0.07115412756223118,-0.018351118823907837
5.400000000000138,0.07434884283866068,-0.018724011454176213
5.600000000000205,0.07747661636594239,-0.019216375552146628
5.800000000000272,0.08077542144895511,-0.019428392639046645
6.000000000000338,0.08421079517190194,-0.019641665863363397
6.200000000000405,0.08730605107551706,-0.019827071699028597
6.400000000000472,0.0905554944928001,-0.0197931844132299
6.600000000000539,0.09372990826646962,-0.01970963209586966
6.800000000000606,0.09678738157520932,-0.019424326631302346
7.000000000000672,0.09978900107941635,-0.019084790239872373
7.200000000000739,0.10271037961529218,-0.018590283509688114
7.400000000000806,0.10556960255900834,-0.018018304840876007
7.600000000000873,0.10841207477629226,-0.01728268324965835
7.8000000000009395,0.11098844417165589,-0.01646863894092019
8.000000000001005,0.11350806810126536,-0.015575896160793997
8.200000000000895,0.11650973323851399,-0.01467590822042629
8.400000000000784,0.11915801080493861,-0.013661866378570324
8.600000000000673,0.12176220123705817,-0.012471309028093904
8.800000000000562,0.12416738616920482,-0.011260143887559193
9.000000000000451,0.12717842464262552,-0.009967807663053281
9.20000000000034,0.1297348929285795,-0.008629587560961542
9.40000000000023,0.1326230210155768,-0.0072388359414714285
9.600000000000119,0.13555662305286903,-0.005681954381488588
9.800000000000008,0.13834163943190053,-0.0040466315771228315
10.000999999999896,0.14111062190444557,-0.0021896517524419607
10.200999999999786,0.1430092322240605,0.0032401389022726694
10.400999999999675,0.14453090033157606,0.011448205561790775
10.600999999999564,0.14660202125851018,0.01934516015962898
10.800999999999453,0.1472718035469961,0.027005623361312535
11.000999999999342,0.1485450343799857,0.03450571658986169
11.200999999999231,0.1487552951690165,0.04190647635553706
11.40099999999912,0.14955878955921947,0.04884279398761467
11.60099999999901,0.1497253691406172,0.05589201072026969
11.800999999998899,0.15013702272811216,0.0625506652985521
12.000999999998788,0.14953258852181492,0.06964121453112362
12.200999999998677,0.14980471140676993,0.07641948008968925
12.400999999998566,0.1493104280903581,0.08303083456203267
12.600999999998455,0.14914476180430888,0.08958957610031373
12.800999999998345,0.1482239577066916,0.09558360353798792
13.000999999998234,0.14731249757611176,0.10156088364954051
13.200999999998123,0.14593314826904422,0.10736506236625874
13.400999999998012,0.14523940046430991,0.11280997356867661
13.600999999997901,0.14370951729801787,0.11818050181576734
13.80099999999779,0.14277216464381998,0.12391874200182204
14.00099999999768,0.14087112092441065,0.12918777250391303
14.200999999997569,0.13938420620420455,0.13443248306430025
14.400999999997458,0.13710886605938116,0.1394348597273102
14.600999999997347,0.13567779393767956,0.14472175952263894
14.800999999997236,0.13321110344695575,0.14985520468345917
15.000999999997125,0.13156839948116078,0.15426495599643422
15.200999999997014,0.12933534616306566,0.15912466401452724
15.400999999996904,0.12712278346953437,0.16311125318963496
15.600999999996793,0.12459684464745222,0.16708551092258092
15.800999999996682,0.12274324885177933,0.17173576608804744
16.000999999996573,0.11999752808543512,0.1760479360987773
16.200999999996817,0.1179098603847013,0.17969378819051918
16.40099999999706,0.1150436040243478,0.18342449870724378
16.600999999997306,0.11295034729347897,0.18697059096752586
16.80099999999755,0.11029582854801483,0.1901793201532418
17.000999999997795,0.10815090418003295,0.193555351837231
17.20099999999804,0.1054670507000684,0.19711529897712013
17.400999999998284,0.10358574822323444,0.20032955487253784
17.60099999999853,0.10138182766652036,0.2033695868799906
17.800999999998773,0.09932652531989031,0.20658875927284384
18.000999999999017,0.09658941028821298,0.2092253884590085
18.20099999999926,0.09445530222940998,0.21210651982850012
18.400999999999506,0.09185004413899264,0.21465348307109042
18.60099999999975,0.0899296746100457,0.21724608766368975
18.799999999999994,0.08677614589310378,0.21960946078067897
19.000000000000238,0.08401805228025028,0.22239616610848972
19.200000000000482,0.08058519226509295,0.22452408593635056
19.400000000000727,0.07770405405682759,0.2269846449908354
19.60000000000097,0.07428410122685242,0.22914116384751335
19.800000000001216,0.0713715527602221,0.23150533983392155
20.00000000000146,0.06786328377927123,0.23347876588123045
