Time (s),X (m),Y (m)
0.001,0.0003991412691229187,0.0010155025257856582
0.20000000000000015,0.000639368946580883,-0.001585301874136258
0.4000000000000003,0.008639423692333196,0.005609992082857201
0.6000000000000004,0.02632749312237493,0.014980345053297197
0.8000000000000006,0.05000177841632084,0.010407914949054247
1.0000000000000007,0.08747327109626551,0.010036501862384705
1.2009999999999785,0.11348076524041441,-0.00026560151875418427
1.4009999999999565,0.141899323414129,-0.015871257485580225
1.6009999999999345,0.17362121238902595,-0.03481609086337377
1.8009999999999124,0.1936826186449893,-0.061355606934648886
2.0009999999998906,0.19750790336560148,-0.091162260324553
2.2009999999998686,0.18092884752685343,-0.12602032622955367
2.4009999999998466,0.17435609801523633,-0.1677453327259368
2.6009999999998246,0.15191633700145266,-0.21245626536103052
2.8009999999998025,0.12997043379064716,-0.2599878763545177
3.0009999999997805,0.11129295578742569,-0.30329036868582815
3.2009999999997585,0.10738422572841866,-0.35882091550632483
3.4009999999997365,0.09866173043066008,-0.41802801354415176
3.6009999999997144,0.08011953771565336,-0.4612423024064199
3.8009999999996924,0.05180861109185503,-0.49617067892094646
4.000999999999671,0.02916254088153609,-0.5349920833507003
4.200999999999738,0.0026483946363467965,-0.5721793225415079
4.400999999999804,-0.027903447831970327,-0.5985896765712987
4.600999999999871,-0.06216347240328641,-0.6152119058451069
4.800999999999938,-0.10352611594618352,-0.6210365763556034
5.000000000000004,-0.1610200633360804,-0.6355388152950545
5.200000000000071,-0.22295997972060477,-0.6381848893687448
5.400000000000138,-0.2789652581168414,-0.6322949031837287
5.600000000000205,-0.3424206768448415,-0.6274063001964572
5.800000000000272,-0.40199311338928945,-0.6169902854898475
6.000000000000338,-0.46642674462726025,-0.6028410992183405
6.200000000000405,-0.5220485357477004,-0.582351788524453
6.400000000000472,-0.5842187031830322,-0.5676503069691877
6.600000000000539,-0.6569957782191148,-0.5522620641681963
6.800000000000606,-0.7152783477074862,-0.5331946040259447
7.000000000000672,-0.7600520979636851,-0.49943080152674185
7.200000000000739,-0.7846098255648467,-0.46661758638774675
7.400000000000806,-0.804507746473593,-0.4275020573707255
7.600000000000873,-0.854499856355229,-0.37911760979215225
7.8000000000009395,-0.8942620766069427,-0.32283172057660314
8.000000000001005,-0.9289257695854319,-0.2700613469014331
8.200000000000895,-0.9645734707203815,-0.21775786073383882
8.400000000000784,-0.9808604380596592,-0.1602060638134452
8.600000000000673,-1.00658644164822,-0.09752354383934476
8.800000000000562,-1.0233371523071446,-0.027333926657188666
9.000000000000451,-1.0235666890327086,0.03654749813525353
9.20000000000034,-1.0251468991794834,0.10580957826995825
9.40000000000023,-1.0368070110239156,0.1854944421967215
9.600000000000119,-1.040102236551452,0.260069153621723
9.800000000000008,-1.0402906720438092,0.33294115383388767
10.000999999999896,-1.0458016502200416,0.4122169806087077
10.200999999999786,-1.0629895330488568,0.49370029293130346
10.400999999999675,-1.061910665782404,0.5589276161465206
10.600999999999564,-1.0546583288171105,0.6155868617597099
10.800999999999453,-1.0362404800712268,0.6610804636069546
11.000999999999342,-1.0005463629335576,0.6865327181951419
11.200999999999231,-0.9527615777323519,0.6945434769424821
11.40099999999912,-0.8955637603394505,0.7054658723469526
11.60099999999901,-0.8382920395776692,0.7116269304731164
11.800999999998899,-0.7733438153587308,0.7337025081817635
12.000999999998788,-0.7052742050470838,0.7541998288715842
12.200999999998677,-0.6405290823251217,0.7627265373378656
12.400999999998566,-0.5717987418784568,0.7659288733232931
12.600999999998455,-0.5020285561059321,0.7638550613458019
12.800999999998345,-0.4213204965149385,0.7641206486835941
13.000999999998234,-0.34676197961989863,0.7631048968601905
13.200999999998123,-0.2927368947992002,0.751603269314054
13.400999999998012,-0.24622883393996112,0.737204159443453
13.600999999997901,-0.21287446398983045,0.7101235656589724
13.80099999999779,-0.19789233617445665,0.6750207096878411
14.00099999999768,-0.19626138266142698,0.6343018458783307
14.200999999997569,-0.20263526685928338,0.5835306744817668
14.400999999997458,-0.20931634689679773,0.5240231778888859
14.600999999997347,-0.20848342037728113,0.46059519973997376
14.800999999997236,-0.20199839060424624,0.3880274666683052
15.000999999997125,-0.1957887973399097,0.3136818261158335
15.200999999997014,-0.19202799109758745,0.23839662441770018
15.400999999996904,-0.18968515012908319,0.17418647665789366
15.600999999996793,-0.1990814711876424,0.12264989906468556
15.800999999996682,-0.21522900554697866,0.07531168086197562
16.000999999996573,-0.2518446821695209,0.04061455988789903
16.200999999996817,-0.3075635646555502,0.018163939367589116
16.40099999999706,-0.37477696172446445,-0.0039402402404163355
16.600999999997306,-0.4429162695497732,-0.014537663057721065
16.80099999999755,-0.5117699427372867,-0.015056394701912158
17.000999999997795,-0.5660868229288669,-0.004449431577500188
17.20099999999804,-0.5975404631041547,0.014868288213010889
17.400999999998284,-0.6179847524869747,0.05103912020153788
17.60099999999853,-0.6226790963540035,0.10290006928896252
17.800999999998773,-0.617150571978803,0.14574539798387393
18.000999999999017,-0.6013662202048492,0.19857888041300623
18.20099999999926,-0.5875901094389749,0.2632956943109492
18.400999999999506,-0.5597514748933168,0.32485899963714393
18.60099999999975,-0.51476118176382,0.3654312588508177
18.799999999999994,-0.4602033395210817,0.37964596828838165
19.000000000000238,-0.40585938768404517,0.3728888077273678
19.200000000000482,-0.35498644962163894,0.3647399627929303
19.400000000000727,-0.3030991950099251,0.35601760122663334
19.60000000000097,-0.24799530785616464,0.34677208012205063
19.800000000001216,-0.19016513255590153,0.33611289415779444
20.00000000000146,-0.1280953071491844,0.3324902002666355
