Time (s),X (m),Y (m)
0.001,0.0006558713247593165,-0.0009345558501746678
0.20000000000000015,0.0004002663893203398,0.004474556905466155
0.4000000000000003,0.006196987781883182,0.009114304967541991
0.6000000000000004,0.023096604733766932,0.01089254543386357
0.8000000000000006,0.0499487709480994,-0.002871880501968329
1.0000000000000007,0.08719607701222293,-0.01849115419764932
1.2009999999999785,0.12657159643632163,-0.04875416206455705
1.4009999999999565,0.16973430772399722,-0.09031713429431089
1.6009999999999345,0.21236371518958047,-0.12292074747505101
1.8009999999999124,0.250839689561106,-0.16009300359765086
2.0009999999998906,0.29141276249090153,-0.2001123303371241
2.2009999999998686,0.32763450940816236,-0.2444093115088892
2.4009999999998466,0.35933246899220167,-0.2901945496692413
2.6009999999998246,0.3672384415191076,-0.34065884651134204
2.8009999999998025,0.35054430678303117,-0.39284123161725515
3.0009999999997805,0.3050478915384457,-0.4417509288586058
3.2009999999997585,0.2518038830324277,-0.4898762938249347
3.4009999999997365,0.20084467529174763,-0.5403228988762272
3.6009999999997144,0.16335339314391484,-0.5943309145686998
3.8009999999996924,0.11817634893362733,-0.6467569732421078
4.000999999999671,0.08522354655956021,-0.6931325365574782
4.200999999999738,0.0412497122727677,-0.7352273525489649
4.400999999999804,-0.015743855882156724,-0.7793402895860098
4.600999999999871,-0.06981917441627014,-0.8235247573471708
4.800999999999938,-0.13404689094512104,-0.8632762384945623
5.000000000000004,-0.20094600215088126,-0.889840392164751
5.200000000000071,-0.26807506391508124,-0.9154298418916923
5.400000000000138,-0.33812899548735087,-0.9385870537041853
5.600000000000205,-0.40917837167045923,-0.9630700810192795
5.800000000000272,-0.48448854586268747,-0.984780516698118
6.000000000000338,-0.5668927951334918,-1.0002341671667838
6.200000000000405,-0.6451002040784433,-1.0201083488958758
6.400000000000472,-0.7230696381802549,-1.0430851201902696
6.600000000000539,-0.7929018750767145,-1.0728294336921471
6.800000000000606,-0.8655261519994625,-1.1003477867190472
7.000000000000672,-0.9355251220387614,-1.1268885101648023
7.200000000000739,-1.0020368607515076,-1.1662701111361675
7.400000000000806,-1.071361731232982,-1.199441974721113
7.600000000000873,-1.136941428492328,-1.2149150559726443
7.8000000000009395,-1.197607600119447,-1.2069522655486522
8.000000000001005,-1.246648991561337,-1.164410085254422
8.200000000000895,-1.2760301121879352,-1.1100254991685155
8.400000000000784,-1.291003452400341,-1.050869595343325
8.600000000000673,-1.3016526613797423,-0.9873384146596867
8.800000000000562,-1.2742827242579344,-0.9229905927020936
9.000000000000451,-1.2224139912188148,-0.871189011666419
9.20000000000034,-1.1578158659791427,-0.8280932506271669
9.40000000000023,-1.0878149306981955,-0.7921511402125601
9.600000000000119,-0.999221580410339,-0.7682178927743302
9.800000000000008,-0.9230331361203534,-0.7383427494959957
10.000999999999896,-0.8542504402015937,-0.7067482472624594
10.200999999999786,-0.7866185124792126,-0.7064010192796235
10.400999999999675,-0.7224635713057682,-0.730478667844803
10.600999999999564,-0.6727771743795437,-0.7688887313458487
10.800999999999453,-0.6348637461629778,-0.8178611876014102
11.000999999999342,-0.6199768290315104,-0.8691249079000704
11.200999999999231,-0.6388985650290658,-0.9260215593780997
11.40099999999912,-0.6726012475080169,-0.9820432876511416
11.60099999999901,-0.7151767504329198,-1.0227852352354432
11.800999999998899,-0.7698175393349199,-1.0293147047165798
12.000999999998788,-0.828793815485809,-1.0169350184741637
12.200999999998677,-0.8838544324022681,-0.9877111619076017
12.400999999998566,-0.9317233055018522,-0.9380458030612948
12.600999999998455,-0.9732687939211103,-0.8836761222903298
12.800999999998345,-0.993507007500557,-0.8264288305826071
13.000999999998234,-0.9786963190764866,-0.768147340382457
13.200999999998123,-0.9553560163719719,-0.7029551389652383
13.400999999998012,-0.9333138501961445,-0.645049462208869
13.600999999997901,-0.897057705419744,-0.5965958006160129
13.80099999999779,-0.8332086245891825,-0.5649586528118955
14.00099999999768,-0.7700155508089379,-0.5445101367426235
14.200999999997569,-0.7078603088730329,-0.5243357389822507
14.400999999997458,-0.6445515815002921,-0.5085546983941446
14.600999999997347,-0.587860771582365,-0.4907146524578371
14.800999999997236,-0.5234863979912958,-0.49531081654360004
15.000999999997125,-0.4605308231339485,-0.5081074981495889
15.200999999997014,-0.4031488027363009,-0.5221865300761577
15.400999999996904,-0.358824608345384,-0.5594939113830896
15.600999999996793,-0.3396399353447067,-0.6089591133048337
15.800999999996682,-0.34560724859503145,-0.6624908094238507
16.000999999996573,-0.35401161943844034,-0.7217650196759093
16.200999999996817,-0.3806765489274265,-0.7826260179067722
16.40099999999706,-0.4319011987587918,-0.8369758526743819
16.600999999997306,-0.4904503266031108,-0.8965217432158916
16.80099999999755,-0.5498327501308894,-0.9539457612568271
17.000999999997795,-0.6010201218715036,-1.0093155286889464
17.20099999999804,-0.6532423138164932,-1.0624086875284038
17.400999999998284,-0.7182943599028797,-1.107523960668258
17.60099999999853,-0.7873410584015362,-1.142611507540163
17.800999999998773,-0.8535416892268083,-1.1769732886019793
18.000999999999017,-0.9220573966985621,-1.1914561370023584
18.20099999999926,-0.993069769196231,-1.2090053999997967
18.400999999999506,-1.0553669468294373,-1.2109620859962562
18.60099999999975,-1.1010929765904187,-1.1812677281976118
18.799999999999994,-1.1449461931015346,-1.155553260771022
19.000000000000238,-1.1897999223710998,-1.10630103184266
19.200000000000482,-1.2293107235233303,-1.0442845648116115
19.400000000000727,-1.256619340635274,-0.9735800570483808
19.60000000000097,-1.2687223890620678,-0.9021873903825799
19.800000000001216,-1.2588544138031939,-0.8367030527289357
20.00000000000146,-1.2252075404119833,-0.7746975402792727
