Time (s),X (m),Y (m)
0.001,-0.000795421750936344,0.00017906049427360518
0.20000000000000015,0.004458373904051665,-0.0009308098230992169
0.4000000000000003,0.006607285469585786,-0.0015674061472676262
0.6000000000000004,0.011200723373064762,-0.004325275171973148
0.8000000000000006,0.01727151914280283,-0.0013962397641095394
1.0000000000000007,0.035471704615548744,-0.0039877053300244525
1.2009999999999785,0.05375705350597602,-0.011434085182160427
1.4009999999999565,0.07445913207180595,-0.021777795290062015
1.6009999999999345,0.1048156843231121,-0.039342083047291955
1.8009999999999124,0.1285989382538481,-0.05970762930043082
2.0009999999998906,0.1623603844447984,-0.0766921684677216
2.2009999999998686,0.20291021032891518,-0.10165788106597787
2.4009999999998466,0.2279382226903825,-0.10805434671327853
2.6009999999998246,0.24098551819104902,-0.10912861221569582
2.8009999999998025,0.25923626009762535,-0.11217856088413238
3.0009999999997805,0.2797164545138232,-0.11852754034498324
3.2009999999997585,0.3039686034249651,-0.13542696925392586
3.4009999999997365,0.33999793460891947,-0.1564766322471055
3.6009999999997144,0.37744217180780953,-0.18189982383090222
3.8009999999996924,0.4094656682549344,-0.1919120855349526
4.000999999999671,0.44350088559133477,-0.2081871959664183
4.200999999999738,0.4734761947247377,-0.2308123064487732
4.400999999999804,0.4943578991766427,-0.24678786549573367
4.600999999999871,0.5100674236684581,-0.2748626784240322
4.800999999999938,0.5264043459878499,-0.3025182884053649
5.000000000000004,0.5368954249304003,-0.33363785101203924
5.200000000000071,0.536411447544071,-0.35345592262070025
5.400000000000138,0.5385478024163864,-0.37307479826822315
5.600000000000205,0.5410378919632821,-0.3990734101007956
5.800000000000272,0.5340103411265175,-0.4374072434476266
6.000000000000338,0.5205650516993565,-0.4737456056330322
6.200000000000405,0.5089793275633219,-0.5081127479961786
6.400000000000472,0.49292102374486213,-0.5420204684718133
6.600000000000539,0.4680017552642543,-0.5831416490457145
6.800000000000606,0.4528442860054456,-0.6171353295951054
7.000000000000672,0.4404703906953639,-0.6518880688760329
7.200000000000739,0.42366803081880466,-0.6762235450521968
7.400000000000806,0.39689344932145704,-0.6916053999066462
7.600000000000873,0.3779979989244483,-0.7000374040494912
7.8000000000009395,0.35808958501922206,-0.7018708274146935
8.000000000001005,0.3337392332721887,-0.6938144139606066
8.200000000000895,0.29754412660712853,-0.6876947226013824
8.400000000000784,0.2475883528313088,-0.6764580383651362
8.600000000000673,0.2029675405116408,-0.6638843862259054
8.800000000000562,0.15771562873712625,-0.6393595087095651
9.000000000000451,0.1050260103721877,-0.606184321728956
9.20000000000034,0.04813530754920352,-0.5712489670436335
9.40000000000023,-0.00320167317287092,-0.5357402711296839
9.600000000000119,-0.03216060386871547,-0.5049711481029443
9.800000000000008,-0.03340587641401446,-0.4671096614024621
10.000999999999896,-0.016291495486085047,-0.4171460474940669
10.200999999999786,0.0022780798887444115,-0.37325557539433546
10.400999999999675,0.017023996915779778,-0.3284083067675941
10.600999999999564,0.03728197261297131,-0.27487552775369
10.800999999999453,0.060048798554677214,-0.2290743952262069
11.000999999999342,0.0784430639284821,-0.18710051024493668
11.200999999999231,0.09598048438024114,-0.1420593602573279
11.40099999999912,0.12053754563170967,-0.09693185046307375
11.60099999999901,0.14313337932624653,-0.05706513908314698
11.800999999998899,0.16766157434849666,-0.01762093186921194
12.000999999998788,0.19227836853753927,0.020343613853395812
12.200999999998677,0.21929261812941417,0.06642466360241742
12.400999999998566,0.24641492822575867,0.11148201891671142
12.600999999998455,0.2704325307198673,0.15668087006075043
12.800999999998345,0.29981324994635006,0.20759678817419644
13.000999999998234,0.3363495406755853,0.26428055745097084
13.200999999998123,0.3709116733606818,0.31653457553850844
13.400999999998012,0.3977530869576782,0.3636352419178985
13.600999999997901,0.42939916161669545,0.41375290055462133
13.80099999999779,0.46280302375978416,0.44990897850340456
14.00099999999768,0.5100498072426743,0.4564539822177101
14.200999999997569,0.5590569401223314,0.4472736160447518
14.400999999997458,0.6081733705981555,0.42608327737353024
14.600999999997347,0.6581495842649087,0.39951674188644337
14.800999999997236,0.7086033434394713,0.37362890709821794
15.000999999997125,0.7495948532154586,0.35381037445096214
15.200999999997014,0.7930438681822415,0.3365401872995242
15.400999999996904,0.8391305054120647,0.3153232045476807
15.600999999996793,0.8777328025424684,0.29233391161891303
15.800999999996682,0.9111008943295704,0.27221834715822857
16.000999999996573,0.9383641924247049,0.24374333414095548
16.200999999996817,0.9477654778859486,0.20573667534703435
16.40099999999706,0.9435022266208798,0.16540594645359574
16.600999999997306,0.923208157228088,0.12171953821136275
16.80099999999755,0.8920472763123138,0.0705268502555587
17.000999999997795,0.8596317243167768,0.02010544350241158
17.20099999999804,0.8283760768806941,-0.030841156878134834
17.400999999998284,0.8068727929165487,-0.07231872943950936
17.60099999999853,0.7722245530056739,-0.09081957604978493
17.800999999998773,0.7290010395255023,-0.08713609232402805
18.000999999999017,0.6835626171593999,-0.07044169997329047
18.20099999999926,0.6336898294721127,-0.04688086568007275
18.400999999999506,0.585469209509264,-0.011863540161679885
18.60099999999975,0.5488614483240243,0.024818950016267678
18.799999999999994,0.5357652139921651,0.06445683613667039
19.000000000000238,0.5382164845880386,0.1042129633489148
19.200000000000482,0.5564919282443996,0.1529694559636836
19.400000000000727,0.586382580255225,0.20305621444377175
19.60000000000097,0.6161465314464273,0.261205146202531
19.800000000001216,0.6434302120443349,0.31110092949610213
20.00000000000146,0.6635641293532105,0.3441690409074968
