Time (s),X (m),Y (m)
0.001,0.0008829029745972832,0.0007899207378008392
0.20000000000000015,-0.0005618304025349027,-0.001276321906008475
0.4000000000000003,0.010040046864724678,0.00686322682822203
0.6000000000000004,0.020185851748269368,0.012777480832460941
0.8000000000000006,0.03417333147550231,0.012703681899883995
1.0000000000000007,0.05081169147621072,0.014936615731076335
1.2009999999999785,0.07174411757264505,0.024565850002758023
1.4009999999999565,0.1075936035251638,0.039049237837177994
1.6009999999999345,0.14067174469276597,0.044411323704916926
1.8009999999999124,0.17315880136718811,0.06084889480140645
2.0009999999998906,0.2050275568217627,0.08976680854447912
2.2009999999998686,0.23241635793932183,0.10872450456045767
2.4009999999998466,0.2578486550315887,0.1293802823773254
2.6009999999998246,0.2768876543152109,0.16714243900165204
2.8009999999998025,0.29334569837281593,0.21347991149816462
3.0009999999997805,0.30870233194683744,0.24271206703388487
3.2009999999997585,0.3237930389386342,0.271390092763605
3.4009999999997365,0.343568788272833,0.2915433245403914
3.6009999999997144,0.36318319955886097,0.3267640122217341
3.8009999999996924,0.38421125302199355,0.36605334800081274
4.000999999999671,0.4174425207190101,0.40620095108818266
4.200999999999738,0.45886302817104435,0.44051712482192157
4.400999999999804,0.5052592409338521,0.4671692344091001
4.600999999999871,0.5494390303324196,0.4838599927465188
4.800999999999938,0.5932643403658588,0.5037618863871527
5.000000000000004,0.6387326175841673,0.5300175416183623
5.200000000000071,0.6751518950256629,0.5657304710809027
5.400000000000138,0.7115158528865478,0.5965678368057317
5.600000000000205,0.7565746913232937,0.628708499945106
5.800000000000272,0.8050226733366631,0.6665148513703584
6.000000000000338,0.8516449606820177,0.7055684199280465
6.200000000000405,0.8992444145678649,0.7422251270888437
6.400000000000472,0.9458189105366219,0.77356600452872
6.600000000000539,0.9995779248562513,0.8070498202577389
6.800000000000606,1.0525467441613978,0.837501342334127
7.000000000000672,1.1038616329804163,0.8740280787053476
7.200000000000739,1.1519428965335008,0.9212390944240726
7.400000000000806,1.1849485362142804,0.9730886102471344
7.600000000000873,1.2095345859927056,1.0282280073100414
7.8000000000009395,1.23041612570879,1.0805083316136255
8.000000000001005,1.2487577545380768,1.1171420605776934
8.200000000000895,1.274712196155884,1.167915569950055
8.400000000000784,1.3050747309626682,1.2236520588632223
8.600000000000673,1.3479155046006652,1.258880494026512
8.800000000000562,1.3975664785378654,1.2966107871208892
9.000000000000451,1.4461270117674727,1.3184570509709814
9.20000000000034,1.4901048736896871,1.336450504024461
9.40000000000023,1.5394087544521828,1.35880459802546
9.600000000000119,1.5936203531297155,1.3834680007609648
9.800000000000008,1.6577276701849888,1.4196788604533188
10.000999999999896,1.7213315541687289,1.4581550449149276
10.200999999999786,1.785004604200992,1.491629645130244
10.400999999999675,1.8465997928284115,1.5176562958759368
10.600999999999564,1.9002199078563435,1.534137471685326
10.800999999999453,1.9564277269445185,1.5510515630029689
11.000999999999342,2.0065104069200346,1.5527330084604818
11.200999999999231,2.0605418636904833,1.5570550987099194
11.40099999999912,2.119592286312358,1.5595340509740798
11.60099999999901,2.1791246918061273,1.553305416756154
11.800999999998899,2.2255276683270595,1.5494911771506645
12.000999999998788,2.2799372336945414,1.5399634035843266
12.200999999998677,2.323218751394028,1.5248465336173502
12.400999999998566,2.3850650955128567,1.5088448628053892
12.600999999998455,2.4439627740841456,1.4903612159121402
12.800999999998345,2.503376525656585,1.4815876469473064
13.000999999998234,2.561443860852357,1.4814624970256998
13.200999999998123,2.6124351127034755,1.4728349702260712
13.400999999998012,2.6762412251439356,1.4527674080622275
13.600999999997901,2.733302570464109,1.4254036586921313
13.80099999999779,2.7748170395639855,1.3981763925269932
14.00099999999768,2.8299351080724566,1.3655323141341622
14.200999999997569,2.892478288686326,1.328157609400887
14.400999999997458,2.9388665652080337,1.2972358325976414
14.600999999997347,2.9911761832778296,1.272710613431778
14.800999999997236,3.0461306528676473,1.2500447302579039
15.000999999997125,3.097158269217172,1.2213760059825256
15.200999999997014,3.1475630134538397,1.1926231448642355
15.400999999996904,3.1962780058014126,1.1695874000821733
15.600999999996793,3.255759570497259,1.1543303103833389
15.800999999996682,3.3193449981124497,1.1456508588791763
16.000999999996573,3.3784319671635528,1.1365548697264602
16.200999999996817,3.4247869980765206,1.124927711012024
16.40099999999706,3.4648157844679774,1.1106780946543733
16.600999999997306,3.515668605311391,1.0851106539492252
16.80099999999755,3.563722500750398,1.0584458659922402
17.000999999997795,3.6198458738634316,1.0381133013504085
17.20099999999804,3.677848274300785,1.0180758740078406
17.400999999998284,3.7346080376233113,0.9934018624383266
17.60099999999853,3.770476626555068,0.9569857472050711
17.800999999998773,3.821539900669263,0.9169748225181349
18.000999999999017,3.8580641840871293,0.8785144880222411
18.20099999999926,3.909854060296843,0.8473647623575974
18.400999999999506,3.9587938984767237,0.8209950721878487
18.60099999999975,4.015822116169101,0.805093033289738
18.799999999999994,4.080465549426053,0.8007542518007318
19.000000000000238,4.140055077739043,0.7992456028965088
19.200000000000482,4.203935133935739,0.7920691167286328
19.400000000000727,4.260727650881575,0.7826880235406726
19.60000000000097,4.312697947013947,0.7756111032492115
19.800000000001216,4.36204292021494,0.7590199632445628
20.00000000000146,4.427740429249793,0.7458467990492957
