Time (s),X (m),Y (m)
0.001,0.0010647643868879006,0.0005914538325516247
0.20000000000000015,-0.0016022574000904702,-0.0039825481656245824
0.4000000000000003,0.004484647394350483,-0.0047284098072304225
0.6000000000000004,0.02120214271816151,-0.0026588494532108153
0.8000000000000006,0.04730762431084556,-0.004798062081323339
1.0000000000000007,0.07759849518722133,-0.010671002476841806
1.2009999999999785,0.10157282084484279,-0.020357777290384127
1.4009999999999565,0.12749587476727364,-0.03867895776750139
1.6009999999999345,0.162591619935921,-0.07017937484697667
1.8009999999999124,0.19549321829345379,-0.10446451700005059
2.0009999999998906,0.22238945616370323,-0.13994120472672206
2.2009999999998686,0.25001147924183853,-0.17760472159428844
2.4009999999998466,0.27892979465518547,-0.20999764804926518
2.6009999999998246,0.31013823751307673,-0.2576480054812192
2.8009999999998025,0.33722927799192365,-0.3117325515361243
3.0009999999997805,0.348977836037055,-0.36304216160021435
3.2009999999997585,0.34301944986796684,-0.417347794478973
3.4009999999997365,0.320215363024244,-0.4681979782831773
3.6009999999997144,0.2888935057187317,-0.5151936613729159
3.8009999999996924,0.24942192132807037,-0.5566614118144549
4.000999999999671,0.20009999994657454,-0.597858063110391
4.200999999999738,0.13969759442089988,-0.6332901685802987
4.400999999999804,0.08493786429014837,-0.647721236389672
4.600999999999871,0.032523762989437204,-0.6341452526116946
4.800999999999938,-0.015723890169601656,-0.6061994264918926
5.000000000000004,-0.06368144611133511,-0.5670839494299311
5.200000000000071,-0.1063829902998701,-0.5246220104587292
5.400000000000138,-0.14742885189843052,-0.48276892734999854
5.600000000000205,-0.18936498584735983,-0.4339895289227205
5.800000000000272,-0.2277785370352877,-0.3861585858983525
6.000000000000338,-0.274655409785366,-0.3366587774574484
6.200000000000405,-0.3427708538053216,-0.2862034236013442
6.400000000000472,-0.40654503475169423,-0.2384219826887643
6.600000000000539,-0.47349870113270065,-0.2078614051584524
6.800000000000606,-0.5346502101911788,-0.18335516597045076
7.000000000000672,-0.5964584072783514,-0.14672238758520698
7.200000000000739,-0.6526407065522402,-0.10033332958311837
7.400000000000806,-0.6941563275894864,-0.045347525867871025
7.600000000000873,-0.7126779746579104,0.0205331456336495
7.8000000000009395,-0.7016929997249386,0.08312048537288153
8.000000000001005,-0.6739342493175937,0.14802288813947817
8.200000000000895,-0.640875701209551,0.20686028548056556
8.400000000000784,-0.5942016134018855,0.27403540881352945
8.600000000000673,-0.534957650832311,0.3509879638858184
8.800000000000562,-0.47519240250144185,0.4322045483164274
9.000000000000451,-0.4175629839179942,0.513157449859427
9.20000000000034,-0.3633823420388432,0.5938564171623154
9.40000000000023,-0.30664805296555514,0.6761796962659827
9.600000000000119,-0.2445939229691942,0.7531028375080154
9.800000000000008,-0.17997790086639456,0.8319914386366504
10.000999999999896,-0.11133704442400542,0.9109186987700151
10.200999999999786,-0.04284369769351029,0.9875374937325264
10.400999999999675,0.02595235059029931,1.0655519381565837
10.600999999999564,0.09632573985279155,1.1477767159000263
10.800999999999453,0.16730223426666554,1.2299356287337677
11.000999999999342,0.2402655727316484,1.3001710186206372
11.200999999999231,0.3220291047069815,1.3819311941957346
11.40099999999912,0.4043340918217764,1.4572889090943761
11.60099999999901,0.4892442627178205,1.5233290140776197
11.800999999998899,0.5829487509151637,1.589693602801926
12.000999999998788,0.6823825905958315,1.660237374720588
12.200999999998677,0.7776544619356585,1.7277638124715176
12.400999999998566,0.8699253116554864,1.789385033067117
12.600999999998455,0.9720737513120209,1.8410872512430105
12.800999999998345,1.0651593918633067,1.8677222940123233
13.000999999998234,1.142508706120236,1.8541797800346977
13.200999999998123,1.212132868583663,1.8193442233132755
13.400999999998012,1.2776807311142286,1.786242578490035
13.600999999997901,1.3385482994975684,1.764005688780172
13.80099999999779,1.4208238981053958,1.7374849332985636
14.00099999999768,1.5036130650914763,1.6920428210653915
14.200999999997569,1.5909864665416746,1.6309420980782454
14.400999999997458,1.6628978591562211,1.565214779611758
14.600999999997347,1.729505847733569,1.4860970366085133
14.800999999997236,1.7827904788449545,1.4106948424436756
15.000999999997125,1.8023119293067646,1.3461474944845049
15.200999999997014,1.7800306168194138,1.2799755052715844
15.400999999996904,1.739291805134096,1.218032039534273
15.600999999996793,1.677446548063515,1.1499275684682937
15.800999999996682,1.6074803594533285,1.086832044733281
16.000999999996573,1.5425310120301128,1.0470209395828707
16.200999999996817,1.4822357886267756,1.0215464680468345
16.40099999999706,1.4147246466562131,0.9999903908138527
16.600999999997306,1.3377808606467048,1.0059495626688777
16.80099999999755,1.2734560265162342,1.040836599913944
17.000999999997795,1.2001377703381673,1.0912283896665202
17.20099999999804,1.1304067257718842,1.1493575374686367
17.400999999998284,1.058391747726961,1.2152154576321925
17.60099999999853,0.9992825173698743,1.2811420341695472
17.800999999998773,0.9415474760096687,1.3510803926647623
18.000999999999017,0.8759004582783598,1.4275230846895453
18.20099999999926,0.8099344781809792,1.4993772317491432
18.400999999999506,0.7510147130669514,1.5700597781410204
18.60099999999975,0.6905255003515414,1.6520045966215955
18.799999999999994,0.6387926682644588,1.7440522505761815
19.000000000000238,0.623072427915122,1.8217154344948032
19.200000000000482,0.6369318105823033,1.8951678789648099
19.400000000000727,0.6736996179786735,1.958643403784407
19.60000000000097,0.7307900146876171,2.0233565175176627
19.800000000001216,0.7884839882827276,2.076222409047525
20.00000000000146,0.8509089827346887,2.12951302551439
