Time (s),X (m),Y (m)
0.001,-0.0008071636076123137,-8.987223813608066e-05
0.20000000000000015,0.0013667136493699572,-0.00025806731284285466
0.4000000000000003,0.007805628669034311,-0.0005174829908531411
0.6000000000000004,0.025487289085839436,-0.0045467971153257325
0.8000000000000006,0.05214336497079505,-0.016144043715098404
1.0000000000000007,0.078896331422949,-0.027299072364449384
1.2009999999999785,0.09692580124829975,-0.031026000528189865
1.4009999999999565,0.11366358575821149,-0.03869639868731292
1.6009999999999345,0.14125108735375583,-0.050591380102629986
1.8009999999999124,0.17843486600582265,-0.07802843163640642
2.0009999999998906,0.21678465799066304,-0.1072367447915566
2.2009999999998686,0.2539775944443936,-0.14248035196722253
2.4009999999998466,0.28463249401674456,-0.18290519591502044
2.6009999999998246,0.3068245759812408,-0.23319154022203467
2.8009999999998025,0.3154646325025617,-0.2777386860891728
3.0009999999997805,0.31417732573605467,-0.31703587850413506
3.2009999999997585,0.3008864047755442,-0.36196069392474395
3.4009999999997365,0.2873681240608829,-0.403816373679381
3.6009999999997144,0.27007012726507096,-0.4475337828022112
3.8009999999996924,0.24618342780169786,-0.4848656452428664
4.000999999999671,0.20502256043581063,-0.49681968818192135
4.200999999999738,0.16098895430404053,-0.4868073212617251
4.400999999999804,0.10488426410487818,-0.46353919809849436
4.600999999999871,0.046090096912478874,-0.43244652860328564
4.800999999999938,-0.00989746595007373,-0.3961525092527299
5.000000000000004,-0.06517477039334123,-0.35939338049631103
5.200000000000071,-0.11098686974917665,-0.3193033445008939
5.400000000000138,-0.12563933201167246,-0.2708448355082332
5.600000000000205,-0.11322694830531066,-0.21373964761948203
5.800000000000272,-0.08114715751747655,-0.15496893137726925
6.000000000000338,-0.046492275596445386,-0.09126125465851698
6.200000000000405,-0.010014741502450868,-0.026669964925141617
6.400000000000472,0.027050856246743218,0.035269126083647837
6.600000000000539,0.07142315591219521,0.09996889034065867
6.800000000000606,0.12306727449695344,0.1706597192117976
7.000000000000672,0.18009661063238414,0.23813658588499886
7.200000000000739,0.23612209476821316,0.28426810561258503
7.400000000000806,0.29342969533396696,0.2933966092107083
7.600000000000873,0.34573997289941094,0.27736053751916817
7.8000000000009395,0.3818317674281036,0.255161510491288
8.000000000001005,0.39634698856798595,0.23330290479033086
8.200000000000895,0.39620273561904434,0.2049094962138037
8.400000000000784,0.37532327176296676,0.1584824814123327
8.600000000000673,0.3401571723840354,0.1026986088098243
8.800000000000562,0.30382576691954577,0.04764401916574278
9.000000000000451,0.25043368247651654,0.00813484056311899
9.20000000000034,0.19974743566167907,-0.010089046018022567
9.40000000000023,0.1537960914089484,-0.008837611473558361
9.600000000000119,0.10390911746619139,0.011567231024669465
9.800000000000008,0.0514879593465702,0.039830318497678666
10.000999999999896,-0.006010007056555961,0.07925506368512944
10.200999999999786,-0.06445128766579827,0.13486162858406467
10.400999999999675,-0.11841737808164103,0.19850033070041698
10.600999999999564,-0.15333126923014198,0.2552802031136149
10.800999999999453,-0.15953174803217074,0.304307587001231
11.000999999999342,-0.14335156530800847,0.35320777266072984
11.200999999999231,-0.12421777874010659,0.3974442487546619
11.40099999999912,-0.10668757992509097,0.42576466965949145
11.60099999999901,-0.07468682562439301,0.4333633545224091
11.800999999998899,-0.03454666996698002,0.4215243979260685
12.000999999998788,0.005580389662179717,0.4061083370518832
12.200999999998677,0.044045607594946815,0.38253054201187503
12.400999999998566,0.07129170558426948,0.3384613179947865
12.600999999998455,0.0818523139679786,0.2956279311530161
12.800999999998345,0.08449745784600181,0.25052544209918304
13.000999999998234,0.08033722063552762,0.19444428456518767
13.200999999998123,0.057464236203843014,0.1279285422756072
13.400999999998012,0.021790247473934175,0.05136992151678921
13.600999999997901,-0.02130607378468546,-0.027670965919248464
13.80099999999779,-0.0737236660699742,-0.10750522451186953
14.00099999999768,-0.1393807644134609,-0.16640983710747884
14.200999999997569,-0.20886326540373962,-0.1850655872195839
14.400999999997458,-0.27008924618932173,-0.17833433382579125
14.600999999997347,-0.337306269582082,-0.14196978041685898
14.800999999997236,-0.4054157374911551,-0.09390776189361652
15.000999999997125,-0.45421033056434607,-0.050129038356964147
15.200999999997014,-0.47898584818242707,-0.014020125318252575
15.400999999996904,-0.48058022989875543,0.026079943220237663
15.600999999996793,-0.46564799948533275,0.06645769941818769
15.800999999996682,-0.434042694826904,0.117914777901522
16.000999999996573,-0.3943893906088504,0.17135721929956552
16.200999999996817,-0.34330500788626506,0.2310875652181663
16.40099999999706,-0.2965718855457101,0.28233191167986366
16.600999999997306,-0.24416732941153202,0.2970162869828667
16.80099999999755,-0.19696614565403384,0.29283269413707397
17.000999999997795,-0.149955086820555,0.2748831045993429
17.20099999999804,-0.1085573587868445,0.2582775089418587
17.400999999998284,-0.07215186734595827,0.21529221143507396
17.60099999999853,-0.035064943842179466,0.1631603584501211
17.800999999998773,-0.017286881817750354,0.11478427485117323
18.000999999999017,-0.020102911002978667,0.06515184187592486
18.20099999999926,-0.03306550653070984,0.013440575373771652
18.400999999999506,-0.050636407788510494,-0.03984167661747824
18.60099999999975,-0.06703215786201598,-0.09848807529014265
18.799999999999994,-0.09217856217015645,-0.1534842898481349
19.000000000000238,-0.11561231013891109,-0.20414056697890115
19.200000000000482,-0.14664778321316058,-0.2639746008737528
19.400000000000727,-0.1893845802432272,-0.32986794456968443
19.60000000000097,-0.2383029285901024,-0.39392154585863126
19.800000000001216,-0.2857906180751327,-0.439285157976115
20.00000000000146,-0.3444175018265188,-0.4584760482029812
