Time (s),X (m),Y (m)
0.001,0.00048696676677933824,-0.0009960320817112695
0.20000000000000015,0.0027703650826648965,0.0015513845885665855
0.4000000000000003,0.008070188452064033,0.0053055105578019715
0.6000000000000004,0.013213279937306815,0.003572178513997759
0.8000000000000006,0.02386148404319861,-0.0016066691353943444
1.0000000000000007,0.04150100358029003,-0.029790180613663744
1.2009999999999785,0.07429626391614345,-0.03690652024923152
1.4009999999999565,0.10902435870109972,-0.04329247590217214
1.6009999999999345,0.14192294566207567,-0.06906643954639369
1.8009999999999124,0.17853923154455,-0.10002162943695839
2.0009999999998906,0.21907750918733723,-0.13133238408998404
2.2009999999998686,0.24527315613979414,-0.17523651578583357
2.4009999999998466,0.25390518222476965,-0.22334654899419976
2.6009999999998246,0.25229246166870983,-0.26950097036965803
2.8009999999998025,0.2518082785782885,-0.3142360850806327
3.0009999999997805,0.2520388163751784,-0.3642787944058705
3.2009999999997585,0.2400281880799097,-0.4121627741177372
3.4009999999997365,0.21535701023532147,-0.4569961394573391
3.6009999999997144,0.18545437692212735,-0.49554173403263996
3.8009999999996924,0.15434065436700667,-0.5311901880167449
4.000999999999671,0.12839277887967526,-0.5702553887881852
4.200999999999738,0.09848275392874355,-0.6065803023672836
4.400999999999804,0.06680117797906401,-0.6283623863395695
4.600999999999871,0.02306556777365852,-0.6554446904802481
4.800999999999938,-0.019310237308968567,-0.6966032838969768
5.000000000000004,-0.05396031074217261,-0.7257494849390667
5.200000000000071,-0.09505576846656279,-0.7438495460662888
5.400000000000138,-0.1392848270277524,-0.766535183277201
5.600000000000205,-0.18708176203959845,-0.7797300262742126
5.800000000000272,-0.2274631498908975,-0.8043504738608107
6.000000000000338,-0.27461100442254727,-0.834034522790487
6.200000000000405,-0.3245198029740248,-0.8645109039084008
6.400000000000472,-0.3769721139914012,-0.8707491189587538
6.600000000000539,-0.425229405907,-0.8626672810467698
6.800000000000606,-0.4759243753871653,-0.8500900767910716
7.000000000000672,-0.5320897331212684,-0.8508298882909101
7.200000000000739,-0.5765485055175601,-0.8399093871194271
7.400000000000806,-0.6158991552058589,-0.802837870965267
7.600000000000873,-0.6504239410670425,-0.7494943531261524
7.8000000000009395,-0.6884524067562454,-0.7063795030963991
8.000000000001005,-0.7357121389654656,-0.6850953082630525
8.200000000000895,-0.7789678506321038,-0.6524644747783529
8.400000000000784,-0.8198349140598828,-0.6139825933974734
8.600000000000673,-0.8597731701223431,-0.5801211868612494
8.800000000000562,-0.8968074654354233,-0.5380335907240453
9.000000000000451,-0.9387238558720165,-0.5161503563295102
9.20000000000034,-0.9703757609021718,-0.48154373237605946
9.40000000000023,-1.0005711455623443,-0.44546791194512425
9.600000000000119,-1.0255104983752317,-0.3969955994759332
9.800000000000008,-1.056656647599562,-0.34975028694036536
10.000999999999896,-1.0821403755234178,-0.30533387776758447
10.200999999999786,-1.1024774557611126,-0.25641628236049235
10.400999999999675,-1.1015747792710953,-0.2073605834843825
10.600999999999564,-1.0763890602335309,-0.16316009343291563
10.800999999999453,-1.0415156437519697,-0.12357297883534558
11.000999999999342,-1.0067263480429032,-0.088170785936525
11.200999999999231,-0.9634841391603963,-0.061338898274166664
11.40099999999912,-0.9183744935681948,-0.039116261407826675
11.60099999999901,-0.8678557165268471,-0.03214838819148246
11.800999999998899,-0.8175461940705135,-0.04960538989441767
12.000999999998788,-0.7685761422256346,-0.07533262071473253
12.200999999998677,-0.7262454133721543,-0.10832083345776614
12.400999999998566,-0.6939265926602032,-0.1470938648247481
12.600999999998455,-0.6668829996213768,-0.19377479181865143
12.800999999998345,-0.6432297020832497,-0.24390856514921833
13.000999999998234,-0.6227089222405983,-0.2879496128401921
13.200999999998123,-0.593488929576005,-0.33259989638829807
13.400999999998012,-0.5715802815943621,-0.37820811324311704
13.600999999997901,-0.5495071110500093,-0.42562370480596323
13.80099999999779,-0.5497045666499695,-0.4716693984392907
14.00099999999768,-0.5536206388742373,-0.5179818947993996
14.200999999997569,-0.5755965484769712,-0.5586328713305115
14.400999999997458,-0.6034669489807262,-0.5984049087424191
14.600999999997347,-0.626826775274346,-0.6476253110240906
14.800999999997236,-0.6558378320981267,-0.7010163361586209
15.000999999997125,-0.6823208201195367,-0.7536839751111727
15.200999999997014,-0.7118335618938653,-0.795255123198464
15.400999999996904,-0.746743868414988,-0.8325265148169495
15.600999999996793,-0.7853109157839883,-0.8566929608975328
15.800999999996682,-0.8329582222062851,-0.8815903985271779
16.000999999996573,-0.8824650793311457,-0.9043169292551435
16.200999999996817,-0.9252154017540714,-0.9306579008025117
16.40099999999706,-0.9710123106161664,-0.9551814520032621
16.600999999997306,-1.0252344523374122,-0.9649305857278186
16.80099999999755,-1.081743123449397,-0.9671507601284731
17.000999999997795,-1.141358554175661,-0.956104116441629
17.20099999999804,-1.1995563320390168,-0.9307337563869044
17.400999999998284,-1.2559519426263959,-0.8979729228989857
17.60099999999853,-1.3109420561842564,-0.8708203265306474
17.800999999998773,-1.3563141697322767,-0.8307080893428902
18.000999999999017,-1.3955148514630797,-0.7877486845433848
18.20099999999926,-1.4298154296199703,-0.7476294104964313
18.400999999999506,-1.4531245783807183,-0.6976455423304366
18.60099999999975,-1.4645620571360627,-0.6494408182119168
18.799999999999994,-1.4564331777187567,-0.6009454090497447
19.000000000000238,-1.4243512458611611,-0.5519656358696264
19.200000000000482,-1.3931190510339244,-0.5046860932079466
19.400000000000727,-1.3614456116282239,-0.45906058842356257
19.60000000000097,-1.3313022477323757,-0.4146134683863328
19.800000000001216,-1.3010520592459938,-0.3691829176196929
20.00000000000146,-1.2790402435014443,-0.3242803367475766
