Time (s),X (m),Y (m)
0.001,0.0011546366250239817,-0.00043579054991000363
0.20000000000000015,0.0016429476222011195,0.001006546977055682
0.4000000000000003,0.0006456515224350821,0.001448182163790995
0.6000000000000004,0.0007975318052387523,0.0046657084197159575
0.8000000000000006,0.008961805696007182,0.0025739409068506617
1.0000000000000007,0.018008759724736752,0.002093082960937331
1.2009999999999785,0.022935441209988975,0.0003705634420617114
1.4009999999999565,0.026950507666489733,0.0003803815476732008
1.6009999999999345,0.02967269236580263,-4.356894038633525e-05
1.8009999999999124,0.03762718798623501,-0.0004920704766656328
2.0009999999998906,0.05207951011808312,-0.004476842565185795
2.2009999999998686,0.0628156049072009,-0.004136801393999309
2.4009999999998466,0.07339049900241315,-0.012325655161573764
2.6009999999998246,0.08804714985236199,-0.018835709173001473
2.8009999999998025,0.10627987041677461,-0.02764613141734894
3.0009999999997805,0.1280729184169574,-0.03511300802219114
3.2009999999997585,0.1479874606375164,-0.03785449771756601
3.4009999999997365,0.17603763960833574,-0.042206141336958096
3.6009999999997144,0.19530703139963124,-0.04371574151166521
3.8009999999996924,0.21038876995501055,-0.04616595111096796
4.000999999999671,0.2260776542118901,-0.053968992358164984
4.200999999999738,0.2413813677001373,-0.0543473724397501
4.400999999999804,0.25653520456557416,-0.055423995089837856
4.600999999999871,0.27082367011253317,-0.05537729683912167
4.800999999999938,0.28708881153480925,-0.05305912483611493
5.000000000000004,0.30107380297767844,-0.05168010795077129
5.200000000000071,0.3161253311607386,-0.052855712741145554
5.400000000000138,0.3378266893389015,-0.05867646708023733
5.600000000000205,0.35468884550207513,-0.06132710346206839
5.800000000000272,0.3833553996428985,-0.07718886251228738
6.000000000000338,0.406341691059656,-0.08504107668127749
6.200000000000405,0.4278439636992199,-0.08700197408812095
6.400000000000472,0.44234247772616975,-0.09186005196159208
6.600000000000539,0.4573495040377623,-0.09233242734456064
6.800000000000606,0.47546819977623517,-0.09562885540385106
7.000000000000672,0.4923364476823128,-0.09888393302718733
7.200000000000739,0.5140428778060423,-0.10724416896457316
7.400000000000806,0.5454731462646868,-0.12396339359007279
7.600000000000873,0.5630876552829532,-0.1274722921229714
7.8000000000009395,0.5769095515813287,-0.13327011132529026
8.000000000001005,0.5975513621960447,-0.14276370375402334
8.200000000000895,0.6130391420528049,-0.14349134825904816
8.400000000000784,0.6276426777261794,-0.14790339924711843
8.600000000000673,0.6468185016417574,-0.15743523458906877
8.800000000000562,0.6649880025501299,-0.1737481224314373
9.000000000000451,0.6886276523477523,-0.1849057688353745
9.20000000000034,0.706624142320283,-0.20219299059424176
9.40000000000023,0.724340150125432,-0.21723235827892554
9.600000000000119,0.7435612216855602,-0.23618657684725206
9.800000000000008,0.7621751338666295,-0.24632578530868143
10.000999999999896,0.7768704448737341,-0.25624345764997497
10.200999999999786,0.7883565574861661,-0.27463005345554015
10.400999999999675,0.7945539133247488,-0.2934707059367529
10.600999999999564,0.7964422646457514,-0.304456410338097
10.800999999999453,0.7984095485767319,-0.3150448937094448
11.000999999999342,0.8007568426173607,-0.3275714741451302
11.200999999999231,0.797965314688086,-0.3483690802495252
11.40099999999912,0.7963730877802867,-0.3654316953950131
11.60099999999901,0.7911638282767945,-0.38542521418040027
11.800999999998899,0.7853927775193659,-0.4030681145780925
12.000999999998788,0.7809197491792,-0.418921168462496
12.200999999998677,0.7796390146620665,-0.44241097520703154
12.400999999998566,0.7725916841220719,-0.4648836395461346
12.600999999998455,0.7673016422609871,-0.4831428441580785
12.800999999998345,0.7667230417007586,-0.4972689764096869
13.000999999998234,0.7580341228916386,-0.5216414454181122
13.200999999998123,0.7535844076916564,-0.5422077558816424
13.400999999998012,0.7452553094618175,-0.56579008975718
13.600999999997901,0.7311211257463319,-0.5921670754669563
13.80099999999779,0.7242968145444796,-0.6109293423973557
14.00099999999768,0.7135154304559498,-0.6389263634260025
14.200999999997569,0.7097137954307539,-0.6630152738942374
14.400999999997458,0.7027910219567812,-0.6877972730587633
14.600999999997347,0.6889198211245428,-0.7112716021305713
14.800999999997236,0.6761632745049578,-0.7305016755073861
15.000999999997125,0.6634489985816595,-0.7501760517037688
15.200999999997014,0.6498063283766674,-0.7726644493951392
15.400999999996904,0.6314190314057169,-0.7927131445632823
15.600999999996793,0.617274900881806,-0.8189715993864433
15.800999999996682,0.6034923981617115,-0.8365063998073192
16.000999999996573,0.5914705586697165,-0.8531867218882921
16.200999999996817,0.5819425280538587,-0.8683347124524475
16.40099999999706,0.5668908630679711,-0.8766453180155105
16.600999999997306,0.5510682055633723,-0.8913031972163179
16.80099999999755,0.5355358931599384,-0.9041034306670788
17.000999999997795,0.5147060792696339,-0.9139452626564928
17.20099999999804,0.4865640663459671,-0.9199735605936157
17.400999999998284,0.4630189737142798,-0.9214545783030256
17.60099999999853,0.4423345072598259,-0.9267814182570128
17.800999999998773,0.41936498596569816,-0.9294533166394099
18.000999999999017,0.39731524471813034,-0.9292215788488061
18.20099999999926,0.37865387711644893,-0.9266346769376343
18.400999999999506,0.35755112159177044,-0.9181773918323162
18.60099999999975,0.3373993751531761,-0.9119428957610431
18.799999999999994,0.31261357697972586,-0.9050828948185919
19.000000000000238,0.28804492368033263,-0.8985916783817943
19.200000000000482,0.2672754464763178,-0.8940024183895577
19.400000000000727,0.2364618116620274,-0.8832180139663428
19.60000000000097,0.21314065973136223,-0.8780324365387315
19.800000000001216,0.18820763035210825,-0.8684066122373097
20.00000000000146,0.16044151417413471,-0.8550208260963981
