Time (s),X (m),Y (m)
0.001,0.000949226864630559,-0.0007291460897812452
0.20000000000000015,0.0003738195001071733,0.0015167098357052806
0.4000000000000003,0.002590093285583031,0.00024435560664990287
0.6000000000000004,0.0073460948113365215,-0.0034703944499552748
0.8000000000000006,0.01972521146613327,-0.007722882575129459
1.0000000000000007,0.03491624350529058,-0.014180559711669155
1.2009999999999785,0.04440907341233268,-0.015218669936599953
1.4009999999999565,0.057692249701945315,-0.021701323806454825
1.6009999999999345,0.08447427951368369,-0.02175477798112087
1.8009999999999124,0.10875158891217414,-0.020387750798741215
2.0009999999998906,0.13352441287570171,-0.01452405479741995
2.2009999999998686,0.16075675292231686,-0.01892432625470643
2.4009999999998466,0.1859822929118808,-0.020493162394774056
2.6009999999998246,0.21434930051352574,-0.030132540452728396
2.8009999999998025,0.23420685890294832,-0.025042606012042976
3.0009999999997805,0.2466148689815257,-0.030294101200274693
3.2009999999997585,0.2594452316821513,-0.041727698457304896
3.4009999999997365,0.2721144243783812,-0.04188985053297879
3.6009999999997144,0.2843798897061179,-0.04061803917816273
3.8009999999996924,0.29945948205795797,-0.039985632466653834
4.000999999999671,0.30626562222719605,-0.04676446314814793
4.200999999999738,0.3055072022776262,-0.06758235631528488
4.400999999999804,0.31709458876892344,-0.07645158159102393
4.600999999999871,0.32325825477123876,-0.0782208609606558
4.800999999999938,0.3273285690963222,-0.0808577750148026
5.000000000000004,0.33903882246590467,-0.08653305835827542
5.200000000000071,0.35195257090777055,-0.09453678288309925
5.400000000000138,0.35888586166249203,-0.11612846098746737
5.600000000000205,0.36272625269706255,-0.1304903758226617
5.800000000000272,0.3711121522868351,-0.14386015962134852
6.000000000000338,0.37035095316015265,-0.16843420398068581
6.200000000000405,0.36765659534252554,-0.20134137620243892
6.400000000000472,0.3726137804821564,-0.2236912567601062
6.600000000000539,0.36562318069393585,-0.25981357178827147
6.800000000000606,0.3639553521545849,-0.2843379862391091
7.000000000000672,0.37223278088092127,-0.3003111008596102
7.200000000000739,0.37955329152686423,-0.31257213624409114
7.400000000000806,0.3860955687711097,-0.3315227950422031
7.600000000000873,0.38184981471195906,-0.3571852619656075
7.8000000000009395,0.3845147383310655,-0.3826019723830205
8.000000000001005,0.37277901504715333,-0.41950735107491854
8.200000000000895,0.36498005091309177,-0.4480987772036851
8.400000000000784,0.36680761211205587,-0.4754251779202941
8.600000000000673,0.3708508744110789,-0.4945356998459516
8.800000000000562,0.3679581433302957,-0.5135779030134117
9.000000000000451,0.3613173806972691,-0.5323695966168528
9.20000000000034,0.35446247204411857,-0.5508868184660671
9.40000000000023,0.3410530548642157,-0.5722440860232407
9.600000000000119,0.3327131991056839,-0.5941451112619821
9.800000000000008,0.30919806356422225,-0.6161746332911036
10.000999999999896,0.29329410714339404,-0.6290292624430219
10.200999999999786,0.2724817183627424,-0.6376015668287748
10.400999999999675,0.2541056748237605,-0.6440782374066477
10.600999999999564,0.2254894666883486,-0.6503636966447669
10.800999999999453,0.20025899033930772,-0.6550586101567969
11.000999999999342,0.1659565946326363,-0.6579658092356359
11.200999999999231,0.13217714984822396,-0.6584180994238472
11.40099999999912,0.10280608345413796,-0.6627089976122272
11.60099999999901,0.07278719136312783,-0.6692261708071523
11.800999999998899,0.050429041067192266,-0.6765312595551579
12.000999999998788,0.028059064928966683,-0.6753552424582904
12.200999999998677,0.007872014672139653,-0.67244761269766
12.400999999998566,-0.011716025402843526,-0.6820372344253255
12.600999999998455,-0.03723868749595011,-0.692289455442039
12.800999999998345,-0.06465730133062025,-0.6999855154656173
13.000999999998234,-0.0939764733457723,-0.707052132586072
13.200999999998123,-0.12397551581611305,-0.7099239337959252
13.400999999998012,-0.15225194162646058,-0.7113847060730508
13.600999999997901,-0.17640529955271447,-0.7135545475240667
13.80099999999779,-0.2091452441493757,-0.7131073236179933
14.00099999999768,-0.24121014720165015,-0.7111584042044994
14.200999999997569,-0.2611973401609751,-0.716086123239444
14.400999999997458,-0.28271228373367996,-0.7166328852372089
14.600999999997347,-0.3025749664650393,-0.7205628892610465
14.800999999997236,-0.3264914878922641,-0.7200137770986801
15.000999999997125,-0.35550398930481836,-0.7107355005115633
15.200999999997014,-0.39025674698693635,-0.698713139770325
15.400999999996904,-0.41921728065830144,-0.6860898576439369
15.600999999996793,-0.4480963126664104,-0.6871087632518311
15.800999999996682,-0.4833364532171727,-0.6781194104013031
16.000999999996573,-0.5097292806855286,-0.6780962550008398
16.200999999996817,-0.5299955781122803,-0.6764657587272171
16.40099999999706,-0.5596188744581652,-0.6814934480954042
16.600999999997306,-0.5826054786146653,-0.6797106551355444
16.80099999999755,-0.6068624409383501,-0.6674159859403305
17.000999999997795,-0.6292584233589497,-0.6532080518032629
17.20099999999804,-0.6466524377053352,-0.6296759476538991
17.400999999998284,-0.6585677686710147,-0.5999734619577839
17.60099999999853,-0.6722714339906476,-0.5769875204140674
17.800999999998773,-0.6771747880578382,-0.5523142539434324
18.000999999999017,-0.6793694037804084,-0.5198110542049398
18.20099999999926,-0.6877995191661276,-0.5035409117514525
18.400999999999506,-0.6853754862662629,-0.4843389438421999
18.60099999999975,-0.6912844165664909,-0.4647721018627864
18.799999999999994,-0.7002432970251776,-0.44093246830631194
19.000000000000238,-0.7021542245425075,-0.4015560611391664
19.200000000000482,-0.7020577097511219,-0.3705214018326054
19.400000000000727,-0.6978976414132194,-0.3414711720435027
19.60000000000097,-0.6938137051638109,-0.30853415515263616
19.800000000001216,-0.698543410957291,-0.28397917785398075
20.00000000000146,-0.7018475578615281,-0.2645508931271601
