Time (s),X (m),Y (m)
0.001,-0.00021570977506068912,0.0009345558501746678
0.20000000000000015,0.0020077582951226036,-0.0005535651618780598
0.4000000000000003,0.004198706015272954,0.005498941558125547
0.6000000000000004,0.018105102278025715,0.007269522275822951
0.8000000000000006,0.03914986083339254,0.018618385454233867
1.0000000000000007,0.06670218270997397,0.018136226071261183
1.2009999999999785,0.094133686856232,0.021643203735344375
1.4009999999999565,0.12769090874818548,0.01687625558721501
1.6009999999999345,0.16162283096977667,0.0012991444105049268
1.8009999999999124,0.19351811519354287,-0.024889134229102775
2.0009999999998906,0.21932091094308775,-0.05473822657407504
2.2009999999998686,0.24407411703812296,-0.08296871775012277
2.4009999999998466,0.24437374806839876,-0.1265683873127754
2.6009999999998246,0.23860233132851977,-0.17457670427532018
2.8009999999998025,0.2236837361604114,-0.22434232219198577
3.0009999999997805,0.21289649913993125,-0.27487895558545
3.2009999999997585,0.1814983639934181,-0.3198693545356847
3.4009999999997365,0.15752158582344955,-0.3659780262742799
3.6009999999997144,0.12088558494801072,-0.4063723845448567
3.8009999999996924,0.08479467646105956,-0.4414774867423527
4.000999999999671,0.047071257369823705,-0.4758148688231453
4.200999999999738,0.006062395114791065,-0.5094168947831574
4.400999999999804,-0.04280106483308242,-0.5352819345224394
4.600999999999871,-0.09034359360286895,-0.5459254703187454
4.800999999999938,-0.14224658142428578,-0.5539359352856698
5.000000000000004,-0.19103154223426774,-0.551785546126061
5.200000000000071,-0.2400629193181594,-0.5478893770605496
5.400000000000138,-0.28648029828931965,-0.5194566557507239
5.600000000000205,-0.32348283521585824,-0.4833927403601956
5.800000000000272,-0.35885760118445753,-0.44838543322060664
6.000000000000338,-0.39654248280214177,-0.41284277064710645
6.200000000000405,-0.4339109827001896,-0.3615319612005827
6.400000000000472,-0.47070971788352634,-0.32212090918666997
6.600000000000539,-0.5126546178429008,-0.2872283196642581
6.800000000000606,-0.5601034790456683,-0.26086701769575
7.000000000000672,-0.6062071229562582,-0.24104290107895204
7.200000000000739,-0.6476447252910699,-0.20825746789738508
7.400000000000806,-0.6823888625792633,-0.16141757365683743
7.600000000000873,-0.7199949425773702,-0.12127064660557066
7.8000000000009395,-0.754978935280996,-0.07426063463053499
8.000000000001005,-0.7957688037127246,-0.0335588277641161
8.200000000000895,-0.840357706316976,0.006470781528991587
8.400000000000784,-0.8886650111917653,0.043025107184013624
8.600000000000673,-0.9384082653037057,0.08342594309127978
8.800000000000562,-0.9895656381680716,0.12091949754744141
9.000000000000451,-1.0423957203686778,0.15656254002370945
9.20000000000034,-1.0934479658589389,0.18051091516927908
9.40000000000023,-1.1445366514274264,0.20519671272393697
9.600000000000119,-1.1962694407040295,0.22012182907057998
9.800000000000008,-1.2501743637283005,0.23029084318534754
10.000999999999896,-1.295772712150241,0.2585456498626499
10.200999999999786,-1.3343916089106431,0.2863667854085695
10.400999999999675,-1.368575904864748,0.3231002390801999
10.600999999999564,-1.4034971643672938,0.3707377320857612
10.800999999999453,-1.4420687387377107,0.4227646048686825
11.000999999999342,-1.4852331581822509,0.47537662424056976
11.200999999999231,-1.5349773529167825,0.5199243615454903
11.40099999999912,-1.5911547905272956,0.554405775763093
11.60099999999901,-1.648117924937852,0.5880509107139024
11.800999999998899,-1.701276939322889,0.6230202824556041
12.000999999998788,-1.746301318610803,0.6617777928247894
12.200999999998677,-1.7858297172586541,0.7060573449341108
12.400999999998566,-1.8245852254411348,0.7489265435342162
12.600999999998455,-1.862563985419006,0.8016643745541369
12.800999999998345,-1.9016659742432342,0.8603258756434431
13.000999999998234,-1.9431542410312879,0.9141746567021947
13.200999999998123,-1.9879823911878614,0.9705852899284133
13.400999999998012,-2.028519257356403,1.0386715832525923
13.600999999997901,-2.0665051654182474,1.1059454559575246
13.80099999999779,-2.106350523873496,1.1777018346431196
14.00099999999768,-2.1445814510336514,1.2354161238710881
14.200999999997569,-2.184612600299959,1.2596225455681134
14.400999999997458,-2.2319146780193937,1.2855637603509558
14.600999999997347,-2.2814396645890938,1.3296880975092331
14.800999999997236,-2.3304749509660443,1.3749367982713334
15.000999999997125,-2.3689931895226692,1.4243972964671074
15.200999999997014,-2.398920519849105,1.4817674427643324
15.400999999996904,-2.4305231399592127,1.5378100006774085
15.600999999996793,-2.4629662757659605,1.5730811328490772
15.800999999996682,-2.4964216788664184,1.612748776944034
16.000999999996573,-2.532777115777865,1.6493911922397768
16.200999999996817,-2.569591600234539,1.6807034734956101
16.40099999999706,-2.607635349489855,1.7066127724595248
16.600999999997306,-2.649655729803503,1.7363845918382463
16.80099999999755,-2.695944602989456,1.7812821089481223
17.000999999997795,-2.747228704570374,1.816749239376786
17.20099999999804,-2.7981918919556157,1.830847639138824
17.400999999998284,-2.84605829003306,1.8548278983987785
17.60099999999853,-2.8838754188936893,1.8740379837845846
17.800999999998773,-2.913595459096787,1.9062019770377163
18.000999999999017,-2.9321815037638994,1.9542116909955118
18.20099999999926,-2.946902229002628,2.0036330016275734
18.400999999999506,-2.956524691995613,2.0514012167371503
18.60099999999975,-2.9458000908491697,2.100813504223442
18.799999999999994,-2.9133966364006647,2.148556947013027
19.000000000000238,-2.8886882208046014,2.195555064653007
19.200000000000482,-2.8563265945039014,2.236933060669865
19.400000000000727,-2.8170234666818716,2.2768249817326893
19.60000000000097,-2.775178183080486,2.3153893111987793
19.800000000001216,-2.7313079182162507,2.3516568733068275
20.00000000000146,-2.693559979213096,2.393289744700646
