Time (s),X (m),Y (m)
0.001,0.0003099530129853942,-0.0010272443824616275
0.20000000000000015,0.0028978081208635973,0.006030576888374948
0.4000000000000003,0.009987487613624967,0.007149582202379256
0.6000000000000004,0.02541394149860562,0.021522900563566944
0.8000000000000006,0.04616984993120564,0.03514727718271792
1.0000000000000007,0.07115232346992427,0.04942330378347886
1.2009999999999785,0.10310655915330286,0.047052952975243666
1.4009999999999565,0.13643408514917196,0.030763771721602905
1.6009999999999345,0.17452460192758285,0.030708732767816202
1.8009999999999124,0.1977946976714347,0.001942968539390371
2.0009999999998906,0.22414496330427744,-0.015709980409044547
2.2009999999998686,0.24966367103704862,-0.028055882590688603
2.4009999999998466,0.2714475858612976,-0.04923180129572866
2.6009999999998246,0.29080609008534314,-0.06806260824518803
2.8009999999998025,0.3240450576068854,-0.09595427537141367
3.0009999999997805,0.3623437461804665,-0.10879663973629328
3.2009999999997585,0.403390333180079,-0.11393547678405025
3.4009999999997365,0.435932688493683,-0.11988913161194548
3.6009999999997144,0.4684647740720964,-0.12770374592301767
3.8009999999996924,0.49333362862417784,-0.14898043514258327
4.000999999999671,0.5237527569164973,-0.16930309311260053
4.200999999999738,0.555141028867684,-0.19114383188574272
4.400999999999804,0.5863074997853127,-0.2190865209911352
4.600999999999871,0.6135805014944781,-0.2517832809186849
4.800999999999938,0.6307205011976881,-0.2941386620757718
5.000000000000004,0.6333417312803791,-0.33486725633729186
5.200000000000071,0.621754316661737,-0.3525383762851751
5.400000000000138,0.5953621216180471,-0.35650588201619926
5.600000000000205,0.5608785931536336,-0.3424094828046315
5.800000000000272,0.5154353927996724,-0.34512327233314083
6.000000000000338,0.4914540449739486,-0.33869996903340266
6.200000000000405,0.479644935095214,-0.31622180960964996
6.400000000000472,0.47767331904786403,-0.279248025283633
6.600000000000539,0.48622262622485707,-0.23565762671609303
6.800000000000606,0.5024008324238239,-0.19544013558173756
7.000000000000672,0.5221300470147181,-0.16370141784368972
7.200000000000739,0.544148477474804,-0.13932089059054356
7.400000000000806,0.5669348745406919,-0.11225460660784921
7.600000000000873,0.5916740806867093,-0.08501538209338289
7.8000000000009395,0.6327144024466302,-0.0656235821592641
8.000000000001005,0.669633819239177,-0.06048121850703969
8.200000000000895,0.7048029388548942,-0.057574259643379894
8.400000000000784,0.7420486725068429,-0.053671738343999534
8.600000000000673,0.7840520516886565,-0.05162226691121529
8.800000000000562,0.8190487491765693,-0.05359957520970152
9.000000000000451,0.8510668406946147,-0.085673035223318
9.20000000000034,0.8876335478236167,-0.11478010499905106
9.40000000000023,0.9215214038152459,-0.12622938911907047
9.600000000000119,0.9527195866623345,-0.1430232248032509
9.800000000000008,0.9855394526602643,-0.15389637343285711
10.000999999999896,1.0219401698152466,-0.14468779425485015
10.200999999999786,1.068432780721351,-0.13551750702900817
10.400999999999675,1.1065290574232813,-0.15010172601786237
10.600999999999564,1.1508680952269195,-0.1641356614088627
10.800999999999453,1.198866512189231,-0.17259027893625536
11.000999999999342,1.2452741965409864,-0.17124890482855817
11.200999999999231,1.287737347642928,-0.17676525521215206
11.40099999999912,1.3362389026514416,-0.19411380715608548
11.60099999999901,1.3816494503970034,-0.20816096773801063
11.800999999998899,1.426361320731227,-0.22276657733061359
12.000999999998788,1.4689662704402744,-0.24250743192691548
12.200999999998677,1.5146962319603647,-0.2502526000034553
12.400999999998566,1.567359882612844,-0.2644887939143343
12.600999999998455,1.6175264390078203,-0.28928209832145074
12.800999999998345,1.6599629631175932,-0.3185742554304915
13.000999999998234,1.6876483422915534,-0.3506828223240539
13.200999999998123,1.700412572747226,-0.39182275548352874
13.400999999998012,1.6951278225885635,-0.4304100940116202
13.600999999997901,1.6793375051127706,-0.46812408213662
13.80099999999779,1.6547191568332393,-0.49262512213395765
14.00099999999768,1.6238607152293112,-0.49317911798179204
14.200999999997569,1.583705902807473,-0.4858030852182383
14.400999999997458,1.5399561355116924,-0.47271155487597866
14.600999999997347,1.505178339661298,-0.443316539674946
14.800999999997236,1.472637801408642,-0.41028178672034354
15.000999999997125,1.44749700876677,-0.3760983143736759
15.200999999997014,1.4392828560705069,-0.33730202539449616
15.400999999996904,1.4342794594155466,-0.29516515647266395
15.600999999996793,1.4415062483076293,-0.2508968389769999
15.800999999996682,1.470570119788809,-0.2129629528719065
16.000999999996573,1.4822988705260434,-0.17906605750671434
16.200999999996817,1.4898784244598564,-0.13964938588399642
16.40099999999706,1.5128060159907624,-0.09895245201081697
16.600999999997306,1.5430707853208065,-0.06386460134263294
16.80099999999755,1.5519296577832156,-0.02290648412978939
17.000999999997795,1.5491236368666372,0.027117876819104887
17.20099999999804,1.5470185493287298,0.07984042761047287
17.400999999998284,1.5556159571253527,0.12458540102215161
17.60099999999853,1.5716928467339475,0.17092220712282982
17.800999999998773,1.5847919108954303,0.2138190592202396
18.000999999999017,1.6032039655630719,0.2581342566350445
18.20099999999926,1.6290045772239525,0.3019970718637943
18.400999999999506,1.6606729952753765,0.34691773871656045
18.60099999999975,1.6937880165813062,0.3913657553751239
18.799999999999994,1.723345344046095,0.4314772777569679
19.000000000000238,1.7457918915878512,0.477569897102591
19.200000000000482,1.77713495611137,0.5120925301505452
19.400000000000727,1.8170888177025994,0.5401118694820923
19.60000000000097,1.8472179906386479,0.5760756842859097
19.800000000001216,1.8854853339281512,0.6125150749295247
20.00000000000146,1.9212484400296213,0.6444299817458887
