Time (s),X (m),Y (m)
0.001,-0.00021570977506068912,-0.0009345558501746678
0.20000000000000015,0.0026514243881533787,0.0005032965224157757
0.4000000000000003,0.008860520359942137,-0.00024119748928861693
0.6000000000000004,0.025771373644507732,-0.010756981248614407
0.8000000000000006,0.05157854449257778,-0.021584584117986028
1.0000000000000007,0.08157369615600467,-0.031393746836491494
1.2009999999999785,0.11482821447149004,-0.025966490061122206
1.4009999999999565,0.14211047084737502,-0.02443435123467955
1.6009999999999345,0.1699257209545178,-0.033184496362837095
1.8009999999999124,0.2036676006777416,-0.02642274249255451
2.0009999999998906,0.24221569475289875,-0.023762958744585096
2.2009999999998686,0.2787565467875316,-0.02923544343481631
2.4009999999998466,0.3045729495588558,-0.05789715295134896
2.6009999999998246,0.33119294733690086,-0.10683821001231211
2.8009999999998025,0.34599953505780257,-0.15292965998279298
3.0009999999997805,0.36452620335112373,-0.20456826263117625
3.2009999999997585,0.3962420796322018,-0.256557558142558
3.4009999999997365,0.42625205042979214,-0.3099196791991926
3.6009999999997144,0.4474712182165935,-0.36423239142951724
3.8009999999996924,0.48504510129028544,-0.4154910431250999
4.000999999999671,0.5278358760468115,-0.4624102015171533
4.200999999999738,0.5732571361458781,-0.5036868233753077
4.400999999999804,0.6199334913525225,-0.5477810567670015
4.600999999999871,0.6511737478548977,-0.5983927759430102
4.800999999999938,0.6732079659912665,-0.6537665801235544
5.000000000000004,0.698054492385765,-0.7031061676084055
5.200000000000071,0.7382402753319617,-0.763451589585531
5.400000000000138,0.791060962244442,-0.8316927522330845
5.600000000000205,0.8466843180040112,-0.8995710176161408
5.800000000000272,0.8883489636465084,-0.9685606828167387
6.000000000000338,0.9268994996952019,-1.0381346780733003
6.200000000000405,0.9525932428426614,-1.1093739577300246
6.400000000000472,0.9830654294105818,-1.1828384108508223
6.600000000000539,1.051313150304748,-1.2486936655259784
6.800000000000606,1.1230446649440844,-1.3179962162248864
7.000000000000672,1.1891757105393395,-1.3955900937449184
7.200000000000739,1.2742747183167178,-1.468765755583716
7.400000000000806,1.3574239263216923,-1.5333178387070803
7.600000000000873,1.4188964905092658,-1.6056597443986949
7.8000000000009395,1.4692972314147705,-1.686267077602292
8.000000000001005,1.5045522267041085,-1.7676848782378909
8.200000000000895,1.529244987126709,-1.8411404939724392
8.400000000000784,1.538127088432349,-1.9114018909634427
8.600000000000673,1.519356789275088,-1.9582273729942803
8.800000000000562,1.4813469077641175,-1.977602386986269
9.000000000000451,1.4332230130149737,-1.9960520338494347
9.20000000000034,1.3705884689652175,-2.0210021087273957
9.40000000000023,1.3008885603030325,-2.0597294111865545
9.600000000000119,1.229055487680531,-2.1048667371660916
9.800000000000008,1.1561049510503203,-2.148893318871183
10.000999999999896,1.0705014958412706,-2.1888415023856864
10.200999999999786,0.9718534658181103,-2.2248973842328947
10.400999999999675,0.8833182553355081,-2.2480975519605413
10.600999999999564,0.8060283313933155,-2.277919321989447
10.800999999999453,0.7362559141858828,-2.297869208405512
11.000999999999342,0.6788450109538822,-2.2984217362931725
11.200999999999231,0.6395196359697303,-2.2757788560843797
11.40099999999912,0.5945762087465498,-2.233210923790333
11.60099999999901,0.5349990316648428,-2.1901022933851833
11.800999999998899,0.4715693727978409,-2.1552740465624134
12.000999999998788,0.40498077672853106,-2.115387593775153
12.200999999998677,0.34738442119310137,-2.0604847315689803
12.400999999998566,0.3041206361545876,-1.992731900622593
12.600999999998455,0.2688499600572755,-1.9161080316213048
12.800999999998345,0.2403812763098161,-1.832524983921659
13.000999999998234,0.20387122929221047,-1.745819825601594
13.200999999998123,0.173204804993065,-1.6600792242168414
13.400999999998012,0.15188718713936583,-1.5800247539991121
13.600999999997901,0.1203796037626585,-1.489266061276727
13.80099999999779,0.07861981099244363,-1.3902642996942118
14.00099999999768,0.04202951618545192,-1.2950656113128487
14.200999999997569,0.01928140337111948,-1.2112543071816306
14.400999999997458,0.0010022580747346282,-1.1181716437736553
14.600999999997347,-0.00914567507711904,-1.0510282730164497
14.800999999997236,0.004125403768297038,-0.9963719770813275
15.000999999997125,0.02150499331480134,-0.9377648632167598
15.200999999997014,0.0504834714666405,-0.877638318572042
15.400999999996904,0.0950970599307539,-0.8395661395723446
15.600999999996793,0.14943154701783398,-0.8139365576248876
15.800999999996682,0.21411681286852385,-0.7960907176467857
16.000999999996573,0.2922398253957404,-0.7727265930270315
16.200999999996817,0.37967211738546386,-0.7373642884203379
16.40099999999706,0.46884235652968415,-0.6849499449218858
16.600999999997306,0.5516660330205431,-0.6318556904965935
16.80099999999755,0.6371181473952103,-0.5781633846093434
17.000999999997795,0.7267015006547429,-0.5374079858610175
17.20099999999804,0.8162236297271042,-0.5092298341682198
17.400999999998284,0.9035025240701564,-0.4858805801049622
17.60099999999853,0.9977173062691466,-0.47099942998571487
17.800999999998773,1.086784701961655,-0.46604962094988894
18.000999999999017,1.1868835019851776,-0.45728431538408626
18.20099999999926,1.2870770193383145,-0.43668421268652585
18.400999999999506,1.386712209292644,-0.40919352226125455
18.60099999999975,1.4819206851206457,-0.3913519160812705
18.799999999999994,1.5776266001395653,-0.36745184130936304
19.000000000000238,1.6734313502438645,-0.3395461343833865
19.200000000000482,1.7694905462016226,-0.30279525260521967
19.400000000000727,1.8554242178350069,-0.2399826653393108
19.60000000000097,1.9311459565652926,-0.16770827302517588
19.800000000001216,2.0037398764524563,-0.11535666852782102
20.00000000000146,2.0768878173626097,-0.08225929575179271
