Time (s),X (m),Y (m)
0.001,0.0011546366250239817,-0.00043579054991000363
0.20000000000000015,0.005881003940986345,-0.0014923059801806205
0.4000000000000003,0.005844852875355587,-0.0003037409090182832
0.6000000000000004,0.010700633944272224,-0.00036707422005527435
0.8000000000000006,0.01847390577759348,-0.0046826827532160924
1.0000000000000007,0.01535895953627491,-0.0027249983448548584
1.2009999999999785,0.016691660811500166,0.003348910197183056
1.4009999999999565,0.019647494573351663,0.001195852295188841
1.6009999999999345,0.021077563203430526,0.004040557695031639
1.8009999999999124,0.02428372075022311,0.0029276462731907074
2.0009999999998906,0.036194327070435184,0.002327070318418221
2.2009999999998686,0.04803800517089866,0.0015519031051935864
2.4009999999998466,0.06031392070423531,0.00014407000770174757
2.6009999999998246,0.06927398688835393,-0.002183001765764472
2.8009999999998025,0.07741142858357158,-0.004903701157491423
3.0009999999997805,0.08461356094269483,-0.0048230736871085565
3.2009999999997585,0.0945144923811899,-0.005617013298376593
3.4009999999997365,0.11217866027607584,-0.007944314111708024
3.6009999999997144,0.11926901299390058,-0.012923625313513418
3.8009999999996924,0.1283382224088031,-0.010557119313363294
4.000999999999671,0.13906838187120574,-0.009396469301661018
4.200999999999738,0.14583000680441682,-0.012176160846724592
4.400999999999804,0.15724959581724726,-0.013245162624922313
4.600999999999871,0.16763108552419512,-0.01317367909521655
4.800999999999938,0.17432936316938524,-0.012873240303384267
5.000000000000004,0.1869177316052624,-0.012789467492519982
5.200000000000071,0.19874088375201734,-0.012239772035466116
5.400000000000138,0.21087789775891522,-0.010219127420405818
5.600000000000205,0.22389028849771145,-0.007313636166824836
5.800000000000272,0.23632183301846701,-0.007886927778487063
6.000000000000338,0.2434910204381729,-0.007018108195293261
6.200000000000405,0.24918084890100473,-0.010267430178593781
6.400000000000472,0.2569386953274541,-0.01020218803802731
6.600000000000539,0.2688099252481342,-0.013396639874979865
6.800000000000606,0.2793667866566323,-0.012412625351714331
7.000000000000672,0.2901015249926013,-0.011237277532121665
7.200000000000739,0.2965242742685532,-0.01282327176446082
7.400000000000806,0.3068788239987982,-0.014522214376832964
7.600000000000873,0.31808657466243034,-0.014926661847543397
7.8000000000009395,0.3263909749577989,-0.0158865055505567
8.000000000001005,0.3391397685335422,-0.017806747170104435
8.200000000000895,0.3437304712909738,-0.015830350358391743
8.400000000000784,0.35390656014463956,-0.014460158937734122
8.600000000000673,0.3635714635554511,-0.014134441554805975
8.800000000000562,0.37358786058540105,-0.014096823069597942
9.000000000000451,0.389114570705805,-0.015498311204713136
9.20000000000034,0.39829419480910555,-0.014798370341305165
9.40000000000023,0.41214682065883274,-0.013959115160163516
9.600000000000119,0.42257536112484323,-0.015596983224984455
9.800000000000008,0.43572685691490043,-0.01902038368223296
10.000999999999896,0.4425944899452675,-0.021923943947767074
10.200999999999786,0.44800443766334724,-0.01955640170137735
10.400999999999675,0.45981943341304604,-0.020232378391126692
10.600999999999564,0.46864966538076785,-0.019103325730489153
10.800999999999453,0.4802049342138111,-0.01990629559336671
11.000999999999342,0.4900044797243615,-0.01975720438831198
11.200999999999231,0.5001752798754682,-0.02161398211675392
11.40099999999912,0.5097351045966315,-0.0219903995603939
11.60099999999901,0.5159847885005978,-0.021073947852452334
11.800999999998899,0.5253729387872662,-0.019939918178526195
12.000999999998788,0.5305664866866119,-0.0186586814814609
12.200999999998677,0.5406302927370019,-0.01898981813287631
12.400999999998566,0.5527901663796674,-0.019424826996468355
12.600999999998455,0.5613700398595037,-0.01859845730471219
12.800999999998345,0.5764825328167618,-0.018386021200517952
13.000999999998234,0.5901791035974637,-0.01889601801670613
13.200999999998123,0.5984536815660336,-0.018683448175875837
13.400999999998012,0.6187989152100278,-0.019081962432830897
13.600999999997901,0.6266412687712279,-0.0219473661880961
13.80099999999779,0.6405634192898454,-0.022664401429495665
14.00099999999768,0.6440314742377532,-0.020752563251962963
14.200999999997569,0.6556734541264542,-0.021650369676254805
14.400999999997458,0.6672468046756266,-0.02017729009986231
14.600999999997347,0.6813636708812121,-0.02212696878725962
14.800999999997236,0.6892279064913348,-0.023893260398511768
15.000999999997125,0.70200214565888,-0.02769407468987925
15.200999999997014,0.7106045203986298,-0.02751910269352109
15.400999999996904,0.7182551396054724,-0.02532438760226939
15.600999999996793,0.7281345423226762,-0.024219107461299107
15.800999999996682,0.7388192429874324,-0.024500767052271128
16.000999999996573,0.74730283691199,-0.025862954144580463
16.200999999996817,0.7565033653036057,-0.027167984962073222
16.40099999999706,0.7613881967721676,-0.023432717125287907
16.600999999997306,0.7737652876924747,-0.02181718603074723
16.80099999999755,0.7842740828261768,-0.019054248724050094
17.000999999997795,0.7978211390972972,-0.020248656761174676
17.20099999999804,0.8116393385502901,-0.01720587078287461
17.400999999998284,0.8236952613978716,-0.01728764396138967
17.60099999999853,0.8324880861482259,-0.015465143517480774
17.800999999998773,0.8415459855390737,-0.010304539450590492
18.000999999999017,0.853821427703411,-0.006389998883376266
18.20099999999926,0.8627016002767309,-0.0025411698792735487
18.400999999999506,0.8722926678602979,0.0021867364602912056
18.60099999999975,0.8775350154379062,0.007126458054272949
18.799999999999994,0.8865053495435675,0.010673601871147822
19.000000000000238,0.8957208384049968,0.01625354037324135
19.200000000000482,0.9052816604301352,0.023497408171810216
19.400000000000727,0.9126280053392333,0.0323797598620356
19.60000000000097,0.9266642471801163,0.03876512463416123
19.800000000001216,0.934095778285354,0.0434186465114509
20.00000000000146,0.9445076765130566,0.04853786690025443
