Time (s),X (m),Y (m)
0.001,0.0002200807748493132,-0.0010311682891199468
0.20000000000000015,0.002441642455403703,0.0026082227752554925
0.4000000000000003,0.013722440514038089,0.00697898173400047
0.6000000000000004,0.03480383550728507,-0.006230995339619475
0.8000000000000006,0.06873363262432687,-0.012481418625633857
1.0000000000000007,0.11860919276697819,-0.022842021099049592
1.2009999999999785,0.18125913614292266,-0.0350583152418305
1.4009999999999565,0.2484507256361114,-0.048855396072967905
1.6009999999999345,0.3214034596424505,-0.060355582120031254
1.8009999999999124,0.39686387141412505,-0.06937773090231739
2.0009999999998906,0.46733847431494724,-0.08535164991864921
2.2009999999998686,0.5115865802916347,-0.11667284722818148
2.4009999999998466,0.5412107426797094,-0.16650016457522565
2.6009999999998246,0.5513341090343151,-0.22396096380095307
2.8009999999998025,0.5522135289233776,-0.2811673140383228
3.0009999999997805,0.5362264905522636,-0.3237852035522526
3.2009999999997585,0.49421614381063855,-0.37082545688883894
3.4009999999997365,0.4341707126919283,-0.39653547612276985
3.6009999999997144,0.3610552057071859,-0.40653880993895763
3.8009999999996924,0.3149577210510989,-0.3981280483331434
4.000999999999671,0.2894980099413504,-0.3648074247492234
4.200999999999738,0.2796706420012887,-0.317644991058973
4.400999999999804,0.25299854212868866,-0.2549526720440842
4.600999999999871,0.22411891534235404,-0.18240218057941898
4.800999999999938,0.22019735227569606,-0.10461562564953367
5.000000000000004,0.22529691095164286,-0.022139039317747713
5.200000000000071,0.24498904416043313,0.035835670075789666
5.400000000000138,0.2945053457140914,0.07566239446691506
5.600000000000205,0.3480646089467155,0.09041229040093975
5.800000000000272,0.3846729948457308,0.08216598659986611
6.000000000000338,0.4036811721944971,0.04425820261452092
6.200000000000405,0.4007899337957439,-0.005993309461837729
6.400000000000472,0.3831463129738339,-0.036205677798034276
6.600000000000539,0.3500514792076675,-0.06505843895822169
6.800000000000606,0.30082708161802774,-0.08176183088504622
7.000000000000672,0.24152435438995817,-0.08845727325952396
7.200000000000739,0.17242203289476404,-0.08710293283897713
7.400000000000806,0.10618957637834099,-0.0777315355473283
7.600000000000873,0.04452468587578578,-0.049436037324527664
7.8000000000009395,0.0027243317609312603,-0.0013973912730817595
8.000000000001005,-0.01686810056839304,0.054284131070276714
8.200000000000895,-0.023531122117747473,0.12042213231462992
8.400000000000784,-0.016094949704710065,0.172769331371453
8.600000000000673,0.006869504367332214,0.1933073883284234
8.800000000000562,0.04207505425113678,0.19066074948397232
9.000000000000451,0.0906764539731085,0.17410473359840445
9.20000000000034,0.14781232784209133,0.1377003422567769
9.40000000000023,0.1941211501895904,0.0840559668205991
9.600000000000119,0.22437363370520388,0.017562160465369334
9.800000000000008,0.2321180556079485,-0.037472779790587184
10.000999999999896,0.22447283601789983,-0.05466205205224071
10.200999999999786,0.19024604623850475,-0.05838522339658093
10.400999999999675,0.13358607738980308,-0.051203404811820855
10.600999999999564,0.08137867112794084,-0.01023104751655875
10.800999999999453,0.05805385648464117,0.04631755276472583
11.000999999999342,0.030530436235101703,0.12585564327303847
11.200999999999231,0.01862391561031664,0.1932243872364336
11.40099999999912,0.0389680770432274,0.22342568995787418
11.60099999999901,0.07612997366011452,0.23304943915314283
11.800999999998899,0.12238086508081511,0.21239319129446593
12.000999999998788,0.15428913909477435,0.1695232820587495
12.200999999998677,0.17375933116489678,0.10990698519800635
12.400999999998566,0.19517321451486191,0.031423534466364346
12.600999999998455,0.21043125350284844,-0.04279461268697871
12.800999999998345,0.21175920599310594,-0.08649793686518836
13.000999999998234,0.2004210562890485,-0.10482129617963892
13.200999999998123,0.20071023350681033,-0.10148798263802479
13.400999999998012,0.20048089441834813,-0.07587536217719167
13.600999999997901,0.20352201787095434,-0.04467721749508592
13.80099999999779,0.2320210568911934,-0.019719665169758236
14.00099999999768,0.28658479001983367,-0.006868640441745317
14.200999999997569,0.35000154760755314,-0.007064121977255726
14.400999999997458,0.39376285193990057,-0.022387349830698
14.600999999997347,0.41903662735472813,-0.060846014590941924
14.800999999997236,0.42337537766636807,-0.10560413757995415
15.000999999997125,0.4120383159478885,-0.12397610806653282
15.200999999997014,0.38414704044881903,-0.11406266253800641
15.400999999996904,0.33142899589128544,-0.09788679501795575
15.600999999996793,0.2617344724098992,-0.09552910032928175
15.800999999996682,0.19037743804407284,-0.11225455701800104
16.000999999996573,0.11411278811066443,-0.12161907678653255
16.200999999996817,0.04765133864639459,-0.12012803133899747
16.40099999999706,-0.014211800317429819,-0.1010586440856288
16.600999999997306,-0.04982448017888171,-0.061777476117901096
16.80099999999755,-0.07741383277935417,-0.013245354163748349
17.000999999997795,-0.0843436143014593,0.04861007904256725
17.20099999999804,-0.08902551680623465,0.13606672369874737
17.400999999998284,-0.07924005127231552,0.2133801480277916
17.60099999999853,-0.054840801261124596,0.255010723272518
17.800999999998773,-0.008867424275193488,0.2774094893952377
18.000999999999017,0.03847122098170327,0.2724648333346214
18.20099999999926,0.0730817682361345,0.2419928944714701
18.400999999999506,0.08312402830732889,0.2255315610577927
18.60099999999975,0.06378872017527148,0.20041072839451618
18.799999999999994,0.030890929732626866,0.1932873342840851
19.000000000000238,0.000951915004454589,0.20896289821177402
19.200000000000482,-0.026125257770774128,0.24003848589286889
19.400000000000727,-0.061984684693302435,0.2813019840569549
19.60000000000097,-0.10407015427233354,0.3333861958028696
19.800000000001216,-0.15607449525165262,0.3935316701081652
20.00000000000146,-0.18460509782441947,0.45865376656675994
