Time (s),X (m),Y (m)
0.001,0.0012512490639692614,0.0
0.20000000000000015,-0.0007458325846371364,0.00042688372953646273
0.4000000000000003,-0.0059253544947755294,-0.0008085780201499495
0.6000000000000004,-0.005577685272843256,0.0010029032072655531
0.8000000000000006,0.004630468617545657,0.0002045710410356541
1.0000000000000007,0.012878558010012742,-0.00012585587922086633
1.2009999999999785,0.025994317271596158,-0.0071301538932828975
1.4009999999999565,0.036895598832316065,-0.00756767759241654
1.6009999999999345,0.0448773961073418,-0.0024249324017419005
1.8009999999999124,0.052549585395478646,0.002367251076118791
2.0009999999998906,0.05597029949690161,0.0055604611197954505
2.2009999999998686,0.06950632909320781,0.005262272444541889
2.4009999999998466,0.07973421253790564,0.003067487604314969
2.6009999999998246,0.08761229086210993,-0.0012754457103407476
2.8009999999998025,0.10099057705015271,-0.008665403960922592
3.0009999999997805,0.10998642717801116,-0.01266942895739801
3.2009999999997585,0.12580497581445832,-0.021105510873986554
3.4009999999997365,0.14428876901960022,-0.025864039423137898
3.6009999999997144,0.15775702295588692,-0.03414057906907091
3.8009999999996924,0.1647156113263111,-0.03886523605100984
4.000999999999671,0.17529940903387017,-0.042539219474204026
4.200999999999738,0.1836661914879856,-0.050006733981067746
4.400999999999804,0.1904279348985794,-0.05973958300538586
4.600999999999871,0.19582502438788552,-0.06749459529976869
4.800999999999938,0.21020296359533958,-0.07871940578590411
5.000000000000004,0.22245983753846604,-0.08435799894685818
5.200000000000071,0.23254566354076242,-0.08540943714919384
5.400000000000138,0.24803054118023582,-0.09444517039717663
5.600000000000205,0.2548979357290092,-0.10065357045137799
5.800000000000272,0.2588677201863593,-0.10290074771261645
6.000000000000338,0.2762037251548634,-0.10506197571519499
6.200000000000405,0.30099405259666123,-0.11299649422654089
6.400000000000472,0.3143385993512699,-0.1148090936089426
6.600000000000539,0.33104850018796955,-0.1207098573626044
6.800000000000606,0.3453713785669061,-0.1276611828149647
7.000000000000672,0.3571333596039302,-0.13222597293020924
7.200000000000739,0.3652019385505834,-0.136605450408776
7.400000000000806,0.37953963470769403,-0.14033095952126803
7.600000000000873,0.4009504176341811,-0.14572928032213303
7.8000000000009395,0.4215190732677573,-0.15280285016653963
8.000000000001005,0.4426934988919416,-0.16426469095194796
8.200000000000895,0.4607258006881663,-0.1728720545445125
8.400000000000784,0.4822429412446231,-0.178233320327324
8.600000000000673,0.49862277627312507,-0.17986800209284562
8.800000000000562,0.5162856116853112,-0.1855378316045594
9.000000000000451,0.5347929226501554,-0.19353685985361258
9.20000000000034,0.5580663172442627,-0.2046162829210242
9.40000000000023,0.5786066189461679,-0.21567553718826196
9.600000000000119,0.6004425938422393,-0.22360806720998022
9.800000000000008,0.6244372964535349,-0.23325383065489871
10.000999999999896,0.6414327621498318,-0.2392456007481292
10.200999999999786,0.6614892697084519,-0.25057594807829303
10.400999999999675,0.6797379462045839,-0.2577877834132642
10.600999999999564,0.7048977918373837,-0.2723050714141416
10.800999999999453,0.7314709300082645,-0.28413628181183037
11.000999999999342,0.7529353874700903,-0.2936517312671607
11.200999999999231,0.7739725946560384,-0.2987742259331339
11.40099999999912,0.7931360453487573,-0.3093684668541336
11.60099999999901,0.8141052230202687,-0.32086358630707995
11.800999999998899,0.8290070739384826,-0.3307421657732061
12.000999999998788,0.8408575967260179,-0.3368180490678705
12.200999999998677,0.8620995983270576,-0.3554559711044152
12.400999999998566,0.8879201088436096,-0.36683918547699035
12.600999999998455,0.9058569208573772,-0.3810441397566899
12.800999999998345,0.929319007236538,-0.3990579070943158
13.000999999998234,0.9577264488696395,-0.41662973659824154
13.200999999998123,0.9734768952143157,-0.4256647126107171
13.400999999998012,0.9905657758883397,-0.444609231876342
13.600999999997901,1.0166410151085543,-0.46262688513473577
13.80099999999779,1.042931079497551,-0.4819310126956658
14.00099999999768,1.0668636423213198,-0.4958212073799204
14.200999999997569,1.0925127961327814,-0.5154863226377379
14.400999999997458,1.1132347121709902,-0.5297058150442069
14.600999999997347,1.1385415274498316,-0.5512405064361361
14.800999999997236,1.161223685611482,-0.5724951310229022
15.000999999997125,1.1785428494514363,-0.5895052715107425
15.200999999997014,1.2002253785231112,-0.6099102366133154
15.400999999996904,1.2183918950209711,-0.6310744246496585
15.600999999996793,1.240928184856298,-0.6491938366268512
15.800999999996682,1.2616012706887811,-0.663533957445946
16.000999999996573,1.2886224377319855,-0.6812274716230073
16.200999999996817,1.3130947223792842,-0.6999963495393933
16.40099999999706,1.3327041497057701,-0.7153018617277906
16.600999999997306,1.3546141333633746,-0.7338425274019427
16.80099999999755,1.375708265772568,-0.7476393441569988
17.000999999997795,1.390585199238404,-0.7590826831604356
17.20099999999804,1.405579489216488,-0.7778670109398259
17.400999999998284,1.4271982095146087,-0.7961837166715897
17.60099999999853,1.4451120386549345,-0.8169138190065164
17.800999999998773,1.4556691208813333,-0.833992385885521
18.000999999999017,1.4690085042328915,-0.85018646946311
18.20099999999926,1.4832292415828598,-0.8706632263405024
18.400999999999506,1.4978086424564505,-0.8891468347697401
18.60099999999975,1.512029219984089,-0.9125620845562152
18.799999999999994,1.5172226827833597,-0.934883983866535
19.000000000000238,1.5221262767860675,-0.9593481430920915
19.200000000000482,1.527360176224164,-0.9874366052068316
19.400000000000727,1.526211148589812,-1.0166922963756146
19.60000000000097,1.5208230044352704,-1.0492304396024057
19.800000000001216,1.5065784979925023,-1.07697763029202
20.00000000000146,1.4883133201496184,-1.1068692342152011
