Time (s),X (m),Y (m)
0.001,0.0010100015126501532,0.0006628221997479689
0.20000000000000015,-0.001659228498473023,-0.002657584037492578
0.4000000000000003,0.005906358854900881,-0.004435024256178564
0.6000000000000004,0.023760912839601463,0.002367510470187037
0.8000000000000006,0.04128642596721307,0.00405471693081926
1.0000000000000007,0.05673272870116293,0.0018851006941515449
1.2009999999999785,0.08180890558107305,-0.005772823662492122
1.4009999999999565,0.10011620635045959,-0.020898968159109303
1.6009999999999345,0.11119866523841568,-0.04592116194430526
1.8009999999999124,0.12823884734132557,-0.06957098360590365
2.0009999999998906,0.15165895908550642,-0.09461203027213261
2.2009999999998686,0.19119365710630354,-0.1162634920976006
2.4009999999998466,0.22239006435571687,-0.14974965834342013
2.6009999999998246,0.2269304811684494,-0.18982105295000298
2.8009999999998025,0.26038330160483586,-0.22749487401084162
3.0009999999997805,0.29446902355489896,-0.2672398204578388
3.2009999999997585,0.3269943616669028,-0.30727006321552797
3.4009999999997365,0.370087091443109,-0.34367391310598816
3.6009999999997144,0.40860057596396643,-0.3699413590443254
3.8009999999996924,0.43737276833071026,-0.39032072931452594
4.000999999999671,0.46752446858954155,-0.4180467845002632
4.200999999999738,0.5007050736487868,-0.45588997861808733
4.400999999999804,0.5435653983530837,-0.5049248092000344
4.600999999999871,0.5779696024533634,-0.5519732063866903
4.800999999999938,0.5964476005318186,-0.5966907080055216
5.000000000000004,0.6116767653409064,-0.6213458120245657
5.200000000000071,0.6371065485680902,-0.6538238189485348
5.400000000000138,0.658086157484194,-0.6897796576803399
5.600000000000205,0.678418144614812,-0.7245827421721541
5.800000000000272,0.7134565825218258,-0.7587428613444284
6.000000000000338,0.7341474420788551,-0.7982228771121473
6.200000000000405,0.7579135765694933,-0.8396510816032826
6.400000000000472,0.7876407285841258,-0.8916735493984494
6.600000000000539,0.8282610213499407,-0.9408586434219867
6.800000000000606,0.8758575676372476,-0.9902920983689489
7.000000000000672,0.9076056368280918,-1.0335875445654212
7.200000000000739,0.932533590116947,-1.0699807300779562
7.400000000000806,0.9550792269457635,-1.101886529842689
7.600000000000873,0.9777865094539951,-1.135070207276388
7.8000000000009395,1.0213239976171031,-1.1694189556934094
8.000000000001005,1.0724088214155216,-1.2052135833916413
8.200000000000895,1.1072096790461368,-1.2437152572210228
8.400000000000784,1.1417249334708364,-1.294912508222962
8.600000000000673,1.173279564593475,-1.3501176386501375
8.800000000000562,1.2021587590807736,-1.404977903611772
9.000000000000451,1.234804718153131,-1.4702742245901663
9.20000000000034,1.2613346784023989,-1.5262330738296361
9.40000000000023,1.2806509581208254,-1.5727466118103488
9.600000000000119,1.2907082646558876,-1.6229826346978118
9.800000000000008,1.2945358426470364,-1.6838993371199282
10.000999999999896,1.2915363827623072,-1.7475281580063882
10.200999999999786,1.2854915998329708,-1.8115414116602273
10.400999999999675,1.2748353994037172,-1.874630280935137
10.600999999999564,1.2612912095358553,-1.9385944489648563
10.800999999999453,1.2385221171595526,-1.9972271728141655
11.000999999999342,1.2019916545958538,-2.045421774870995
11.200999999999231,1.1628477886654836,-2.083691610496619
11.40099999999912,1.1171354261196067,-2.1329696795260227
11.60099999999901,1.0634515475244615,-2.167093650914876
11.800999999998899,1.0090056477915939,-2.1876503862448398
12.000999999998788,0.9585424577834832,-2.2074593059668772
12.200999999998677,0.9066017664310582,-2.2442252097547657
12.400999999998566,0.8596698069878906,-2.2778005440339397
12.600999999998455,0.8117096323693692,-2.3104486879907795
12.800999999998345,0.7626617077868172,-2.362564404791531
13.000999999998234,0.7136842421177673,-2.4226730231915603
13.200999999998123,0.6596083668640451,-2.490192490278059
13.400999999998012,0.6031113448088803,-2.5484556976408115
13.600999999997901,0.5538441035352019,-2.6030847522353184
13.80099999999779,0.5144524171851569,-2.655796425748137
14.00099999999768,0.4851631201602066,-2.7151164871079603
14.200999999997569,0.4552299288295786,-2.7775510051093577
14.400999999997458,0.42208934713228713,-2.846539186933744
14.600999999997347,0.39527438035905255,-2.92021457450257
14.800999999997236,0.3684428999355991,-2.98105866024849
15.000999999997125,0.3358329975006737,-3.042491614860937
15.200999999997014,0.29351045662701536,-3.0843754190426727
15.400999999996904,0.2434183271644376,-3.122416501433469
15.600999999996793,0.1847113226418748,-3.1654908974489158
15.800999999996682,0.12872807077712836,-3.204921045327543
16.000999999996573,0.06768905516920701,-3.2442808689701157
16.200999999996817,-0.0047344205986667425,-3.2911526240788778
16.40099999999706,-0.0827296058161705,-3.339427984824536
16.600999999997306,-0.15642263661877526,-3.3804441472303624
16.80099999999755,-0.22922025486493453,-3.4150494654735963
17.000999999997795,-0.30138505392655895,-3.444475323426141
17.20099999999804,-0.37155184806802294,-3.4685895285980712
17.400999999998284,-0.43017912828187405,-3.473481430802848
17.60099999999853,-0.4845210910306105,-3.4595633125703253
17.800999999998773,-0.5339147337376837,-3.4354108572679705
18.000999999999017,-0.5848953463512523,-3.3967087402463507
18.20099999999926,-0.6392322076495326,-3.3543914319434647
18.400999999999506,-0.6876915302807456,-3.317560729452506
18.60099999999975,-0.7483962753700781,-3.292713133623851
18.799999999999994,-0.8230473649215302,-3.2694367853401833
19.000000000000238,-0.9070675975452852,-3.245884845041682
19.200000000000482,-0.9774184675571292,-3.214432498605963
19.400000000000727,-1.039344051439008,-3.1800918496626207
19.60000000000097,-1.0891966275808282,-3.1441836841445068
19.800000000001216,-1.1361978399897408,-3.1129909187346985
20.00000000000146,-1.1853490064218344,-3.089753715658973
