Time (s),X (m),Y (m)
0.001,0.0011890620069237587,-0.00035268032603768894
0.20000000000000015,-0.00030495230221770284,-0.0008972828546484935
0.4000000000000003,0.006054556706205225,-0.003284630717531106
0.6000000000000004,0.01636403231256992,0.0020212072018511115
0.8000000000000006,0.026398101759543612,0.004293220053326692
1.0000000000000007,0.04159035454426285,0.0042416549255024395
1.2009999999999785,0.059070103827859134,0.003622767858849502
1.4009999999999565,0.07721829677795032,0.009415771043672173
1.6009999999999345,0.09928130476013107,0.0039020599324856675
1.8009999999999124,0.11193659280747381,-0.028160583497364916
2.0009999999998906,0.1167794597346775,-0.061685649018879206
2.2009999999998686,0.11410626984734246,-0.09149877967912955
2.4009999999998466,0.10630964122865977,-0.12374049443219433
2.6009999999998246,0.10463338408862279,-0.1524691677493375
2.8009999999998025,0.09697625462459504,-0.18185316250729766
3.0009999999997805,0.07520591815250766,-0.21661721503803294
3.2009999999997585,0.04156021265743673,-0.2521438575929078
3.4009999999997365,-0.000878098897605717,-0.2754232840747983
3.6009999999997144,-0.0400738536969855,-0.2847018472083763
3.8009999999996924,-0.07922455633348911,-0.29136014354536827
4.000999999999671,-0.11351225449120468,-0.2886257939719389
4.200999999999738,-0.15009385303801842,-0.2679436213499969
4.400999999999804,-0.1904863221499011,-0.2513103070681454
4.600999999999871,-0.2228089711223744,-0.22730000309375858
4.800999999999938,-0.23585057162788156,-0.19090000855421083
5.000000000000004,-0.22446516177144765,-0.14024260311743103
5.200000000000071,-0.20297433591252348,-0.07986029218135135
5.400000000000138,-0.17035372917284172,-0.016942404787461614
5.600000000000205,-0.140786675700879,0.03293841861018377
5.800000000000272,-0.09392354099137791,0.054763992649400114
6.000000000000338,-0.04710655944753555,0.05720700491768041
6.200000000000405,0.004395058656366826,0.05600629555595446
6.400000000000472,0.05035958517123535,0.057955786701882325
6.600000000000539,0.09509608016704003,0.05460543580677933
6.800000000000606,0.13984862786903124,0.04064757873897435
7.000000000000672,0.17983868735122072,0.013257934137979517
7.200000000000739,0.1942507764235534,-0.03310406710147711
7.400000000000806,0.19213667974502832,-0.08404628888888273
7.600000000000873,0.17503331149940768,-0.13809471082634373
7.8000000000009395,0.15300503978074723,-0.19389170804372208
8.000000000001005,0.11850471714518654,-0.25201169036499566
8.200000000000895,0.07389124456959878,-0.3036638175381594
8.400000000000784,0.03401831502542431,-0.3473100059387732
8.600000000000673,-0.0033785592634910408,-0.3715038513656957
8.800000000000562,-0.047380163320777664,-0.37448815163520954
9.000000000000451,-0.09904358109011298,-0.3640419024429985
9.20000000000034,-0.14938216339536328,-0.3478631866672317
9.40000000000023,-0.19936148595324774,-0.3251959700622266
9.600000000000119,-0.2556111589666261,-0.3071911368132475
9.800000000000008,-0.30768430345596787,-0.29013881397726243
10.000999999999896,-0.363179162213086,-0.2642185825590734
10.200999999999786,-0.4237578701706294,-0.2234728860559367
10.400999999999675,-0.4890050775005642,-0.17198821636174055
10.600999999999564,-0.5325847681584492,-0.12059535525958494
10.800999999999453,-0.5517958308456394,-0.07297764576748254
11.000999999999342,-0.5523302366416556,-0.02655181711563064
11.200999999999231,-0.5450481016902005,0.028043053620218892
11.40099999999912,-0.5347159943962709,0.08448152750983189
11.60099999999901,-0.509405019303271,0.12966294707775955
11.800999999998899,-0.4817222789016528,0.15734052612724866
12.000999999998788,-0.4335140236685414,0.1699726869058113
12.200999999998677,-0.3718961804695365,0.1609331548719613
12.400999999998566,-0.31152322122136683,0.14587737985839697
12.600999999998455,-0.2567025460956864,0.12849972235820978
12.800999999998345,-0.21044850578949836,0.09931157307906988
13.000999999998234,-0.18135863107168007,0.05461557432892132
13.200999999998123,-0.16485229412925614,0.014232724698462798
13.400999999998012,-0.16077696585033566,-0.02553864133140451
13.600999999997901,-0.16975743972097995,-0.07123338089100041
13.80099999999779,-0.1935395590737198,-0.11879025879135953
14.00099999999768,-0.22267688587113602,-0.15755226491637866
14.200999999997569,-0.26136009288919065,-0.18128512900093682
14.400999999997458,-0.3074541657205807,-0.1910240469361739
14.600999999997347,-0.35218307786647984,-0.1971210713331246
14.800999999997236,-0.39730981434784807,-0.19132207378337035
15.000999999997125,-0.44521871049308515,-0.17546176196339874
15.200999999997014,-0.4900374179487125,-0.15322690301191744
15.400999999996904,-0.5195058415301836,-0.11981393408885167
15.600999999996793,-0.5347040762478914,-0.08445600213936669
15.800999999996682,-0.5350778251902517,-0.04129772827160562
16.000999999996573,-0.5167251804433781,0.012487970546628063
16.200999999996817,-0.4928980647530808,0.06851866586019553
16.40099999999706,-0.47009048901123396,0.1303876065845928
16.600999999997306,-0.4431777108678942,0.19850684545699157
16.80099999999755,-0.40676291015931504,0.26431243320631903
17.000999999997795,-0.36438259456143923,0.31175225038060744
17.20099999999804,-0.3095290354561275,0.33609888586193076
17.400999999998284,-0.2546026105740026,0.33441174324745454
17.60099999999853,-0.18919300203937692,0.31636914396231075
17.800999999998773,-0.12580226805750208,0.2893667910610983
18.000999999999017,-0.06359614949432983,0.253446641748219
18.20099999999926,-0.0021780337963973775,0.22164090334517916
18.400999999999506,0.054256590686020525,0.17232928149152402
18.60099999999975,0.0923661754572153,0.11350855243916833
18.799999999999994,0.09511555636588345,0.05307176152987534
19.000000000000238,0.0845899372248782,-0.007167109185626117
19.200000000000482,0.0685446782726942,-0.0682223962986443
19.400000000000727,0.04758342081898694,-0.13244827940638662
19.60000000000097,0.018753428670727167,-0.19818097798290382
19.800000000001216,-0.025034629376042672,-0.24927519867103465
20.00000000000146,-0.07747988816852358,-0.26956439098570717
