Time (s),X (m),Y (m)
0.001,-0.0006729371591054978,-0.000515584144559974
0.20000000000000015,-0.00223090591983044,-0.0019432591873942806
0.4000000000000003,0.00023918041651581394,-0.0007561277772171268
0.6000000000000004,0.0032449950810205905,-0.0017810574879765218
0.8000000000000006,0.00794086644763703,-0.0018128457649907274
1.0000000000000007,0.009188418354582943,-0.0035029905600449302
1.2009999999999785,0.015109608527208567,-0.002505580925808631
1.4009999999999565,0.0243579728717749,0.0026563739229697896
1.6009999999999345,0.028464518175113855,0.004240773399241715
1.8009999999999124,0.03624954464972651,0.007973582771296943
2.0009999999998906,0.04799653851609494,0.016033668540346054
2.2009999999998686,0.053498359606540036,0.01625431740569443
2.4009999999998466,0.0536482056176124,0.017466932837465494
2.6009999999998246,0.060928602351256356,0.02345251528057833
2.8009999999998025,0.06912384555796099,0.024359985655755586
3.0009999999997805,0.07834335184127426,0.027838948440703334
3.2009999999997585,0.08942224831206902,0.03377942412200669
3.4009999999997365,0.09703563215780818,0.03761543738990107
3.6009999999997144,0.10436568691706749,0.042987509545773704
3.8009999999996924,0.11363605454876839,0.048841012428887824
4.000999999999671,0.12216651970742468,0.054442630995282015
4.200999999999738,0.13255692700399366,0.06224740258285826
4.400999999999804,0.14540141758096464,0.06709165103483516
4.600999999999871,0.15309325892246298,0.07342466280597876
4.800999999999938,0.16367726676629943,0.08265557205008756
5.000000000000004,0.1741451819121299,0.08832239338711743
5.200000000000071,0.18363512648540306,0.09305835942151468
5.400000000000138,0.19120003901655366,0.10021101746037711
5.600000000000205,0.20071015678295537,0.10309473479546788
5.800000000000272,0.20846188323898338,0.1111649038195699
6.000000000000338,0.22025340522092307,0.12097925561860283
6.200000000000405,0.23381555345810875,0.1325415877270772
6.400000000000472,0.2470357799909259,0.14409321308727047
6.600000000000539,0.2576098072585193,0.1527550833624914
6.800000000000606,0.26700587122609964,0.16094004620744984
7.000000000000672,0.27745642807377247,0.17561173340098632
7.200000000000739,0.28516634975629984,0.18504627625487663
7.400000000000806,0.2931270383130754,0.19561594054860915
7.600000000000873,0.3001678237573446,0.20426715729474798
7.8000000000009395,0.3115283974390534,0.21376466396162674
8.000000000001005,0.3221415487313728,0.22328604971182295
8.200000000000895,0.3301221006681969,0.23335276603424002
8.400000000000784,0.33775126484171764,0.2378975239352191
8.600000000000673,0.3468044440047187,0.2495077963080948
8.800000000000562,0.35627500352813385,0.2607112906165651
9.000000000000451,0.36120740752238506,0.27070854444956255
9.20000000000034,0.3671823254695792,0.27561134221396344
9.40000000000023,0.37289478475097876,0.285654864234977
9.600000000000119,0.3782593507198139,0.30342947825051664
9.800000000000008,0.38663980532691533,0.3126734316887949
10.000999999999896,0.39280297519400986,0.3213999656839164
10.200999999999786,0.3981933515903293,0.3328893818166567
10.400999999999675,0.40710913405307747,0.33797719639689305
10.600999999999564,0.4126845371276296,0.34216383526236743
10.800999999999453,0.41576805704834324,0.3501577657429146
11.000999999999342,0.4208236834828842,0.3611345834741112
11.200999999999231,0.4292498375269618,0.3679357687192321
11.40099999999912,0.4352197690007576,0.3779155253381175
11.60099999999901,0.44275099335557255,0.38518125758082705
11.800999999998899,0.4466439625673294,0.39300334527059205
12.000999999998788,0.450566008478026,0.4042509277185078
12.200999999998677,0.45494646539050515,0.4117182921314313
12.400999999998566,0.4606696035609564,0.41873058812250025
12.600999999998455,0.464690430497899,0.4308497610583745
12.800999999998345,0.4690297715344099,0.4388448554136596
13.000999999998234,0.47265828784476294,0.4531052617456034
13.200999999998123,0.4774401724003395,0.4619737458333602
13.400999999998012,0.48173001977515995,0.4720509475871992
13.600999999997901,0.4887512146284584,0.4777812990000568
13.80099999999779,0.4909037651736893,0.4911747506687647
14.00099999999768,0.4969955230042977,0.4978984908018752
14.200999999997569,0.5023868623684936,0.5081910285945372
14.400999999997458,0.5091697366611444,0.5204462411225854
14.600999999997347,0.5143918358088372,0.5307000536629187
14.800999999997236,0.5199948682004764,0.5428917929935093
15.000999999997125,0.5262510415265665,0.5489142914691514
15.200999999997014,0.5303391863996141,0.5579812148691089
15.400999999996904,0.5347290366647379,0.5694765467296979
15.600999999996793,0.5381442308091561,0.5807747741362228
15.800999999996682,0.541047721844495,0.5956698361238258
16.000999999996573,0.5454567489545012,0.6028470642255208
16.200999999996817,0.5488252956840516,0.6119469985376567
16.40099999999706,0.5521366099847873,0.6236489362440061
16.600999999997306,0.5560463686079865,0.6324460979685934
16.80099999999755,0.5592774062664628,0.6389489357288807
17.000999999997795,0.5635243903932997,0.6492699664034264
17.20099999999804,0.5666565689035535,0.6554129226986308
17.400999999998284,0.568515799121163,0.6657011253062771
17.60099999999853,0.5714975253885711,0.6735676131399776
17.800999999998773,0.5728488738522621,0.6795598525057793
18.000999999999017,0.5738589371402855,0.6885490519499405
18.20099999999926,0.5742863072084884,0.6999106099938148
18.400999999999506,0.5729921909873775,0.7144339075878188
18.60099999999975,0.5754449223616048,0.7230605412926437
18.799999999999994,0.5750521982797048,0.7405889549337175
19.000000000000238,0.5791567844771172,0.7489110225927501
19.200000000000482,0.5818741840397667,0.7570568191900728
19.400000000000727,0.5828964469888176,0.7721092769799592
19.60000000000097,0.5863545882446498,0.7812426381134915
19.800000000001216,0.5849745159788443,0.7930296922420089
20.00000000000146,0.5884223102111881,0.8014125454906047
