Time (s),X (m),Y (m)
0.001,0.0003991412691229187,-0.0010155025257856578
0.20000000000000015,0.0015026715156585004,-0.004857952470853933
0.4000000000000003,0.004336070434226975,-0.02723140763454525
0.6000000000000004,0.017374258373875663,-0.045452738928345233
0.8000000000000006,0.04879269585449503,-0.04362656256309588
1.0000000000000007,0.09070230071513015,-0.06249197313779456
1.2009999999999785,0.13135376869047666,-0.09606643036984719
1.4009999999999565,0.15713999095664868,-0.13233585469203143
1.6009999999999345,0.15011654579701803,-0.1721709378129024
1.8009999999999124,0.12393221439057175,-0.18854892683876764
2.0009999999998906,0.08242986664598079,-0.17988697734636952
2.2009999999998686,0.03150638506303083,-0.16646949069565967
2.4009999999998466,-0.017907222061861506,-0.14665698668922023
2.6009999999998246,-0.030321815074102424,-0.1120086416219539
2.8009999999998025,-0.026063318760590024,-0.06447054883507188
3.0009999999997805,0.0029079262962640696,-0.013212364271037882
3.2009999999997585,0.03955018000344431,0.04195812204920689
3.4009999999997365,0.0874872930923149,0.07868855016085258
3.6009999999997144,0.14428949096921453,0.1082064472106699
3.8009999999996924,0.2136609777662343,0.12335748967932637
4.000999999999671,0.2840953383215102,0.10746126911149478
4.200999999999738,0.34287663005346697,0.06709556107040412
4.400999999999804,0.3905652160082393,0.016479977629261566
4.600999999999871,0.40443524566028305,-0.046160634293034034
4.800999999999938,0.3918613869830536,-0.10574934015395736
5.000000000000004,0.3577719949630942,-0.15789677524738452
5.200000000000071,0.31637629330525535,-0.21016682842306417
5.400000000000138,0.26900662964054195,-0.23803344706480256
5.600000000000205,0.21127662358724356,-0.2350348954219375
5.800000000000272,0.16407596983364162,-0.20996902773759746
6.000000000000338,0.10945821718410974,-0.17049387560692353
6.200000000000405,0.07795421933664248,-0.12692175851898246
6.400000000000472,0.06840471375937657,-0.06953771170074059
6.600000000000539,0.07947068907106236,-0.014994784089123529
6.800000000000606,0.10244759409135869,-0.0005545481379979373
7.000000000000672,0.1453925796788886,-0.0037889015464786058
7.200000000000739,0.17589285114708314,-0.024933684497642997
7.400000000000806,0.18352224668527056,-0.06456819932973282
7.600000000000873,0.16533256835054977,-0.10891355609414757
7.8000000000009395,0.1321771862987507,-0.12418414246142191
8.000000000001005,0.08711533816711771,-0.10304212935873461
8.200000000000895,0.032215428054404124,-0.06989617798921866
8.400000000000784,0.0015107155676054558,-0.026608850355499432
8.600000000000673,0.007075507843418319,0.02977636698992138
8.800000000000562,0.027342728393192656,0.09986525729475602
9.000000000000451,0.06649101985366593,0.15489224508938207
9.20000000000034,0.11687783137309996,0.18932251088387073
9.40000000000023,0.17942119175752935,0.19016938832316602
9.600000000000119,0.2453098360379263,0.16158655350528395
9.800000000000008,0.304301511521037,0.1179973422930911
10.000999999999896,0.3358164036273176,0.06361756274698331
10.200999999999786,0.33480758575507746,-0.00020643037702090157
10.400999999999675,0.30621394502225385,-0.048716132318786846
10.600999999999564,0.262756143563458,-0.07899698152743652
10.800999999999453,0.2022966242869365,-0.08726502122037291
11.000999999999342,0.14330589560047083,-0.06977529673473043
11.200999999999231,0.115446097223062,-0.02975556860299401
11.40099999999912,0.11366306550165674,0.025370084636892876
11.60099999999901,0.1250245223950071,0.086300768396608
11.800999999998899,0.1551287227110909,0.1530597661034217
12.000999999998788,0.2019493942695395,0.22206443157983197
12.200999999998677,0.25393302647304006,0.2854298832601927
12.400999999998566,0.31153701812387596,0.30464486643838323
12.600999999998455,0.38514969717360303,0.30658262603685954
12.800999999998345,0.45665059386581325,0.2887070853652987
13.000999999998234,0.5172975841978171,0.25216000783881626
13.200999999998123,0.5405850585352513,0.20366386418016294
13.400999999998012,0.5241850113426864,0.14971443863963188
13.600999999997901,0.4914355512902914,0.11321008208872302
13.80099999999779,0.4448204806867245,0.11176624877990156
14.00099999999768,0.40362580807025594,0.13968444140171474
14.200999999997569,0.3638476863300799,0.1839047668594352
14.400999999997458,0.3567318334809449,0.23842329029251533
14.600999999997347,0.37531491033046677,0.30103467407715506
14.800999999997236,0.39463362876672037,0.3715347168557794
15.000999999997125,0.42362679861716046,0.43518306691573294
15.200999999997014,0.4665300569338337,0.46453382206514277
15.400999999996904,0.5175741152989283,0.46272218394591363
15.600999999996793,0.5780782231382071,0.4585801925578852
15.800999999996682,0.6439445416405295,0.4322034745074193
16.000999999996573,0.7197122945207947,0.3939971557039174
16.200999999996817,0.7997335564443213,0.3456149466016815
16.40099999999706,0.8616113669268853,0.2877588770486642
16.600999999997306,0.8938829226997228,0.2226370860677853
16.80099999999755,0.901948317939279,0.1461135304185617
17.000999999997795,0.8899610411030102,0.08684597072298773
17.20099999999804,0.8574469173967184,0.06162954369704236
17.400999999998284,0.8060894089931531,0.05927843593517609
17.60099999999853,0.7437181326590162,0.07853995083895049
17.800999999998773,0.6737994523624483,0.10959403668369569
18.000999999999017,0.6058961291680438,0.14945711203978693
18.20099999999926,0.5468909016155965,0.19265322037188645
18.400999999999506,0.5157814895698457,0.24507754933976247
18.60099999999975,0.5133612744338784,0.3018344450874833
18.799999999999994,0.5339068461309682,0.3505121160103235
19.000000000000238,0.5695805013628995,0.3500478057171019
19.200000000000482,0.6161701026005816,0.32605253965711084
19.400000000000727,0.6738374630378512,0.28846201885878636
19.60000000000097,0.7432603514064949,0.2440783050598144
19.800000000001216,0.8248902041376549,0.20586445365559847
20.00000000000146,0.9096544531919405,0.1642748206526814
