Time (s),X (m),Y (m)
0.001,-0.0003713730577023104,0.0008446836120385872
0.20000000000000015,-0.00039924176903957594,0.0036660233135747556
0.4000000000000003,0.00021069372938993538,0.0009982249715369117
0.6000000000000004,0.001833370925350441,0.000997701688175774
0.8000000000000006,0.005877054637274568,-0.005953134393676793
1.0000000000000007,0.009154274936629113,-0.0073399089764059865
1.2009999999999785,0.01667622240843652,-0.008118380298414104
1.4009999999999565,0.02370608371809874,-0.007824264682607968
1.6009999999999345,0.029193184508210086,-0.004552694610759923
1.8009999999999124,0.033850620199128996,-0.0016549655972074692
2.0009999999998906,0.03483655419656028,0.0016333603739725488
2.2009999999998686,0.041077512204612115,-0.0006934602968889628
2.4009999999998466,0.044631465596148105,0.001976998179225718
2.6009999999998246,0.052735661879248275,0.0022058559213669277
2.8009999999998025,0.05970554491122474,0.002020049317166383
3.0009999999997805,0.06381784724002608,-0.00048416424675505165
3.2009999999997585,0.0689149354434691,-0.0007043966465843918
3.4009999999997365,0.07264851690503107,-0.0005248190360194099
3.6009999999997144,0.07881583735342906,-0.0023096436642078525
3.8009999999996924,0.08799002139638258,-0.0044980043161842965
4.000999999999671,0.09446316464884369,-0.00444496726962922
4.200999999999738,0.10237895153529546,-0.004372096499830412
4.400999999999804,0.10715817048207847,-0.005286859156702182
4.600999999999871,0.11030894385298733,-0.0011784609667094058
4.800999999999938,0.1174934682059709,-0.003138663831437837
5.000000000000004,0.12456841284755563,-0.0010600666662097043
5.200000000000071,0.13059258956370723,-0.0008512741813492132
5.400000000000138,0.13937560525129064,-0.002632721301940317
5.600000000000205,0.14364067828661584,-0.0019671262737224297
5.800000000000272,0.1503807023318043,-0.0039005730926679524
6.000000000000338,0.15693144881921636,-0.004722622001924713
6.200000000000405,0.15925755318287466,-0.0025205417813281357
6.400000000000472,0.1641442276049945,-0.002554206897344382
6.600000000000539,0.17295712243613828,-0.004432604355406676
6.800000000000606,0.1777044134218614,-0.0002364898705624137
7.000000000000672,0.1864586899842488,-0.00043524897394543
7.200000000000739,0.19080700905076683,0.0029229224597654467
7.400000000000806,0.19877893626984974,0.0026955252071535576
7.600000000000873,0.20489071017570828,0.006150896600286319
7.8000000000009395,0.21437062473061078,0.005410253802637607
8.000000000001005,0.22221660849938843,0.006551992897729465
8.200000000000895,0.22624724330730828,0.010478576869933948
8.400000000000784,0.23502622267816572,0.010463646705976404
8.600000000000673,0.24164148959187925,0.012184464640161048
8.800000000000562,0.2487578038042597,0.01293935682330134
9.000000000000451,0.2518178129414738,0.014795909121808446
9.20000000000034,0.25772499664752235,0.01481610573995031
9.40000000000023,0.26508694972078156,0.015344874857669773
9.600000000000119,0.2686084313723761,0.01823948148216508
9.800000000000008,0.27617961255363227,0.02243584580419417
10.000999999999896,0.2906963506697591,0.02201346082801074
10.200999999999786,0.29330030700346754,0.02223255988426866
10.400999999999675,0.30022911041439365,0.024448959723191634
10.600999999999564,0.30466052939839855,0.02592234726762036
10.800999999999453,0.3114793684276342,0.029009852051334217
11.000999999999342,0.31817464471649104,0.02895795912051719
11.200999999999231,0.325378840250392,0.03096062703420825
11.40099999999912,0.3334454617004278,0.035227170391707203
11.60099999999901,0.33923447711015337,0.035816095406809474
11.800999999998899,0.3495367183388338,0.036160251109192916
12.000999999998788,0.354092807959869,0.03926733296762041
12.200999999998677,0.3605809567062636,0.03994913983567739
12.400999999998566,0.3672070087140384,0.04041977008065918
12.600999999998455,0.36909527996056474,0.04228804240369966
12.800999999998345,0.3756698484181983,0.041081467062792115
13.000999999998234,0.38014638833077896,0.043144522938259204
13.200999999998123,0.385121426507168,0.04542270382737615
13.400999999998012,0.3907250079994381,0.04697530936631918
13.600999999997901,0.39789402234812704,0.047110273560163556
13.80099999999779,0.40316157706746114,0.04884843341317717
14.00099999999768,0.4081220976696013,0.050665053220431126
14.200999999997569,0.41263826143279064,0.05150674861341972
14.400999999997458,0.4160802372568776,0.05453328640614141
14.600999999997347,0.41591142286223126,0.05653446809893253
14.800999999997236,0.42275922632653457,0.057337606476291034
15.000999999997125,0.42514361530726447,0.06053336274238355
15.200999999997014,0.4330085424262006,0.06208068029348723
15.400999999996904,0.4397683309910707,0.06399118145418832
15.600999999996793,0.4458471228034762,0.06480503767646797
15.800999999996682,0.45389938570342475,0.0660511267368418
16.000999999996573,0.4573780575126473,0.06891811402968955
16.200999999996817,0.45996911055619416,0.0712655422550177
16.40099999999706,0.4688048367841044,0.0739634869509458
16.600999999997306,0.4714138104675388,0.07703527839760262
16.80099999999755,0.47554305541113284,0.07981443066634537
17.000999999997795,0.47768596565793536,0.0824607746411266
17.20099999999804,0.484692930174322,0.08472624741919701
17.400999999998284,0.4893449348265716,0.08677268570027147
17.60099999999853,0.49788114757367924,0.08834944791701445
17.800999999998773,0.5020646067046225,0.0914327710482775
18.000999999999017,0.5084368342213607,0.09314761988245351
18.20099999999926,0.510192949188321,0.09623300150657103
18.400999999999506,0.5123156806746908,0.09975961088093736
18.60099999999975,0.5165371880443277,0.10144954570432523
18.799999999999994,0.5236870632949193,0.10441323599995193
19.000000000000238,0.5298174026275104,0.107051857042706
19.200000000000482,0.5348003601931665,0.10881948435580244
19.400000000000727,0.5415223569626679,0.11076350790985262
19.60000000000097,0.5465311684399192,0.11306197425685521
19.800000000001216,0.551442789517097,0.11521850266093715
20.00000000000146,0.5553094415219063,0.11787183480830128
