Time (s),X (m),Y (m)
0.001,-0.0006246028371892732,-0.0005914538325516239
0.20000000000000015,0.005204180191750257,0.0023954401742511907
0.4000000000000003,0.0038281233898439897,-0.0015934865347275915
0.6000000000000004,0.00643249430395306,-0.003075147025561159
0.8000000000000006,0.027545308916156665,0.0004498657804378266
1.0000000000000007,0.057324190425616435,0.00236096610991162
1.2009999999999785,0.07771255171714185,0.009615627260121877
1.4009999999999565,0.11223739508207314,0.012952866893752907
1.6009999999999345,0.1404740688128073,0.012580584615556724
1.8009999999999124,0.17406159095685841,0.018499829984256037
2.0009999999998906,0.20832469321848057,0.02569212075774428
2.2009999999998686,0.23356434566679735,0.028819418235532836
2.4009999999998466,0.26219914301945235,0.03793114872102053
2.6009999999998246,0.28967825479264286,0.04558187942183158
2.8009999999998025,0.32625955876092705,0.054311978735706555
3.0009999999997805,0.3598226936134202,0.06240851731834399
3.2009999999997585,0.3901745154689505,0.06648127211382318
3.4009999999997365,0.4122501823088509,0.07390521442072029
3.6009999999997144,0.43228941314180175,0.07096100977783996
3.8009999999996924,0.4453831800059665,0.06676890511292699
4.000999999999671,0.45483222397302026,0.057413511951031365
4.200999999999738,0.4681524218454643,0.046262358951025595
4.400999999999804,0.4931691796172312,0.03776690759828852
4.600999999999871,0.5198266241295156,0.030794071904660082
4.800999999999938,0.5474784007144219,0.02128935265865347
5.000000000000004,0.5673080494314743,0.004130798411153227
5.200000000000071,0.5895823898449071,-0.009308138893536681
5.400000000000138,0.6140245026661364,-0.024772857181335973
5.600000000000205,0.6419785321913569,-0.041641024996066374
5.800000000000272,0.6696618406217746,-0.0601241570041605
6.000000000000338,0.701696410898215,-0.08301300104051419
6.200000000000405,0.7229874509258575,-0.10635050450681444
6.400000000000472,0.7264639361687921,-0.12626268271967167
6.600000000000539,0.7399456390973426,-0.14533735158996464
6.800000000000606,0.7608179433092406,-0.16370481201443232
7.000000000000672,0.7758892981741836,-0.1910300999653246
7.200000000000739,0.7871853118201427,-0.2148569359922628
7.400000000000806,0.8132596263441618,-0.23455057052629516
7.600000000000873,0.8310991852349604,-0.2567222008304423
7.8000000000009395,0.8491928405585418,-0.27540448952986835
8.000000000001005,0.8742099409798578,-0.2899279774423253
8.200000000000895,0.8954677263372015,-0.3041900662869573
8.400000000000784,0.9255939359943651,-0.32098156517819487
8.600000000000673,0.948446316038548,-0.3379986938658572
8.800000000000562,0.973359782214993,-0.3591011165535797
9.000000000000451,1.004886324592931,-0.3817358175314941
9.20000000000034,1.0344336582375562,-0.4017008017366026
9.40000000000023,1.064663632287925,-0.4162574788464531
9.600000000000119,1.0889127369017766,-0.43489081152682635
9.800000000000008,1.111054187111593,-0.4539415294681761
10.000999999999896,1.1327185349347082,-0.47213632425588387
10.200999999999786,1.1598056838836377,-0.48895411675936057
10.400999999999675,1.1960506782517062,-0.5023219149159839
10.600999999999564,1.225718246292396,-0.5205182016542568
10.800999999999453,1.2529797174935275,-0.5430225415330743
11.000999999999342,1.2744352252865758,-0.5697152808403718
11.200999999999231,1.3046669169186884,-0.5972967123391278
11.40099999999912,1.3336718021968346,-0.6194622679176033
11.60099999999901,1.3568545385303328,-0.6403901631646689
11.800999999998899,1.3893803087898555,-0.6583514643444658
12.000999999998788,1.424210744939268,-0.6775251854659837
12.200999999998677,1.4558141371652886,-0.6963982435037015
12.400999999998566,1.4866318185023546,-0.7181488609495879
12.600999999998455,1.5069317982677684,-0.7403110482526294
12.800999999998345,1.5268686347967129,-0.7632260350068243
13.000999999998234,1.5503327211457922,-0.7845459248899047
13.200999999998123,1.5875130824639565,-0.803619484902275
13.400999999998012,1.6177647570287539,-0.8250739714844603
13.600999999997901,1.6465865092541916,-0.8475456829144491
13.80099999999779,1.6719613307916263,-0.8740153157563113
14.00099999999768,1.6917652452923309,-0.9002414993450429
14.200999999997569,1.703748636964816,-0.9289282396181078
14.400999999997458,1.7252290145088156,-0.9535641563751567
14.600999999997347,1.7523398164911046,-0.9734090042543716
14.800999999997236,1.7741444152020687,-0.9999216369368847
15.000999999997125,1.7932062911349256,-1.0269236562416644
15.200999999997014,1.8190753063539857,-1.055099423748548
15.400999999996904,1.8357280392098,-1.08255617571705
15.600999999996793,1.8547306319519663,-1.1070622062830258
15.800999999996682,1.8715992201920926,-1.129357058767173
16.000999999996573,1.8998640280028423,-1.1436265828167975
16.200999999996817,1.9321844029953168,-1.1565036659271084
16.40099999999706,1.9491405593268474,-1.1753930514863062
16.600999999997306,1.9757440802421913,-1.1934954870247123
16.80099999999755,1.9975027028891066,-1.2143560852511976
17.000999999997795,2.0316052595449983,-1.2325625776790727
17.20099999999804,2.0683924421831494,-1.253414205978199
17.400999999998284,2.095170470852887,-1.2770560167577611
17.60099999999853,2.124176623743941,-1.3002215258612355
17.800999999998773,2.149933934282332,-1.323014406007587
18.000999999999017,2.172492190388002,-1.3480624239736028
18.20099999999926,2.1943358686941075,-1.3656776681889435
18.400999999999506,2.2294936284147013,-1.3823378293804816
18.60099999999975,2.259902704837667,-1.400339544563087
18.799999999999994,2.2804066591382712,-1.419820631055023
19.000000000000238,2.3062970309647253,-1.4453542278341012
19.200000000000482,2.3266053526827966,-1.4747873953198134
19.400000000000727,2.353981172042093,-1.503618920701638
19.60000000000097,2.3882323484539083,-1.5273662606066698
19.800000000001216,2.423109704962576,-1.5537933750917536
20.00000000000146,2.4508422685996645,-1.5824276322661939
