Time (s),X (m),Y (m)
0.001,-0.0005090653149319316,0.0007291460897812449
0.20000000000000015,0.004307393056524044,-0.0027740680187868585
0.4000000000000003,0.008154720839429901,-0.0026631333705403547
0.6000000000000004,0.008823539385763888,0.0024127325400494465
0.8000000000000006,0.01141661497312825,0.0017836315088817774
1.0000000000000007,0.017720654750114972,-0.0005503505762158768
1.2009999999999785,0.022264331682227155,-0.0014744758785782343
1.4009999999999565,0.0262144055461461,-0.001784279782709109
1.6009999999999345,0.030725831116122617,-0.0023854657503367487
1.8009999999999124,0.03542814717214269,-0.0017452730754019812
2.0009999999998906,0.04131180956609657,-0.0029842199117788805
2.2009999999998686,0.04616858417689803,-0.00390341879638435
2.4009999999998466,0.05175949266197877,-0.00541447726461864
2.6009999999998246,0.057146247555007884,-0.006388062557153541
2.8009999999998025,0.06223564152595104,-0.005767444530006758
3.0009999999997805,0.06807954450501905,-0.0065495703243599705
3.2009999999997585,0.07386495753558704,-0.007405398489939987
3.4009999999997365,0.0799603315977627,-0.0090656858770288
3.6009999999997144,0.08631763642475788,-0.010628614126115732
3.8009999999996924,0.09161085498311827,-0.011396219677771774
4.000999999999671,0.09796998746284277,-0.012792838264581254
4.200999999999738,0.10347007132623631,-0.01247963886721383
4.400999999999804,0.10937657790856578,-0.012330373243617118
4.600999999999871,0.11501949383944675,-0.012327531697608385
4.800999999999938,0.12173804873073195,-0.011812891368521476
5.000000000000004,0.12705157637646244,-0.010679083950663032
5.200000000000071,0.13204669538957625,-0.010037478219700892
5.400000000000138,0.13831602829884473,-0.009827646162037637
5.600000000000205,0.14390451483324165,-0.008888933552204277
5.800000000000272,0.1495242257770053,-0.0075356174733084095
6.000000000000338,0.15493163442569882,-0.005751700346929975
6.200000000000405,0.15810912235233043,-0.0043874827587108926
6.400000000000472,0.16246410888966117,-0.0030641023597261954
6.600000000000539,0.16577285098805783,-0.0006895948128770341
6.800000000000606,0.1681699375699063,0.0012202925200232467
7.000000000000672,0.17115489633174993,0.0032279483275556085
7.200000000000739,0.1743224247981656,0.005464586085859035
7.400000000000806,0.1773354831629571,0.008020612636733933
7.600000000000873,0.1798458751961296,0.010377879952708667
7.8000000000009395,0.18270398238888352,0.014159418139912087
8.000000000001005,0.18584579459942233,0.017106319518142017
8.200000000000895,0.18744940446517253,0.020960369986232186
8.400000000000784,0.19051715013345902,0.025037435422466024
8.600000000000673,0.19205607731945404,0.029208140331546607
8.800000000000562,0.19549161735304527,0.033693335618579734
9.000000000000451,0.1973199957285248,0.036305223957297426
9.20000000000034,0.1987761978760374,0.04132867298778836
9.40000000000023,0.2021186605680526,0.04476533597114026
9.600000000000119,0.20221473164197024,0.048917371148996344
9.800000000000008,0.20349818176395507,0.05378806224580832
10.000999999999896,0.2041401750662564,0.05913000492758766
10.200999999999786,0.20413301378360382,0.06464127927553805
10.400999999999675,0.2052413368589213,0.06946389133306466
10.600999999999564,0.20575408784844618,0.07423617315786211
10.800999999999453,0.2073650467731253,0.07967222582662953
11.000999999999342,0.20839805095745664,0.08541135831833971
11.200999999999231,0.20861697027396497,0.09170511113367903
11.40099999999912,0.20912142423234392,0.09716308928743836
11.60099999999901,0.2099692099744239,0.1025741150325532
11.800999999998899,0.21007486488611257,0.10689249904027325
12.000999999998788,0.20996891189944292,0.11097030843074228
12.200999999998677,0.2078995423342283,0.11430081282489958
12.400999999998566,0.20714711080634918,0.11903291662795369
12.600999999998455,0.20638126549064517,0.12263950819322865
12.800999999998345,0.2049845288641194,0.12612879538008814
13.000999999998234,0.20322416913164607,0.1295230559502432
13.200999999998123,0.20242255925235736,0.13389847239102876
13.400999999998012,0.20120695662867616,0.13707421496138217
13.600999999997901,0.19970081585507973,0.14098570079821776
13.80099999999779,0.19783912677957097,0.14503335554270286
14.00099999999768,0.1962831139515271,0.14918230247685987
14.200999999997569,0.19419084601046074,0.1517796957802353
14.400999999997458,0.19181221441711283,0.15514397649226355
14.600999999997347,0.18969485721069174,0.15913099470005912
14.800999999997236,0.18789276040185493,0.16201917140350933
15.000999999997125,0.18565356534610894,0.16513943880682402
15.200999999997014,0.1858268771106098,0.16758753231380283
15.400999999996904,0.18370032149706594,0.16991068121308167
15.600999999996793,0.18137754026207004,0.17238585695509853
15.800999999996682,0.17887158634446168,0.1744225024050421
16.000999999996573,0.17683639432951076,0.17625700106442596
16.200999999996817,0.17502536405740027,0.1784905599405761
16.40099999999706,0.1722686620783283,0.18084414939754187
16.600999999997306,0.16930106135407405,0.18293744158934083
16.80099999999755,0.16592930592385036,0.18480414007374216
17.000999999997795,0.1625694168809473,0.18654547253122755
17.20099999999804,0.16064236873686907,0.18677729286922715
17.400999999998284,0.15792192430725638,0.18933343574208952
17.60099999999853,0.15230843800343968,0.19017816197104012
17.800999999998773,0.14797926668226455,0.19143987770752233
18.000999999999017,0.1421329173429531,0.19187452250672699
18.20099999999926,0.1395591736797618,0.19354165674643337
18.400999999999506,0.13403024746561126,0.1942914310019595
18.60099999999975,0.1314593922623884,0.19453828750001184
18.799999999999994,0.12722681984176323,0.19551398427292258
19.000000000000238,0.1207463134229429,0.19536162012607347
19.200000000000482,0.1155312103165533,0.19509990561254228
19.400000000000727,0.11022167919918349,0.1946372237562395
19.60000000000097,0.10557112809235435,0.19427135359209582
19.800000000001216,0.1010223104142235,0.19347034739182425
20.00000000000146,0.09594473033095126,0.19269403664520887
