Time (s),X (m),Y (m)
0.001,-0.00013259955118837574,0.0009689812320744445
0.20000000000000015,0.0021782859801920034,-0.0008447133400234279
0.4000000000000003,0.005017794703873664,0.010723248468596491
0.6000000000000004,0.013473584884561402,0.01071817418966699
0.8000000000000006,0.026023533490143455,0.015115116825170078
1.0000000000000007,0.049530817022005055,0.009287969761832
1.2009999999999785,0.07730563014645277,-0.004850709785227163
1.4009999999999565,0.11230967026003186,-0.018716259423348754
1.6009999999999345,0.14680447474336616,-0.04043778724296986
1.8009999999999124,0.17860074528609676,-0.07164035595040467
2.0009999999998906,0.20263291867559277,-0.10571483264630548
2.2009999999998686,0.21160202739990064,-0.1443573496858829
2.4009999999998466,0.20378016871906324,-0.18495364110320586
2.6009999999998246,0.18403789337379586,-0.22481589179285152
2.8009999999998025,0.1660016898893245,-0.2653882010688776
3.0009999999997805,0.12779502724027528,-0.2871792037130944
3.2009999999997585,0.09993957577438861,-0.31556288560270945
3.4009999999997365,0.07198222381584417,-0.342552984297109
3.6009999999997144,0.04257791849509811,-0.3725094173998338
3.8009999999996924,0.005892536801354528,-0.40171446036340025
4.000999999999671,-0.033993857448278514,-0.42562032876671285
4.200999999999738,-0.07497638040611304,-0.44279710866945166
4.400999999999804,-0.12856595464619897,-0.43634893461914015
4.600999999999871,-0.18503351734015358,-0.4407939188740701
4.800999999999938,-0.24292529150003733,-0.44102183591467775
5.000000000000004,-0.2954990050411406,-0.4401581601326692
5.200000000000071,-0.3452567677288338,-0.4258555899092796
5.400000000000138,-0.3965912894277236,-0.41418395798412655
5.600000000000205,-0.4444088711599674,-0.39404063604583256
5.800000000000272,-0.48820547604377185,-0.3629225271225119
6.000000000000338,-0.5207343109665554,-0.3136546250266828
6.200000000000405,-0.5439501421003149,-0.2565358176431251
6.400000000000472,-0.5624150860493912,-0.19363369160646934
6.600000000000539,-0.5797036015838168,-0.1331656813168208
6.800000000000606,-0.5984675365055718,-0.08133664128239358
7.000000000000672,-0.6241656695059574,-0.04152851037579712
7.200000000000739,-0.6548113788964852,-0.0024076424715913304
7.400000000000806,-0.6864276459614377,0.040964458896450534
7.600000000000873,-0.7191395884013048,0.09502295056531149
7.8000000000009395,-0.7440548095886582,0.15491490292725085
8.000000000001005,-0.7666103988420508,0.2145524726290364
8.200000000000895,-0.790437586927118,0.26811792130525586
8.400000000000784,-0.8120106765445977,0.3176582123106742
8.600000000000673,-0.8229439024368825,0.36632403936092434
8.800000000000562,-0.8236421961977396,0.41877069450130566
9.000000000000451,-0.7973643928688532,0.4674626286825622
9.20000000000034,-0.762051073761172,0.509567666361623
9.40000000000023,-0.723918786392507,0.5459191139533615
9.600000000000119,-0.688541614331434,0.581992547485815
9.800000000000008,-0.6534402652159161,0.6149723430758645
10.000999999999896,-0.6031886702622465,0.640137120183097
10.200999999999786,-0.5594055733758787,0.662849709811678
10.400999999999675,-0.5098785964532773,0.6491017585377613
10.600999999999564,-0.4533009304719336,0.6194399028271412
10.800999999999453,-0.4027043518951514,0.5838757171557207
11.000999999999342,-0.3563097119349131,0.5447244645859645
11.200999999999231,-0.3133999646486872,0.5012550870826527
11.40099999999912,-0.2723276575825257,0.4593538047445765
11.60099999999901,-0.22835169968973926,0.42528100485875797
11.800999999998899,-0.18440675599321346,0.40265777478743137
12.000999999998788,-0.1409556673879869,0.3769147280696712
12.200999999998677,-0.09819559041832297,0.3437432012441562
12.400999999998566,-0.05630458567953382,0.31225042663273955
12.600999999998455,-0.022308098088540063,0.2734045601624382
12.800999999998345,0.013582735862060385,0.2351879711749121
13.000999999998234,0.04766706185244521,0.19121457661787306
13.200999999998123,0.07620387809352097,0.14243079286952315
13.400999999998012,0.10335243182207228,0.09169748394772341
13.600999999997901,0.098986801887247,0.05286372396035837
13.80099999999779,0.07521372726680646,0.01789698471590951
14.00099999999768,0.05721658094763309,-0.019049978295918923
14.200999999997569,0.04159467569661139,-0.05650880150019805
14.400999999997458,0.02066815612544049,-0.09790291315633677
14.600999999997347,-0.009680536187880045,-0.13543731988543725
14.800999999997236,-0.03761609890455513,-0.17311333026803818
15.000999999997125,-0.06647667013839839,-0.21870378160455445
15.200999999997014,-0.1068828123549001,-0.25961724215425686
15.400999999996904,-0.15116752066218894,-0.30163757447266903
15.600999999996793,-0.19947004497828177,-0.33756180549466236
15.800999999996682,-0.24568389201313234,-0.37460360847875973
16.000999999996573,-0.29498439837761187,-0.38492740529755703
16.200999999996817,-0.3431039563801165,-0.39818142473851975
16.40099999999706,-0.3908045792299255,-0.3881834381241267
16.600999999997306,-0.43620168984857705,-0.3628316054057323
16.80099999999755,-0.4852557647186455,-0.3450649189952697
17.000999999997795,-0.5396845711468315,-0.34070764699427103
17.20099999999804,-0.5871845623804106,-0.32058985104220694
17.400999999998284,-0.6273672148462305,-0.28348777381955664
17.60099999999853,-0.6620420332247245,-0.2501475333186622
17.800999999998773,-0.6907245964412467,-0.2068317519706768
18.000999999999017,-0.7260940410432069,-0.166037291542674
18.20099999999926,-0.7629730646555296,-0.12421020257778609
18.400999999999506,-0.785014256451781,-0.07908605138882938
18.60099999999975,-0.7979425480280994,-0.03132084619606615
18.799999999999994,-0.8036523646229011,0.02225483231373549
19.000000000000238,-0.7982642650824239,0.07874632433857695
19.200000000000482,-0.7748476319364752,0.1255850598303435
19.400000000000727,-0.7527367855178908,0.17329359407823433
19.60000000000097,-0.7276827650571293,0.21889658244903615
19.800000000001216,-0.699313740335556,0.25901367373384326
20.00000000000146,-0.6668219444923266,0.30183455518176205
