Time (s),X (m),Y (m)
0.001,0.0012473251573109415,8.987223813608099e-05
0.20000000000000015,0.0011534613780138719,0.00048570508944173355
0.4000000000000003,0.005382710988708988,-0.0001801758960793112
0.6000000000000004,0.008066897104151531,0.0002956982981690947
0.8000000000000006,0.004802505459067623,0.003657024022429868
1.0000000000000007,0.005000940258316043,0.003686203818915929
1.2009999999999785,0.01598173471139741,0.004405660848774402
1.4009999999999565,0.024338220920690046,0.010104333655755523
1.6009999999999345,0.03409751445338306,0.011247575886429405
1.8009999999999124,0.03786085101953709,0.010410543477909628
2.0009999999998906,0.04662708212908531,0.009317147777135154
2.2009999999998686,0.06559816335788976,0.004019038818695727
2.4009999999998466,0.08002761302622144,0.00440042321764079
2.6009999999998246,0.09662993157871161,-0.0003738454973997096
2.8009999999998025,0.10954119589388887,-0.0042580535318358995
3.0009999999997805,0.12617655722253648,-0.008367896790659798
3.2009999999997585,0.13474486606926583,-0.012032144324969622
3.4009999999997365,0.14469302813460952,-0.017630710215717497
3.6009999999997144,0.16045643719950872,-0.020347946141118175
3.8009999999996924,0.17403218350250432,-0.02793679761845014
4.000999999999671,0.17932049683821882,-0.03421993990260506
4.200999999999738,0.19071380339196436,-0.03751635015694457
4.400999999999804,0.19977213013806489,-0.042468385637870774
4.600999999999871,0.21112390783209273,-0.04699767086700953
4.800999999999938,0.22519897963933408,-0.05160397040336609
5.000000000000004,0.2376195788730697,-0.05713695078119808
5.200000000000071,0.2469747028888649,-0.059054694261898126
5.400000000000138,0.2704235244655083,-0.06736075950844635
5.600000000000205,0.28913227667741315,-0.07954053602654385
5.800000000000272,0.30787392435973193,-0.0826908248843193
6.000000000000338,0.318303504117439,-0.08981592395407771
6.200000000000405,0.32640354865794174,-0.09733015300732151
6.400000000000472,0.3372236274853365,-0.10343364761382123
6.600000000000539,0.3516287734497012,-0.11243876005366835
6.800000000000606,0.3686321224149679,-0.12234704369219003
7.000000000000672,0.3802759067286961,-0.13312878167323072
7.200000000000739,0.398151275133508,-0.13818660171046232
7.400000000000806,0.414121322088498,-0.14553943070880557
7.600000000000873,0.42475310991742743,-0.15458886301550517
7.8000000000009395,0.4456266140443534,-0.16561323961621616
8.000000000001005,0.46635782486351035,-0.17425629862068864
8.200000000000895,0.48531803127637546,-0.18022871420122677
8.400000000000784,0.502520598164651,-0.18745631554286604
8.600000000000673,0.5163873430714137,-0.1999236680724695
8.800000000000562,0.5268817435737122,-0.20504973952017225
9.000000000000451,0.542921075994519,-0.2131325846230343
9.20000000000034,0.5601872511341988,-0.22020399146927463
9.40000000000023,0.5896136929065948,-0.23437783942129728
9.600000000000119,0.6084068597380327,-0.24499731095814317
9.800000000000008,0.624224423471647,-0.24932391843995785
10.000999999999896,0.6439708247730084,-0.2595258939386499
10.200999999999786,0.6625597640902926,-0.2686617428023644
10.400999999999675,0.6807785225854471,-0.27749304135397024
10.600999999999564,0.7028771487614521,-0.28751679950921954
10.800999999999453,0.7243633248339522,-0.30026033612317915
11.000999999999342,0.74289623184529,-0.3070752098245659
11.200999999999231,0.7625612552512309,-0.3135047746481086
11.40099999999912,0.7752820698064756,-0.32199985319907787
11.60099999999901,0.7962608639225691,-0.3348549615567364
11.800999999998899,0.8143452078714953,-0.3428250174492451
12.000999999998788,0.8314034228270868,-0.3494320000871032
12.200999999998677,0.8534554700452903,-0.3612343216757661
12.400999999998566,0.8751111519706269,-0.37770006198907413
12.600999999998455,0.8921234989270321,-0.389021219911121
12.800999999998345,0.9062314570225717,-0.396798544974048
13.000999999998234,0.9233645366646882,-0.40690397052392013
13.200999999998123,0.9396220661202097,-0.4142986838122467
13.400999999998012,0.960250636256958,-0.42196229606556684
13.600999999997901,0.9791685354073906,-0.4297645169243362
13.80099999999779,0.9915005178879833,-0.4447668692138713
14.00099999999768,1.0120675778953943,-0.4545420527462129
14.200999999997569,1.0360768369918452,-0.467285520605364
14.400999999997458,1.0571363853480424,-0.47983471558648066
14.600999999997347,1.0739054396802226,-0.4906878033497991
14.800999999997236,1.0921240814887627,-0.49625457609587614
15.000999999997125,1.1049642203785326,-0.5017679070868722
15.200999999997014,1.1197739973823355,-0.5124952931134498
15.400999999996904,1.1334566285528163,-0.522935024506875
15.600999999996793,1.1460296398216514,-0.5328971851650813
15.800999999996682,1.1669895018037901,-0.5388748776852134
16.000999999996573,1.1791138254550055,-0.5450620556359506
16.200999999996817,1.1984954116225193,-0.5546993379180125
16.40099999999706,1.2228349123986209,-0.5661921749458098
16.600999999997306,1.2543442827672893,-0.5817454680981284
16.80099999999755,1.2693323139558002,-0.591170228348694
17.000999999997795,1.2876003378152994,-0.6010356892489673
17.20099999999804,1.3048042015941925,-0.6106480028255719
17.400999999998284,1.3294885425910374,-0.6238690830818088
17.60099999999853,1.350279748622943,-0.6359358864010476
17.800999999998773,1.370071040277115,-0.650951050347596
18.000999999999017,1.3866703057092435,-0.6608302145431911
18.20099999999926,1.399975279657803,-0.6681710382318169
18.400999999999506,1.4160189067002815,-0.675823715991522
18.60099999999975,1.435291810093525,-0.6840456097262371
18.799999999999994,1.4606555368066017,-0.6998291419888087
19.000000000000238,1.485088007161731,-0.7189413391091383
19.200000000000482,1.4993025721219735,-0.7265460159248059
19.400000000000727,1.5140060962768076,-0.7316996399818876
19.60000000000097,1.5345155559139934,-0.7400472054508263
19.800000000001216,1.555874107943816,-0.7500292483381077
20.00000000000146,1.5720246392063713,-0.7607517772068124
