Time (s),X (m),Y (m)
0.001,0.0010100015126501532,-0.0006628221997479689
0.20000000000000015,0.0009323994166742226,0.0014681223606424084
0.4000000000000003,0.013050166117642752,-0.0011641711554628968
0.6000000000000004,0.04238743344673679,-0.013599934977900971
0.8000000000000006,0.07093872129858743,-0.03989087794525535
1.0000000000000007,0.10346439368957687,-0.05769676872317186
1.2009999999999785,0.13878705783359882,-0.07844311721907259
1.4009999999999565,0.1746661086043829,-0.09239299808609952
1.6009999999999345,0.2066928515182004,-0.12077710062548838
1.8009999999999124,0.23796812947520646,-0.1483832371495487
2.0009999999998906,0.27089028746039717,-0.15803615987552386
2.2009999999998686,0.29395557621542806,-0.17276308410230345
2.4009999999998466,0.30722431746446793,-0.20468815210007213
2.6009999999998246,0.31743203436595224,-0.2537723917129097
2.8009999999998025,0.320334136909902,-0.3177911831686497
3.0009999999997805,0.3190455489963263,-0.38539097811887746
3.2009999999997585,0.31329627212832845,-0.4484969618605336
3.4009999999997365,0.30946695595242146,-0.5052799014572912
3.6009999999997144,0.30688691780050287,-0.5669949569626752
3.8009999999996924,0.2841572570165024,-0.6280589161745462
4.000999999999671,0.25663559689015036,-0.6849170805711112
4.200999999999738,0.24350470364717844,-0.733389519219907
4.400999999999804,0.2353490757519523,-0.7807226052077131
4.600999999999871,0.21807365474266485,-0.8246396491362765
4.800999999999938,0.1887785507207164,-0.8540862246694744
5.000000000000004,0.1352594378038027,-0.8651610124928417
5.200000000000071,0.06987823395736935,-0.850520325623936
5.400000000000138,0.0020942788391996345,-0.8386210472309543
5.600000000000205,-0.06586469875865826,-0.8204510302217813
5.800000000000272,-0.12265106642062368,-0.7835543738425497
6.000000000000338,-0.16085146467879288,-0.730866792976353
6.200000000000405,-0.19300006713578244,-0.6901552899338911
6.400000000000472,-0.21069493596483602,-0.6385425644975308
6.600000000000539,-0.22196856686648828,-0.5808061594343925
6.800000000000606,-0.22582883387130653,-0.5239253854198286
7.000000000000672,-0.21893693041395668,-0.4702895421224612
7.200000000000739,-0.19276332660072468,-0.42664834527941564
7.400000000000806,-0.14776071008348446,-0.3974616019365271
7.600000000000873,-0.08734150067217492,-0.3793747959346556
7.8000000000009395,-0.019186780536042693,-0.3742411409102035
8.000000000001005,0.05530446113386879,-0.36971878825649696
8.200000000000895,0.12817140098666943,-0.37347466633791127
8.400000000000784,0.2047504591919599,-0.4002343104569508
8.600000000000673,0.28245586167386105,-0.4349590660020325
8.800000000000562,0.35624777399174135,-0.4772981217345131
9.000000000000451,0.4014312153015759,-0.5483248646454337
9.20000000000034,0.40959342229349727,-0.6392387127590091
9.40000000000023,0.40433312807147526,-0.7287431781460163
9.600000000000119,0.38529027205482924,-0.8144980796341038
9.800000000000008,0.3473307887580471,-0.8981859551232103
10.000999999999896,0.28946478868409803,-0.9682490495698457
10.200999999999786,0.22626096265271636,-1.011851348659786
10.400999999999675,0.1612518222108915,-1.0292550060208432
10.600999999999564,0.09937708322272372,-1.0150512310832496
10.800999999999453,0.04179842409397361,-0.9869151979490197
11.000999999999342,-0.002163154128601713,-0.9415300224117537
11.200999999999231,-0.021349438056946165,-0.8811565660192334
11.40099999999912,-0.026403362124215683,-0.8154471783536862
11.60099999999901,-0.014587344943243314,-0.7397401745295523
11.800999999998899,0.0064011525090535894,-0.6645965873708757
12.000999999998788,0.03607214981615983,-0.6019105691295065
12.200999999998677,0.07946370120491497,-0.5654666555852583
12.400999999998566,0.13637504842733017,-0.5486351343672862
12.600999999998455,0.20655591577853027,-0.5616921435361005
12.800999999998345,0.2640425100683499,-0.6069184068350345
13.000999999998234,0.3040104483818434,-0.6572021392642129
13.200999999998123,0.3191044566304421,-0.7095174854289288
13.400999999998012,0.299854647680518,-0.7690772439800736
13.600999999997901,0.2755848406865969,-0.8252205302561121
13.80099999999779,0.2429484773435922,-0.8631408394936818
14.00099999999768,0.19535373575038875,-0.8672871046622497
14.200999999997569,0.1451970624924908,-0.8522544399802887
14.400999999997458,0.09548554406198859,-0.8324872634773736
14.600999999997347,0.06295053764679216,-0.7936204235205183
14.800999999997236,0.051254604534636275,-0.7505748145947034
15.000999999997125,0.039409590240850584,-0.7077407762755091
15.200999999997014,0.05210780413948656,-0.6768692886874251
15.400999999996904,0.08829054637645142,-0.6562038543180666
15.600999999996793,0.13757763844646193,-0.6416393176958942
15.800999999996682,0.19616236252545202,-0.6373762033413969
16.000999999996573,0.2536807803280889,-0.6382063447959345
16.200999999996817,0.3102948249980912,-0.660822018312059
16.40099999999706,0.3610087380234257,-0.7099355976624782
16.600999999997306,0.3991568202341362,-0.7582170370741796
16.80099999999755,0.4214034486283627,-0.8129680339880317
17.000999999997795,0.4330381956271875,-0.8698644585863828
17.20099999999804,0.4336496425764839,-0.930766491798211
17.400999999998284,0.42853172839430326,-0.9966645850464149
17.60099999999853,0.42491581179928345,-1.0628178640017956
17.800999999998773,0.4104114990598803,-1.130578078419112
18.000999999999017,0.37279082231966226,-1.1856050696358085
18.20099999999926,0.32517587655225905,-1.2186853884454087
18.400999999999506,0.2708179228612708,-1.2263690588493892
18.60099999999975,0.2180747452690515,-1.218246740164277
18.799999999999994,0.17750585292090626,-1.190699687115307
19.000000000000238,0.15224879857973683,-1.148857009671683
19.200000000000482,0.13953702854025285,-1.090239776038651
19.400000000000727,0.13688432465378994,-1.0267899113537102
19.60000000000097,0.14960882626743402,-0.9582275112314801
19.800000000001216,0.16559243456248146,-0.884097523313736
20.00000000000146,0.1761287685753373,-0.8185793629788171
