Time (s),X (m),Y (m)
0.001,0.0002200807748493132,0.0010311682891199472
0.20000000000000015,0.0008579436018141831,-0.004207298600834677
0.4000000000000003,0.004683063588479301,-0.010558126804604398
0.6000000000000004,0.010200594907137355,-0.014217009268896883
0.8000000000000006,0.01853892592374549,-0.012383241377044843
1.0000000000000007,0.0319716324807775,-0.02202183135960671
1.2009999999999785,0.06035198711281595,-0.02113825789017298
1.4009999999999565,0.08271362453924869,-0.023418845540016844
1.6009999999999345,0.10723268996447834,-0.03851070640727046
1.8009999999999124,0.13616992184838797,-0.03780201790527594
2.0009999999998906,0.16578685154488498,-0.041409746755839236
2.2009999999998686,0.18685646568510172,-0.05386506676911612
2.4009999999998466,0.2139595986734744,-0.07094445309788358
2.6009999999998246,0.23646609319949471,-0.08412769490680115
2.8009999999998025,0.26316595469655046,-0.09928348642057498
3.0009999999997805,0.28977858911971044,-0.10258938443309014
3.2009999999997585,0.3103078725755084,-0.12454575835200164
3.4009999999997365,0.3343222748399089,-0.1492687010028578
3.6009999999997144,0.3613670052573895,-0.16916009644782473
3.8009999999996924,0.38172988463813273,-0.1941734918734556
4.000999999999671,0.40257479602472357,-0.21720860081998838
4.200999999999738,0.4319268160901693,-0.2390204966911649
4.400999999999804,0.45925177699147207,-0.259148841616464
4.600999999999871,0.46790458133026713,-0.27983559554505044
4.800999999999938,0.45114973459610214,-0.31043901327857876
5.000000000000004,0.45600832907427485,-0.3421069984668055
5.200000000000071,0.4717368570566818,-0.37117394861535985
5.400000000000138,0.49393739999148994,-0.40025894060724665
5.600000000000205,0.5233402845152415,-0.42707747334586116
5.800000000000272,0.5381039730505656,-0.45118846102038834
6.000000000000338,0.5498222404131978,-0.4775424194429625
6.200000000000405,0.5604614915378408,-0.5074458501466523
6.400000000000472,0.554778789647255,-0.5358444911562522
6.600000000000539,0.551330162368486,-0.564426250777262
6.800000000000606,0.556293757343017,-0.59609171177869
7.000000000000672,0.5436438513530343,-0.6256274521097596
7.200000000000739,0.5320468599268504,-0.6545883840549545
7.400000000000806,0.5404416974186923,-0.6899651822466338
7.600000000000873,0.5334144717017784,-0.7261081018784186
7.8000000000009395,0.5217844029948107,-0.7632361524270945
8.000000000001005,0.5141068252022932,-0.804272943847181
8.200000000000895,0.5055968725304478,-0.8441392696930723
8.400000000000784,0.49178758080169477,-0.884576969929841
8.600000000000673,0.47309301485513394,-0.9196015900580465
8.800000000000562,0.45108617929245176,-0.9459092028584547
9.000000000000451,0.41919577486884796,-0.9563071556334579
9.20000000000034,0.3910959785905839,-0.9454829935281889
9.40000000000023,0.370264294374164,-0.9270978452740999
9.600000000000119,0.34663048674192387,-0.9107452668607222
9.800000000000008,0.3304672923709251,-0.8892335685303465
10.000999999999896,0.3020437542300223,-0.8702730526450956
10.200999999999786,0.2678430362397893,-0.8421549593128926
10.400999999999675,0.2404723568543106,-0.8129942116485397
10.600999999999564,0.2069529461680041,-0.78433220248802
10.800999999999453,0.17836326887078255,-0.7609884990387661
11.000999999999342,0.15078338284708123,-0.7379275090844682
11.200999999999231,0.11892037248432247,-0.7099979131352498
11.40099999999912,0.06998307962840725,-0.6876799892809329
11.60099999999901,0.03783639610838885,-0.6588881092530957
11.800999999998899,0.014399021532949365,-0.6274696296197366
12.000999999998788,-0.006055022635016134,-0.5897830190183089
12.200999999998677,-0.022030923065853133,-0.5547040627965494
12.400999999998566,-0.025281263074388306,-0.5210722312637521
12.600999999998455,-0.01041692618444334,-0.4879361460221729
12.800999999998345,0.00588998781591126,-0.4532530139185482
13.000999999998234,0.01751927265660724,-0.4195078249716506
13.200999999998123,0.04006535291564672,-0.3881782603800028
13.400999999998012,0.070777988293163,-0.3620378936844092
13.600999999997901,0.11020521675096183,-0.3432373402581092
13.80099999999779,0.14776598583465556,-0.3169174399915649
14.00099999999768,0.17555490836683824,-0.2898097944196373
14.200999999997569,0.20863963155884643,-0.26154315114023285
14.400999999997458,0.22394105773944425,-0.22285615181084245
14.600999999997347,0.2409155803250311,-0.18880962247012315
14.800999999997236,0.2514973690100159,-0.15385075638339824
15.000999999997125,0.26728611669244023,-0.12153569609431668
15.200999999997014,0.2964844543586195,-0.0972402511572813
15.400999999996904,0.30996927167324395,-0.051797937624809914
15.600999999996793,0.31700672358343884,-0.0015340310547009989
15.800999999996682,0.3376626023875298,0.03048896726496823
16.000999999996573,0.3648078710368801,0.04716486916641591
16.200999999996817,0.39542802278271066,0.057458348621611005
16.40099999999706,0.42058116183479133,0.04396018413294048
16.600999999997306,0.4398248034955693,0.013019698931736007
16.80099999999755,0.4618841558866021,-0.019670095780762804
17.000999999997795,0.48746272650117795,-0.05394997070141261
17.20099999999804,0.5001861087304827,-0.09348845789316645
17.400999999998284,0.49158242970514526,-0.13182174269913025
17.60099999999853,0.4981804036453098,-0.16408469040889245
17.800999999998773,0.4883601827975277,-0.19345368532551552
18.000999999999017,0.4826352785490757,-0.23119184416514563
18.20099999999926,0.4676588838409304,-0.2717343763718188
18.400999999999506,0.4428597648839331,-0.30407372709193425
18.60099999999975,0.4234972967343858,-0.33699278405326644
18.799999999999994,0.39907340214278314,-0.3731427518343169
19.000000000000238,0.37011815310118257,-0.3993955586959077
19.200000000000482,0.33833540286729696,-0.44010952515743035
19.400000000000727,0.3062981128517162,-0.46100688962582576
19.60000000000097,0.27362811533140263,-0.47796960931521454
19.800000000001216,0.2383136318299346,-0.48421507052168444
20.00000000000146,0.19731852828669064,-0.48748508037183286
