Time (s),X (m),Y (m)
0.001,-0.00037137305770231177,-0.0008446836120385868
0.20000000000000015,0.004563130288158976,0.004288676740235435
0.4000000000000003,0.01319298830240381,0.003186637920162548
0.6000000000000004,0.038741737903408166,0.003865965159340782
0.8000000000000006,0.07040267052236891,0.005030979511644411
1.0000000000000007,0.0959764521479865,3.5675225180342986e-05
1.2009999999999785,0.13077890166002712,-0.011729899787492615
1.4009999999999565,0.15602954346750927,-0.02682416796049782
1.6009999999999345,0.1928441571951674,-0.052854472709076006
1.8009999999999124,0.24215178567296267,-0.08848519229285202
2.0009999999998906,0.2952411487992698,-0.13204114942078127
2.2009999999998686,0.3397737587636726,-0.1818949633973932
2.4009999999998466,0.39308448521203787,-0.24307922971132515
2.6009999999998246,0.45220526564094954,-0.3000279628352847
2.8009999999998025,0.5041602875625931,-0.3526075998858914
3.0009999999997805,0.5554039116921149,-0.4059564846353301
3.2009999999997585,0.6222738472192728,-0.4613481438881566
3.4009999999997365,0.6977597526504178,-0.507499695812847
3.6009999999997144,0.773828361942748,-0.5526963855481927
3.8009999999996924,0.8512964496878561,-0.6090545819884281
4.000999999999671,0.9111591896610709,-0.6679575833916912
4.200999999999738,0.9665895263521538,-0.7343627373614929
4.400999999999804,1.0156605987741565,-0.7986210434186958
4.600999999999871,1.054009039775272,-0.8561666251321898
4.800999999999938,1.0841680236831155,-0.9149263631332801
5.000000000000004,1.1098071686829212,-0.9853917015995627
5.200000000000071,1.1275303026539913,-1.054951453245462
5.400000000000138,1.128891688761404,-1.1046730616668503
5.600000000000205,1.1022113332845804,-1.1493247130780209
5.800000000000272,1.0476905696220666,-1.193914687198625
6.000000000000338,0.9845876452609923,-1.250300373576973
6.200000000000405,0.9184800594985256,-1.328202876022493
6.400000000000472,0.8622487141229153,-1.4030677230601158
6.600000000000539,0.8205603683979661,-1.4787866447901645
6.800000000000606,0.7770510535039726,-1.5451769065649181
7.000000000000672,0.7396722421065848,-1.6271431351976196
7.200000000000739,0.7121994927727457,-1.7044133553598493
7.400000000000806,0.6749426309996,-1.7925693159579097
7.600000000000873,0.6201704424832118,-1.8662294963623633
7.8000000000009395,0.5478261699152098,-1.9394817215410143
8.000000000001005,0.46456637136262036,-2.0123705776649254
8.200000000000895,0.37778939707521103,-2.079084279346847
8.400000000000784,0.28431019963087434,-2.151956126783447
8.600000000000673,0.19487997767349363,-2.220286169971658
8.800000000000562,0.10121421475709914,-2.283073919083632
9.000000000000451,0.005635607016071939,-2.3399795696921335
9.20000000000034,-0.09672499758220439,-2.3911543881362523
9.40000000000023,-0.20203257233481284,-2.4305176861334874
9.600000000000119,-0.2908653691979726,-2.4430405297079467
9.800000000000008,-0.3560718638968069,-2.421308593134303
10.000999999999896,-0.4091171009417289,-2.3742101611410695
10.200999999999786,-0.45260773551236005,-2.3139029472755275
10.400999999999675,-0.48135180513119075,-2.2392217476354936
10.600999999999564,-0.4845102292084141,-2.1677905212237776
10.800999999999453,-0.45628717065299,-2.0969476775065137
11.000999999999342,-0.4083412110655183,-2.015727374030327
11.200999999999231,-0.3452600025222983,-1.933639560131288
11.40099999999912,-0.2768804428554053,-1.8676480065497487
11.60099999999901,-0.20696500456326647,-1.8115163757575403
11.800999999998899,-0.12534487996738622,-1.765371397842064
12.000999999998788,-0.02030774406032258,-1.7161325431412462
12.200999999998677,0.07154041163644503,-1.679705723637647
12.400999999998566,0.1405109281313835,-1.6753725668997637
12.600999999998455,0.20930005436170435,-1.6905714483343977
12.800999999998345,0.2879451766451448,-1.72733157933368
13.000999999998234,0.36852056553021645,-1.7844983478529313
13.200999999998123,0.4362728328297367,-1.854115511531898
13.400999999998012,0.4932570253783393,-1.9302216606538203
13.600999999997901,0.544620234502683,-2.0069045928491
13.80099999999779,0.5846601357301588,-2.0850764699095694
14.00099999999768,0.6213090849354128,-2.169074400206934
14.200999999997569,0.6435694652010922,-2.248173571999005
14.400999999997458,0.6433449604949206,-2.3164269596520852
14.600999999997347,0.6130383646495565,-2.3768858464602993
14.800999999997236,0.5612476222459308,-2.442415223441059
15.000999999997125,0.5022491788272405,-2.5029799179853995
15.200999999997014,0.43519146276908793,-2.5471092544120206
15.400999999996904,0.3797417650700988,-2.5601375869776906
15.600999999996793,0.3453163125476234,-2.5482995513894493
15.800999999996682,0.3194685301038487,-2.517667001242417
16.000999999996573,0.3217051223970506,-2.4739306784696855
16.200999999996817,0.35199659195971145,-2.413515770690073
16.40099999999706,0.3944822559314718,-2.3570666179812765
16.600999999997306,0.44276414093199035,-2.3196950528751294
16.80099999999755,0.4980021231133754,-2.274707206235613
17.000999999997795,0.5651691935028437,-2.2195755285224723
17.20099999999804,0.6360530182840702,-2.1608455514751967
17.400999999998284,0.7133058499451598,-2.108675294254503
17.60099999999853,0.7912020826045952,-2.073842444107421
17.800999999998773,0.864231377178474,-2.047138201379344
18.000999999999017,0.9242230639352196,-2.034189896650911
18.20099999999926,0.9743926576125951,-2.039392046901598
18.400999999999506,1.0167280474247113,-2.0677537455850397
18.60099999999975,1.0634869188863603,-2.121681648525904
18.799999999999994,1.114092926655578,-2.1919330038112372
19.000000000000238,1.1658871641687205,-2.272827342977962
19.200000000000482,1.2209208970238619,-2.364404316504018
19.400000000000727,1.265728006833702,-2.4547740191705696
19.60000000000097,1.3136654574938198,-2.549715349390128
19.800000000001216,1.3508304969127853,-2.6410013212498975
20.00000000000146,1.3635034192456938,-2.726983808600935
