Time (s),X (m),Y (m)
0.001,-0.0005698399629515257,0.0006628221997479692
0.20000000000000015,0.005242778375915204,-0.0003703893658620421
0.4000000000000003,0.019477141156693318,-0.002753597259589204
0.6000000000000004,0.050706075500407004,-0.012383157606663402
0.8000000000000006,0.08453803387106136,-0.020869089689868083
1.0000000000000007,0.12226491771469679,-0.024649744906518167
1.2009999999999785,0.1706676629573771,-0.029288578655970444
1.4009999999999565,0.23943624086867163,-0.03524898269164046
1.6009999999999345,0.3140980376078512,-0.051052347139223395
1.8009999999999124,0.3738419235471282,-0.07271473386289838
2.0009999999998906,0.43405065362532985,-0.11206326520056231
2.2009999999998686,0.49286153996391446,-0.1385020544263422
2.4009999999998466,0.5419759819019507,-0.15004307528754735
2.6009999999998246,0.584450199023391,-0.15509820592073767
2.8009999999998025,0.6188503082673661,-0.166680129914768
3.0009999999997805,0.642138300920074,-0.19713995187586197
3.2009999999997585,0.6432595311486973,-0.2285211364608894
3.4009999999997365,0.6399482809537285,-0.257169634783269
3.6009999999997144,0.6376761646867946,-0.2870332817524542
3.8009999999996924,0.6243758860400004,-0.3179201905996463
4.000999999999671,0.5974819244851307,-0.33642931022799194
4.200999999999738,0.5626413502478721,-0.3463840624772371
4.400999999999804,0.5184874043402627,-0.3561837053152478
4.600999999999871,0.4729464828786028,-0.3536900853843279
4.800999999999938,0.42844731401900904,-0.3394543041839897
5.000000000000004,0.38874526367524415,-0.3078923121102649
5.200000000000071,0.36519836781223225,-0.26867546859824004
5.400000000000138,0.3530322655603973,-0.23134760585394842
5.600000000000205,0.3409565809099499,-0.1941644159376481
5.800000000000272,0.3369482284051183,-0.1459792992744038
6.000000000000338,0.3453322387150343,-0.08626287233426555
6.200000000000405,0.33967441106740065,-0.03791698011667027
6.400000000000472,0.3458906097461133,0.01534437508538752
6.600000000000539,0.35350957212205036,0.0682370628319054
6.800000000000606,0.3721648804508525,0.12539802807589276
7.000000000000672,0.38465375142546776,0.18410318508164883
7.200000000000739,0.40563614900861783,0.2498677157169301
7.400000000000806,0.4286890076823265,0.31382885974243285
7.600000000000873,0.46732721880981676,0.37149195884750136
7.8000000000009395,0.5099582676357001,0.4153690978686652
8.000000000001005,0.5590189368610324,0.4389545082674892
8.200000000000895,0.6046355242688624,0.4537261332592249
8.400000000000784,0.6533615873259205,0.4455201469979544
8.600000000000673,0.7027434563170292,0.41633316527089254
8.800000000000562,0.7398080407447999,0.3669318583015885
9.000000000000451,0.7647959095271213,0.3180322554369436
9.20000000000034,0.786746499974304,0.2762570820704229
9.40000000000023,0.7912517298470735,0.2230964503441152
9.600000000000119,0.7822656784740217,0.17601790786582527
9.800000000000008,0.7626568000346724,0.13211712887399787
10.000999999999896,0.7430807014964984,0.07111633624204625
10.200999999999786,0.7251279938958171,0.0023142978304216363
10.400999999999675,0.7091804087226535,-0.06588985291040765
10.600999999999564,0.7020135671169561,-0.13033405870324932
10.800999999999453,0.6781702609239714,-0.18605142329134974
11.000999999999342,0.6354838106498132,-0.21511249990670123
11.200999999999231,0.5824430078012584,-0.22075920071330937
11.40099999999912,0.5254010295657013,-0.22031895747653873
11.60099999999901,0.46684716913232754,-0.1998624176434054
11.800999999998899,0.41675376192880376,-0.15508454795247698
12.000999999998788,0.3874126575537545,-0.09125970973288544
12.200999999998677,0.3785647247143487,-0.028137594575756257
12.400999999998566,0.394992776410174,0.04529546206184814
12.600999999998455,0.418111952320199,0.12084651190540986
12.800999999998345,0.44336994980895506,0.1946803034859647
13.000999999998234,0.4620932918036263,0.2673010841358389
13.200999999998123,0.4743032883533238,0.3334801893020369
13.400999999998012,0.5083249389374012,0.3771340925234134
13.600999999997901,0.5503162620723541,0.4060050787851257
13.80099999999779,0.6008227426703465,0.424840217648457
14.00099999999768,0.6605599134515369,0.4299473827663844
14.200999999997569,0.720202128743041,0.42559895669425857
14.400999999997458,0.7792174679578248,0.4190008332916089
14.600999999997347,0.8361290996041655,0.400748799488271
14.800999999997236,0.8946155453656937,0.3696615301671779
15.000999999997125,0.9535254712276326,0.3343058520093387
15.200999999997014,1.0072969209289118,0.3012305476677594
15.400999999996904,1.0521252410417388,0.25834493216053933
15.600999999996793,1.0885221270716454,0.21452551092021943
15.800999999996682,1.1129481451264744,0.1565622057925229
16.000999999996573,1.12802069020767,0.09270079669254638
16.200999999996817,1.1366119933631849,0.02414818652416501
16.40099999999706,1.121509702667516,-0.046548495670299575
16.600999999997306,1.0970663259830247,-0.1128539576124785
16.80099999999755,1.0494557760810705,-0.1703856704839725
17.000999999997795,0.9934509997178878,-0.20881560366113056
17.20099999999804,0.9314106044211616,-0.2160169475530874
17.400999999998284,0.8718136361866875,-0.20640238815436696
17.60099999999853,0.8211402090723575,-0.17126322936334087
17.800999999998773,0.7888759347936607,-0.12562065031384423
18.000999999999017,0.7664457109491091,-0.07786545147935069
18.20099999999926,0.7622789318585474,-0.016462729343079227
18.400999999999506,0.7771857870683705,0.052521150394988204
18.60099999999975,0.8042640088571316,0.1321352965340562
18.799999999999994,0.8568077354450724,0.21072347648378206
19.000000000000238,0.9189674343652796,0.2633493594326052
19.200000000000482,0.987263533869296,0.28140009470240396
19.400000000000727,1.05086083011446,0.2811485105577432
19.60000000000097,1.118062116285184,0.2783219458237691
19.800000000001216,1.1823477076165587,0.2745365040639733
20.00000000000146,1.2510363430170623,0.2618363469678801
