Time (s),X (m),Y (m)
0.001,0.0002200807748493132,0.0010311682891199472
0.20000000000000015,0.0009524958947060867,-0.003083829193109353
0.4000000000000003,0.005078399773672222,-0.00911827766785671
0.6000000000000004,0.011013291417510448,-0.007690304249333596
0.8000000000000006,0.02369862533409004,-0.003473855317395122
1.0000000000000007,0.037058531248340354,-0.002305532868823402
1.2009999999999785,0.05658109812815093,-0.002478909250881112
1.4009999999999565,0.0735690452460721,-0.004381769432611225
1.6009999999999345,0.08960600293722351,-0.011524282478244495
1.8009999999999124,0.10813120268450666,-0.010268412183724073
2.0009999999998906,0.12973853635865107,-0.017084060598280493
2.2009999999998686,0.1488614625336986,-0.036098333301922934
2.4009999999998466,0.16784972126763328,-0.03704295844350692
2.6009999999998246,0.19178455576482029,-0.043693955212177206
2.8009999999998025,0.20838606187743586,-0.05656020493934179
3.0009999999997805,0.22417547851780087,-0.07498161000368461
3.2009999999997585,0.24483369024162488,-0.08668248730418883
3.4009999999997365,0.26361635211060797,-0.09578798303485757
3.6009999999997144,0.2857971051049655,-0.09743622553552164
3.8009999999996924,0.3068497983381454,-0.10456374622075248
4.000999999999671,0.3222404407096703,-0.11646662046712881
4.200999999999738,0.34138103033502637,-0.11202425754664154
4.400999999999804,0.3700295129209311,-0.11277579527878975
4.600999999999871,0.38651003644161586,-0.1264310415254694
4.800999999999938,0.41045973182864565,-0.13039961884250342
5.000000000000004,0.428119977464888,-0.14271728871573008
5.200000000000071,0.4450770304837567,-0.15528024816999075
5.400000000000138,0.4686570250368807,-0.1726591107917587
5.600000000000205,0.49233591645282115,-0.18143494923196712
5.800000000000272,0.5113182378781532,-0.18710625954545107
6.000000000000338,0.5310603026771408,-0.19434611739320157
6.200000000000405,0.5521500987926274,-0.1984541915611816
6.400000000000472,0.5706495428247736,-0.21539126936659125
6.600000000000539,0.5894836212326434,-0.2197946048075937
6.800000000000606,0.6169874936388151,-0.22525328020666174
7.000000000000672,0.6388032819568247,-0.23165887188440973
7.200000000000739,0.6584016380925237,-0.2421846433255122
7.400000000000806,0.6770564832567222,-0.2453860946105999
7.600000000000873,0.7000599843303138,-0.24196953786066713
7.8000000000009395,0.7271888617722972,-0.24236153517530623
8.000000000001005,0.7438468764031717,-0.24786142610088768
8.200000000000895,0.7650967598688229,-0.253125909192749
8.400000000000784,0.7876504477073626,-0.2549125318155768
8.600000000000673,0.8057097670157118,-0.2666463723284884
8.800000000000562,0.8236562661598044,-0.2775067098488426
9.000000000000451,0.8444555257958243,-0.28228306970936795
9.20000000000034,0.8610781136013195,-0.2939950277057099
9.40000000000023,0.8820240710194687,-0.3028931605300151
9.600000000000119,0.9050569926283638,-0.30449878470182007
9.800000000000008,0.9281328835580592,-0.31635621593000446
10.000999999999896,0.9518874419505082,-0.3015933361030018
10.200999999999786,0.9714629141913068,-0.301241844627346
10.400999999999675,0.9888005611677421,-0.30562511317226254
10.600999999999564,1.0065327409445934,-0.3098300573329555
10.800999999999453,1.0244648225749342,-0.32358354140386747
11.000999999999342,1.044814852720613,-0.32260973576555596
11.200999999999231,1.0597356586973508,-0.33293093563698456
11.40099999999912,1.080073335939726,-0.33834769184578567
11.60099999999901,1.111125887065777,-0.32398876364193724
11.800999999998899,1.136528681208919,-0.3239932662157766
12.000999999998788,1.1595706120115106,-0.3405241913929662
12.200999999998677,1.1727519614791178,-0.35547394823709744
12.400999999998566,1.1868816548817167,-0.35321975561358676
12.600999999998455,1.2113947299158603,-0.3562853230716377
12.800999999998345,1.238629705948671,-0.3599432780635098
13.000999999998234,1.2655128571866971,-0.36788907248187686
13.200999999998123,1.2894556503904022,-0.38436851118927956
13.400999999998012,1.3131235249433606,-0.3947692312281438
13.600999999997901,1.3365078370968795,-0.38899519247400993
13.80099999999779,1.3603640698823478,-0.3886713825481125
14.00099999999768,1.3794236375495523,-0.39324980871969734
14.200999999997569,1.3963814990970267,-0.40458368073257694
14.400999999997458,1.412768158793937,-0.41904645300583493
14.600999999997347,1.4323937716797464,-0.4306714259902341
14.800999999997236,1.4609796487052218,-0.4324478396580652
15.000999999997125,1.4919356961408734,-0.4394191816550391
15.200999999997014,1.515535092652608,-0.4471289434573473
15.400999999996904,1.5412036558928905,-0.4555337602317805
15.600999999996793,1.5638388206784852,-0.4584324453311015
15.800999999996682,1.5884983158664947,-0.4579533086064497
16.000999999996573,1.6093911991401206,-0.46769230369362375
16.200999999996817,1.627277235853136,-0.4830360110895938
16.40099999999706,1.6485436448623645,-0.4929282431115054
16.600999999997306,1.6782389520943992,-0.49371002749634113
16.80099999999755,1.7033337321946502,-0.4989794606762519
17.000999999997795,1.7239469040315953,-0.5055956220343245
17.20099999999804,1.7482056299349087,-0.5188247098535085
17.400999999998284,1.771033507608562,-0.5347237022955611
17.60099999999853,1.793332537734599,-0.5441471577958243
17.800999999998773,1.817426183389114,-0.5512753715388109
18.000999999999017,1.8332655890245488,-0.568915658148983
18.20099999999926,1.850939492173827,-0.5755922144501033
18.400999999999506,1.8709135702877586,-0.5885434377523414
18.60099999999975,1.895350104247472,-0.6004522453314025
18.799999999999994,1.9139501802755539,-0.6025392439255985
19.000000000000238,1.9371428636572559,-0.6023335564770153
19.200000000000482,1.9616450010502977,-0.599904055118805
19.400000000000727,1.980122633233783,-0.6120221660857504
19.60000000000097,2.0050241328644622,-0.6139100846772317
19.800000000001216,2.027976766427777,-0.6139581984286818
20.00000000000146,2.0566532350161064,-0.6232063952692992
