Time (s),X (m),Y (m)
0.001,0.0012473251573109415,-8.987223813608099e-05
0.20000000000000015,-0.0029330154968002327,0.0003125539887955071
0.4000000000000003,-0.005398594319144972,0.0035150124596331034
0.6000000000000004,0.0021847863071902058,0.0072298870953624505
0.8000000000000006,0.006562376753972624,0.004997081053359415
1.0000000000000007,0.02052742421336592,0.00024868504919427334
1.2009999999999785,0.048270062567471794,-0.006942151547086581
1.4009999999999565,0.08777847394155334,-0.02679609717564735
1.6009999999999345,0.1205544308230525,-0.04327678723680545
1.8009999999999124,0.14547134284412142,-0.05235127740475664
2.0009999999998906,0.17344500641591273,-0.07380671895854587
2.2009999999998686,0.20704410958708588,-0.09528453720858938
2.4009999999998466,0.23647885441773875,-0.1039797438435839
2.6009999999998246,0.2622139492156629,-0.12334928567372931
2.8009999999998025,0.2955994489024028,-0.14723104897304026
3.0009999999997805,0.3304660604988081,-0.1734640158992859
3.2009999999997585,0.3596119001369444,-0.18940027117033126
3.4009999999997365,0.3941344299122941,-0.22158863360197412
3.6009999999997144,0.4268620170874695,-0.26175300236166643
3.8009999999996924,0.4544271801654131,-0.3040561403048499
4.000999999999671,0.46362594961102715,-0.34102751373649687
4.200999999999738,0.45692109271322484,-0.3791829239226545
4.400999999999804,0.43477299443633166,-0.4199823790844462
4.600999999999871,0.39911294792870655,-0.44961634111252297
4.800999999999938,0.3637689780371781,-0.4650369946011879
5.000000000000004,0.3257315651679095,-0.4669838439823926
5.200000000000071,0.28711961338934805,-0.4588491462113921
5.400000000000138,0.24408523812006735,-0.44308198077723304
5.600000000000205,0.2006023086285281,-0.4085667900246846
5.800000000000272,0.1730947707973357,-0.3692336131961327
6.000000000000338,0.17049458515131116,-0.3304235130125863
6.200000000000405,0.18935407777914648,-0.2844176746939091
6.400000000000472,0.21343524235672223,-0.2335108037079684
6.600000000000539,0.24459169749296764,-0.19026872702420128
6.800000000000606,0.28572501161848174,-0.16884162812477999
7.000000000000672,0.3348769192585474,-0.17293589703224255
7.200000000000739,0.38029918235588156,-0.18584308839992247
7.400000000000806,0.4222929887302099,-0.20349864515369062
7.600000000000873,0.46498179502421066,-0.22083969402493284
7.8000000000009395,0.5012273204356094,-0.23956373352213545
8.000000000001005,0.5384100844609939,-0.2533220495420879
8.200000000000895,0.5802416863242382,-0.2750225959695583
8.400000000000784,0.6194812005778734,-0.2989802956526279
8.600000000000673,0.6657917435698606,-0.32321594013356675
8.800000000000562,0.7278181350849533,-0.352324955380132
9.000000000000451,0.7968477102122332,-0.3905960659422389
9.20000000000034,0.8596533124786275,-0.43102860718310293
9.40000000000023,0.9107106071080793,-0.4786426516355907
9.600000000000119,0.9387582201348529,-0.5369683634572209
9.800000000000008,0.9371273897622598,-0.5939590925144268
10.000999999999896,0.9272145764476356,-0.6445502029457416
10.200999999999786,0.9021824387786357,-0.6890250096314453
10.400999999999675,0.8673878088484684,-0.7236411411316213
10.600999999999564,0.8190854541219975,-0.7541660408339699
10.800999999999453,0.7673412169432251,-0.7717847322591995
11.000999999999342,0.7180278039717045,-0.7708705777819911
11.200999999999231,0.6605618191824925,-0.7552018983333215
11.40099999999912,0.6058436946745543,-0.7338071990291888
11.60099999999901,0.5484528928662963,-0.7119436240888214
11.800999999998899,0.5051868192651013,-0.692343485035256
12.000999999998788,0.46918992055452796,-0.6861244658714734
12.200999999998677,0.4270391383156002,-0.6705396786668858
12.400999999998566,0.3817932546521427,-0.6372378203346806
12.600999999998455,0.35345560816779864,-0.5897254979709619
12.800999999998345,0.35162151630404614,-0.5415072851832897
13.000999999998234,0.3730297589792686,-0.48504214514514776
13.200999999998123,0.39976892765543237,-0.42988443962123213
13.400999999998012,0.43194222635366153,-0.3862387726465712
13.600999999997901,0.4696818992239255,-0.3697137234301084
13.80099999999779,0.5126004953455454,-0.3745252856062418
14.00099999999768,0.5574815421825217,-0.38794697205347467
14.200999999997569,0.6033954715811525,-0.4034670816486862
14.400999999997458,0.6519466394297505,-0.4310638375187933
14.600999999997347,0.6926553987127478,-0.46725556451325245
14.800999999997236,0.7091634726907168,-0.50378254677145
15.000999999997125,0.696972564457718,-0.5511274913475611
15.200999999997014,0.6724817121211968,-0.6048765858293111
15.400999999996904,0.6406432567540995,-0.6581187146187162
15.600999999996793,0.6013097397136256,-0.7091384672364243
15.800999999996682,0.5579324238335576,-0.7469744185203655
16.000999999996573,0.5032202205150815,-0.7560270636221756
16.200999999996817,0.4536100333008187,-0.7481773507998497
16.40099999999706,0.4082735351883794,-0.7295931847449009
16.600999999997306,0.36363129177147335,-0.7085768752478648
16.80099999999755,0.3158393686898626,-0.6822686211830987
17.000999999997795,0.26332463912152315,-0.6508257826030943
17.20099999999804,0.2038970189071361,-0.6136576613488322
17.400999999998284,0.13945032693927437,-0.5718226604963978
17.60099999999853,0.07988707218800395,-0.5350674468770267
17.800999999998773,0.02325631890124219,-0.5050272936672494
18.000999999999017,-0.023124372200380106,-0.47211979100319384
18.20099999999926,-0.06988530114928264,-0.43171531995281176
18.400999999999506,-0.1168646269033771,-0.3937765230156421
18.60099999999975,-0.16469308442494793,-0.35962993464232157
18.799999999999994,-0.21001930724707035,-0.32902287002930575
19.000000000000238,-0.24786447836135914,-0.30722150048506247
19.200000000000482,-0.2722135528264698,-0.28024037753457043
19.400000000000727,-0.2799959108876552,-0.23803817568926972
19.60000000000097,-0.2769602853866987,-0.20887573700434345
19.800000000001216,-0.27121512955156934,-0.18294140678507018
20.00000000000146,-0.2594041386341765,-0.1526038849225218
