Time (s),X (m),Y (m)
0.001,-0.0007759513068619564,0.00026688599193002506
0.20000000000000015,0.0073906065009496525,-0.0020384499994695257
0.4000000000000003,0.012190293872437126,-0.002210043615961824
0.6000000000000004,0.023885122759117965,-0.0062500225506014655
0.8000000000000006,0.04159203437086656,-0.010910878857205665
1.0000000000000007,0.07078890737662322,-0.01928469610937081
1.2009999999999785,0.1021316608287547,-0.02485736785098885
1.4009999999999565,0.14072613916468818,-0.03860285108862606
1.6009999999999345,0.17842971756622583,-0.06216324729532181
1.8009999999999124,0.21789124694689088,-0.0819483772383584
2.0009999999998906,0.2502955545365315,-0.11380737909030168
2.2009999999998686,0.26690514917778696,-0.15338367038088113
2.4009999999998466,0.2790739974246667,-0.17459248627701285
2.6009999999998246,0.27414884717924876,-0.19899250361700055
2.8009999999998025,0.2593450743407143,-0.23298815112766416
3.0009999999997805,0.23938376342354434,-0.2690763447649745
3.2009999999997585,0.22013223747213845,-0.30160776485823365
3.4009999999997365,0.20032295278448686,-0.33509431804576
3.6009999999997144,0.17964003689433466,-0.3720857933622044
3.8009999999996924,0.1634687089120089,-0.4047732972406584
4.000999999999671,0.1373979684674595,-0.44596813198612406
4.200999999999738,0.11635901767456167,-0.48850121617559517
4.400999999999804,0.07897972654130588,-0.5161581330029409
4.600999999999871,0.03520778251739102,-0.5226500616258465
4.800999999999938,0.0012223388146389788,-0.5212273848271497
5.000000000000004,-0.03857705143491352,-0.5101628184067987
5.200000000000071,-0.07178575804270314,-0.4991385925800376
5.400000000000138,-0.11427361674142701,-0.4861672294312299
5.600000000000205,-0.16352268570023198,-0.4626831655101937
5.800000000000272,-0.2141597684299139,-0.43687018958067586
6.000000000000338,-0.2684808281643052,-0.4100536101288717
6.200000000000405,-0.32251805882442697,-0.3733478803746281
6.400000000000472,-0.3766458858049608,-0.3261668731260014
6.600000000000539,-0.4213467985271148,-0.2834945830181408
6.800000000000606,-0.4528087584640248,-0.23760492154793686
7.000000000000672,-0.4654639273459229,-0.18798063248729682
7.200000000000739,-0.4636484140200934,-0.13868872792980638
7.400000000000806,-0.4545668329357489,-0.09151278692607094
7.600000000000873,-0.4394654536464532,-0.033068467823497955
7.8000000000009395,-0.42103237140154465,0.024330661521011952
8.000000000001005,-0.40096509302244293,0.08138801674622825
8.200000000000895,-0.37095615286819944,0.14049536476490096
8.400000000000784,-0.3413733466764728,0.19609767819748616
8.600000000000673,-0.29682853720054203,0.22820946815392656
8.800000000000562,-0.24972968966558629,0.22297899614256722
9.000000000000451,-0.19888670720798696,0.20417026714959677
9.20000000000034,-0.14300386058144815,0.18274866467459197
9.40000000000023,-0.07788428230492615,0.1488853700198206
9.600000000000119,-0.021366343561190795,0.10740764913640151
9.800000000000008,0.0046799461785668765,0.048514927960342076
10.000999999999896,0.010352909863617534,-0.012461592725415237
10.200999999999786,0.0001721904589415852,-0.07003766993604771
10.400999999999675,-0.020504899466252478,-0.12885019013086188
10.600999999999564,-0.04549715037090172,-0.18749731707252082
10.800999999999453,-0.07072003065042376,-0.24193510058214193
11.000999999999342,-0.092004280052215,-0.29564791774063587
11.200999999999231,-0.1149593438357464,-0.3476833846025241
11.40099999999912,-0.1335896949171308,-0.3964846339868954
11.60099999999901,-0.1515026862216281,-0.448972232888863
11.800999999998899,-0.17924897812153537,-0.5053521291677847
12.000999999998788,-0.21215665314252077,-0.562940420498985
12.200999999998677,-0.2532174793041075,-0.6104639792408663
12.400999999998566,-0.29956882355792464,-0.6380982723407915
12.600999999998455,-0.35212524780002136,-0.6342652238960048
12.800999999998345,-0.40334778444228453,-0.6063703624541695
13.000999999998234,-0.43739470373619804,-0.5757451747893734
13.200999999998123,-0.44672063755914804,-0.5380090281117287
13.400999999998012,-0.436336031548003,-0.48668969579231297
13.600999999997901,-0.4164289038577144,-0.43233617663175894
13.80099999999779,-0.38892562740264663,-0.37357066308196074
14.00099999999768,-0.3546311389461263,-0.30795183306548635
14.200999999997569,-0.3155320689295978,-0.24048003068117652
14.400999999997458,-0.28766255271055846,-0.1838456682421259
14.600999999997347,-0.2433703753368456,-0.1394319357996624
14.800999999997236,-0.19271508563541298,-0.12067807029434167
15.000999999997125,-0.13479885137075331,-0.1206358628495985
15.200999999997014,-0.08664038426763238,-0.12768613949418983
15.400999999996904,-0.03223840813112442,-0.14518835495826227
15.600999999996793,0.024235453075054824,-0.16159141747067754
15.800999999996682,0.08188848861402534,-0.1879435734884752
16.000999999996573,0.14092785360226465,-0.2143019391474047
16.200999999996817,0.1988551922704957,-0.24388935060008546
16.40099999999706,0.2572458537757918,-0.2905465636075164
16.600999999997306,0.29415228190052606,-0.35234324113559806
16.80099999999755,0.3067672088371622,-0.4125517245248811
17.000999999997795,0.3019545118263609,-0.47405909644773087
17.20099999999804,0.2902017901803742,-0.5340372743042635
17.400999999998284,0.27945734942311945,-0.5895142807685367
17.60099999999853,0.25257107959028857,-0.6477502692023833
17.800999999998773,0.22578084757833378,-0.7079381362869439
18.000999999999017,0.19983858763145138,-0.7571483841861527
18.20099999999926,0.16614875755169006,-0.7845663238850498
18.400999999999506,0.12846097426324082,-0.7904748965471946
18.60099999999975,0.08807117344774028,-0.781834040463173
18.799999999999994,0.03902351264527243,-0.7675861190675679
19.000000000000238,-0.01626281860440152,-0.7481385687420595
19.200000000000482,-0.0753611182681865,-0.7181545233465524
19.400000000000727,-0.13137954653569062,-0.6856556536699036
19.60000000000097,-0.17844598137525094,-0.6520848490246647
19.800000000001216,-0.20279606636010267,-0.6043633592321928
20.00000000000146,-0.19716620143181984,-0.5499088073054522
