Time (s),X (m),Y (m)
0.001,0.00048696676677933824,0.00099603208171127
0.20000000000000015,0.0033609907652589967,-0.0005082951476301314
0.4000000000000003,0.01437519483557841,0.003540146173290175
0.6000000000000004,0.04130297623652213,0.01238392359573371
0.8000000000000006,0.07720913433787252,0.0264511954258377
1.0000000000000007,0.12416025264401476,0.03444488329646785
1.2009999999999785,0.17104970718500973,0.03635735928410063
1.4009999999999565,0.21053359512271544,0.030272500343536256
1.6009999999999345,0.25183134035508614,0.015233189696715067
1.8009999999999124,0.2981955895518099,-0.006862348522212398
2.0009999999998906,0.34595744997582906,-0.03961393853419676
2.2009999999998686,0.37641539416163716,-0.08470688286351621
2.4009999999998466,0.39399028558951604,-0.13935765047922052
2.6009999999998246,0.39995221931322944,-0.20621572601432725
2.8009999999998025,0.3973594369206896,-0.2763396733940593
3.0009999999997805,0.3844498216105575,-0.33672523830799395
3.2009999999997585,0.35361510932697354,-0.3747463880441066
3.4009999999997365,0.31123221089347486,-0.41958433214503316
3.6009999999997144,0.2626352747027176,-0.4567894659702535
3.8009999999996924,0.21185412395946948,-0.48974692163478795
4.000999999999671,0.16811563156051043,-0.5030369666061348
4.200999999999738,0.11572997721864227,-0.4999664911267693
4.400999999999804,0.06184719889399033,-0.5113368906208883
4.600999999999871,0.0010147335611694571,-0.5230112152927325
4.800999999999938,-0.05599317473962026,-0.5272805795792597
5.000000000000004,-0.11905906546224229,-0.5205628980627469
5.200000000000071,-0.16855748911868193,-0.49378866669108157
5.400000000000138,-0.19903560681159937,-0.44942511390795387
5.600000000000205,-0.23057057779853887,-0.3901084444011218
5.800000000000272,-0.250986640780122,-0.3281723264520927
6.000000000000338,-0.2586492011007858,-0.2773571699127956
6.200000000000405,-0.24641445161029385,-0.24291456635571793
6.400000000000472,-0.2125621560798717,-0.22824468449338264
6.600000000000539,-0.1594152119323682,-0.2135433432162637
6.800000000000606,-0.0921278403277668,-0.19992718915305258
7.000000000000672,-0.014782546092371663,-0.18662978142227837
7.200000000000739,0.07451103830741565,-0.1836389094579683
7.400000000000806,0.16296880767642807,-0.19031091926527383
7.600000000000873,0.23616081082686288,-0.20599936225752044
7.8000000000009395,0.3020086417368454,-0.2365148340623045
8.000000000001005,0.36238824663890795,-0.2777114211439655
8.200000000000895,0.3982742004355932,-0.3246622798897208
8.400000000000784,0.4432397411891287,-0.3793547254164483
8.600000000000673,0.49414726876880744,-0.4341064526765929
8.800000000000562,0.5472395531540094,-0.4955993566108436
9.000000000000451,0.5972512037549488,-0.5619116249772624
9.20000000000034,0.6569704434209815,-0.6326932532290444
9.40000000000023,0.7182949731639607,-0.7168945850333662
9.600000000000119,0.7679932855649331,-0.804087420452056
9.800000000000008,0.8172387439020273,-0.896650904065133
10.000999999999896,0.8808524145046994,-0.9982711203889028
10.200999999999786,0.9578901551795234,-1.0892718568090787
10.400999999999675,1.0121775366409391,-1.17609964416344
10.600999999999564,1.0565621204582065,-1.263339886257687
10.800999999999453,1.0922149738336187,-1.3615005038720698
11.000999999999342,1.1099188251530887,-1.450027932897724
11.200999999999231,1.1129223874556893,-1.5265116213334187
11.40099999999912,1.097765229122585,-1.5959431338563828
11.60099999999901,1.0557970371416772,-1.6661748903696043
11.800999999998899,0.9939755397926019,-1.7321342969466573
12.000999999998788,0.9228745644734065,-1.7780103536188394
12.200999999998677,0.850435308777676,-1.8048706021057386
12.400999999998566,0.783320350106789,-1.8179757508082155
12.600999999998455,0.7216299301940525,-1.7994129760342434
12.800999999998345,0.6615885896500024,-1.7505218266043843
13.000999999998234,0.6121995919669121,-1.6942393231656288
13.200999999998123,0.5865500966469509,-1.6608324544417545
13.400999999998012,0.5917671447657156,-1.6145886489466534
13.600999999997901,0.6093421094862111,-1.5680455201467183
13.80099999999779,0.6392554017040072,-1.5268916536257746
14.00099999999768,0.6991200583662668,-1.4953121596885053
14.200999999997569,0.7802728824060976,-1.470462021331974
14.400999999997458,0.865112215366387,-1.4583691473616391
14.600999999997347,0.9376373421986114,-1.4660029876719498
14.800999999997236,0.9895753849830359,-1.5034511605855228
15.000999999997125,1.0267682138561351,-1.5617752090704455
15.200999999997014,1.05107377404567,-1.6252690873417976
15.400999999996904,1.080455244465378,-1.7005646383870594
15.600999999996793,1.108682195644072,-1.7891061814376568
15.800999999996682,1.1323677195496589,-1.8656545790567918
16.000999999996573,1.1336919295357764,-1.9282363929353143
16.200999999996817,1.1120990205977683,-1.9748220143121995
16.40099999999706,1.0756169375099383,-2.006880863921233
16.600999999997306,1.0216581795673756,-2.031600258943957
16.80099999999755,0.9577938229186246,-2.057065104430548
17.000999999997795,0.8896666893222782,-2.0729301124838058
17.20099999999804,0.7989467179322456,-2.089124761248848
17.400999999998284,0.7097527446855083,-2.103353353180573
17.60099999999853,0.6355778230497914,-2.1106606479434635
17.800999999998773,0.5741951830157095,-2.1082324136469905
18.000999999999017,0.5477598617924224,-2.100201425071016
18.20099999999926,0.5412919196051821,-2.06829931920814
18.400999999999506,0.5372032174362997,-2.0137770560932355
18.60099999999975,0.5354822390822067,-1.9391030073364872
18.799999999999994,0.534110755374503,-1.8574638662113614
19.000000000000238,0.5345132417860278,-1.7604210037116426
19.200000000000482,0.5433339060947268,-1.667779250340295
19.400000000000727,0.5694231427438158,-1.583363950136754
19.60000000000097,0.6263118839157683,-1.5192488858926818
19.800000000001216,0.6968720627859244,-1.4684882341458423
20.00000000000146,0.7731435744482714,-1.4295644841809054
