Time (s),X (m),Y (m)
0.001,0.00048696676677933824,0.00099603208171127
0.20000000000000015,0.0020420184656062446,-0.005238740099265598
0.4000000000000003,0.013407928553407326,-0.00690129000878546
0.6000000000000004,0.03835505108221606,-0.005815196916283893
0.8000000000000006,0.06969204185718439,-0.006612673733476646
1.0000000000000007,0.08263447649611422,-0.024288205067931917
1.2009999999999785,0.09932023466605241,-0.05249546816732486
1.4009999999999565,0.11292066363561278,-0.08979865801905208
1.6009999999999345,0.12162085465468968,-0.13611903076841214
1.8009999999999124,0.1306880001233215,-0.19155151695657877
2.0009999999998906,0.15296558391848386,-0.24525216972451847
2.2009999999998686,0.15425058170278028,-0.2887566635948948
2.4009999999998466,0.14271335128932705,-0.3353161983394467
2.6009999999998246,0.14598734301696273,-0.38881574333451846
2.8009999999998025,0.14338093170987282,-0.44648184596203544
3.0009999999997805,0.13561384355960687,-0.5022928943020325
3.2009999999997585,0.1346577285892728,-0.5552681312084994
3.4009999999997365,0.13417727601984977,-0.6106087750346525
3.6009999999997144,0.1280977585386264,-0.6714300336295307
3.8009999999996924,0.11182561530132798,-0.7269557681119861
4.000999999999671,0.0898714134717263,-0.78001500808403
4.200999999999738,0.06553619265991814,-0.843018611978351
4.400999999999804,0.03402105376367168,-0.892937361736299
4.600999999999871,0.007896927970470117,-0.9531574406584455
4.800999999999938,-0.016731930978877655,-1.0176656550889136
5.000000000000004,-0.04091200081518405,-1.0662781848994898
5.200000000000071,-0.06564177962378161,-1.1035699339716274
5.400000000000138,-0.11087551345265495,-1.1287459218895997
5.600000000000205,-0.16524326180803214,-1.1500576355182932
5.800000000000272,-0.21928625421150547,-1.1690823326628768
6.000000000000338,-0.2767516906624863,-1.181970683197721
6.200000000000405,-0.34372801969824673,-1.1958368570814808
6.400000000000472,-0.4175919451531963,-1.2272454074818069
6.600000000000539,-0.48778831432340014,-1.257444726116381
6.800000000000606,-0.5609738243805706,-1.2955607503470452
7.000000000000672,-0.6402806660922231,-1.3300862950880579
7.200000000000739,-0.7167812458424022,-1.3652178103019383
7.400000000000806,-0.8040012616510794,-1.4157010266146657
7.600000000000873,-0.8899884019043682,-1.4531242084398392
7.8000000000009395,-0.9685998056351345,-1.5022292139406095
8.000000000001005,-1.0433569005269963,-1.5565163827744493
8.200000000000895,-1.127827325160293,-1.6070794675384747
8.400000000000784,-1.207816125141091,-1.6338352513102252
8.600000000000673,-1.2890539830912284,-1.6489803497945406
8.800000000000562,-1.3600997707888616,-1.6553756780541558
9.000000000000451,-1.4352944153306284,-1.65627649682031
9.20000000000034,-1.518486127304554,-1.6554479828737503
9.40000000000023,-1.5900684569154617,-1.6498682714591597
9.600000000000119,-1.647223203583068,-1.6356297341116794
9.800000000000008,-1.6898390771310945,-1.6132766468801436
10.000999999999896,-1.7286683777251255,-1.5805542252965181
10.200999999999786,-1.7574321662331789,-1.5313494464731134
10.400999999999675,-1.7865404158482538,-1.4627672959393876
10.600999999999564,-1.806878473368411,-1.3893308405085891
10.800999999999453,-1.815812936451412,-1.3116833402085568
11.000999999999342,-1.8212862597004458,-1.222918698962291
11.200999999999231,-1.8274034509751111,-1.145163605079463
11.40099999999912,-1.8378411274584017,-1.0664704930237172
11.60099999999901,-1.833002687975732,-1.0025699691704588
11.800999999998899,-1.8214872027103315,-0.9398484846617707
12.000999999998788,-1.8025128942351627,-0.8624662375126537
12.200999999998677,-1.7696649198911447,-0.7995507262961993
12.400999999998566,-1.7192154121807597,-0.777420886807781
12.600999999998455,-1.656248577969019,-0.7568701074529857
12.800999999998345,-1.5861897838548862,-0.728031022235014
13.000999999998234,-1.5156125808550693,-0.7081705008950742
13.200999999998123,-1.4464237123751083,-0.7023631334634295
13.400999999998012,-1.3861390874417068,-0.7081015018181541
13.600999999997901,-1.3471161873248292,-0.7292710954838044
13.80099999999779,-1.2946856951574117,-0.7572103193121625
14.00099999999768,-1.2222078126861717,-0.7880942527545449
14.200999999997569,-1.1403992846976825,-0.8209568968674635
14.400999999997458,-1.0624111579409259,-0.8543095899306081
14.600999999997347,-0.9903470230419803,-0.880120319223311
14.800999999997236,-0.9146905491407293,-0.8997572318194746
15.000999999997125,-0.8412810885325952,-0.9147182406852494
15.200999999997014,-0.7671605223164919,-0.9264383079601738
15.400999999996904,-0.6952116543188492,-0.943511987404816
15.600999999996793,-0.618123618786563,-0.9626898402349053
15.800999999996682,-0.5424839197253905,-0.9809673544362034
16.000999999996573,-0.45384183734220723,-0.9936640607494559
16.200999999996817,-0.36199716079839594,-1.0032746875522605
16.40099999999706,-0.26908735565649344,-1.009095088365384
16.600999999997306,-0.18118961237013895,-1.02433550197086
16.80099999999755,-0.08685795047325148,-1.0371748714138342
17.000999999997795,0.01418106867229052,-1.0376348537128377
17.20099999999804,0.11039484518635645,-1.0303438020905704
17.400999999998284,0.20984184738072134,-1.0097103391634494
17.60099999999853,0.29906643332578586,-0.9968577881625539
17.800999999998773,0.3807555030218672,-1.0001070093633053
18.000999999999017,0.4633308507264036,-1.0151515242194327
18.20099999999926,0.5436864030332826,-1.0330103261603267
18.400999999999506,0.6106135497853606,-1.0512103494674856
18.60099999999975,0.6503278231639902,-1.086261713759147
18.799999999999994,0.6636809223732049,-1.1392711672653344
19.000000000000238,0.67682006501414,-1.207284336776129
19.200000000000482,0.6991518768987905,-1.2879266681801076
19.400000000000727,0.7285948608751271,-1.3779666225105043
19.60000000000097,0.7594348878017995,-1.4747977036109605
19.800000000001216,0.7799052353972044,-1.5687064852075105
20.00000000000146,0.8025563201179573,-1.6628831792591854
