Time (s),X (m),Y (m)
0.001,0.0007356649194092869,-0.0008930179339548115
0.20000000000000015,0.0018548615988027645,0.0024068636910806666
0.4000000000000003,0.009776946283493567,-0.002958195313728786
0.6000000000000004,0.021002890241831242,-0.014878907747692448
0.8000000000000006,0.039489816382724634,-0.004969090763187323
1.0000000000000007,0.058746335460892245,-0.004631224663462233
1.2009999999999785,0.0748172281685418,0.0035968010565459664
1.4009999999999565,0.09540564449003004,0.0008739451563163055
1.6009999999999345,0.11740175018065059,-0.01862620615883846
1.8009999999999124,0.14355565991472158,-0.03749059287818929
2.0009999999998906,0.16558997591357924,-0.06324982034441401
2.2009999999998686,0.1858154108268721,-0.09771708106378393
2.4009999999998466,0.20658477423573962,-0.13383178033328516
2.6009999999998246,0.22077026021668153,-0.17033371762642685
2.8009999999998025,0.23246854026749997,-0.2022533001146406
3.0009999999997805,0.23380626890724052,-0.23095268523403906
3.2009999999997585,0.2356512547238639,-0.2638961450462938
3.4009999999997365,0.24828703163136762,-0.29307895987301874
3.6009999999997144,0.27049480040468243,-0.3212388347131008
3.8009999999996924,0.276364648567219,-0.35559773706337977
4.000999999999671,0.26469616293290005,-0.39423520856848787
4.200999999999738,0.24907005027448276,-0.43592398792596815
4.400999999999804,0.22605234394354232,-0.4853725228770104
4.600999999999871,0.20195307938202514,-0.5360727411234849
4.800999999999938,0.19675100033104775,-0.5839528224482196
5.000000000000004,0.21312188534991214,-0.6207414003731833
5.200000000000071,0.24169415437992497,-0.653863782375796
5.400000000000138,0.2652965567510666,-0.6869919953399013
5.600000000000205,0.27932502860699054,-0.7195828030474314
5.800000000000272,0.2816831522352296,-0.7547083451575722
6.000000000000338,0.26476747928997174,-0.7939286262985158
6.200000000000405,0.24331742637092008,-0.8331575215278929
6.400000000000472,0.20019965549073107,-0.857491485525764
6.600000000000539,0.1519868179572504,-0.8773752882803826
6.800000000000606,0.10246017100661219,-0.8961078389420953
7.000000000000672,0.058026738777857134,-0.9159325098389083
7.200000000000739,0.019565049240497838,-0.9376520230470705
7.400000000000806,-0.017611827384354316,-0.9632171032720354
7.600000000000873,-0.05771177993581289,-0.9941519948817233
7.8000000000009395,-0.09848621907732441,-1.0260969840342875
8.000000000001005,-0.1286719673895122,-1.0560983050982053
8.200000000000895,-0.1558257772012276,-1.0793573671693593
8.400000000000784,-0.18285385224112116,-1.1093537986494273
8.600000000000673,-0.21957463363464827,-1.1223006265832294
8.800000000000562,-0.2602097761430509,-1.1488047905337049
9.000000000000451,-0.3046999180213646,-1.1652795787736647
9.20000000000034,-0.3544843566150294,-1.1602150119930466
9.40000000000023,-0.39819473877041045,-1.139649528475104
9.600000000000119,-0.4354892923305351,-1.113579910958625
9.800000000000008,-0.4624107770924464,-1.0838344078660782
10.000999999999896,-0.48955019280167134,-1.0545271784477972
10.200999999999786,-0.5238525938849834,-1.0174738115604434
10.400999999999675,-0.5612776547320795,-0.9899892452626796
10.600999999999564,-0.5934107731028218,-0.951452658748541
10.800999999999453,-0.6158661797255329,-0.906235434159601
11.000999999999342,-0.6413682204499899,-0.8673971575567299
11.200999999999231,-0.668067978386109,-0.8298882195344309
11.40099999999912,-0.6970397700817353,-0.7836961631234688
11.60099999999901,-0.7184935028905506,-0.7246685669452269
11.800999999998899,-0.7415464143597854,-0.6784153716889492
12.000999999998788,-0.7596815736546425,-0.622301629889441
12.200999999998677,-0.769218035386759,-0.5665382420973908
12.400999999998566,-0.7775160246969133,-0.5084980697531453
12.600999999998455,-0.7919328854879937,-0.45510551487797146
12.800999999998345,-0.8063970141826451,-0.4001686524961727
13.000999999998234,-0.8222873646339245,-0.34661015171251863
13.200999999998123,-0.8116366060979326,-0.3010091466867084
13.400999999998012,-0.7896763719674808,-0.2602447514609875
13.600999999997901,-0.7605760457841798,-0.22123753241804214
13.80099999999779,-0.7312767270536903,-0.1808672895768794
14.00099999999768,-0.6915631017455133,-0.14424670676032605
14.200999999997569,-0.6564597498371695,-0.1086696715715559
14.400999999997458,-0.6136510804263136,-0.0814262685200164
14.600999999997347,-0.5545910163850417,-0.061459332115854186
14.800999999997236,-0.5019604701614009,-0.04195828077522114
15.000999999997125,-0.45165108409636906,-0.022422839014873453
15.200999999997014,-0.4129300653775105,0.00015707361210681516
15.400999999996904,-0.36243771091336097,0.021439684165636873
15.600999999996793,-0.31047464368253286,0.04153878225812867
15.800999999996682,-0.26398759802238825,0.06099881561536385
16.000999999996573,-0.22840521341441053,0.08574971135458195
16.200999999996817,-0.1909520257329994,0.09130471111765821
16.40099999999706,-0.15132200280246208,0.09142386331882918
16.600999999997306,-0.10448218176910762,0.07993047928325572
16.80099999999755,-0.054167765026587586,0.06954813316563528
17.000999999997795,-0.0066306970159619606,0.05318649193634856
17.20099999999804,0.02189630214376584,0.019517721999653147
17.400999999998284,0.04466811809010063,-0.02370257594497762
17.60099999999853,0.060954380332063705,-0.0662527991337753
17.800999999998773,0.06917940176747323,-0.10670269009098973
18.000999999999017,0.06940965581045588,-0.1526281669637905
18.20099999999926,0.05397514736279408,-0.19541843542270393
18.400999999999506,0.025621669818335125,-0.23696565783778967
18.60099999999975,0.00927944122101473,-0.27357574275423296
18.799999999999994,-0.01503293021588034,-0.313088589501471
19.000000000000238,-0.02940699713243151,-0.35731460353212513
19.200000000000482,-0.046925493952954964,-0.3990754995869908
19.400000000000727,-0.06828151879170764,-0.43132984819014175
19.60000000000097,-0.10128711557153666,-0.4587855910858741
19.800000000001216,-0.13897835370730163,-0.4735222175041873
20.00000000000146,-0.17956231915664678,-0.4855257320916071
