Time (s),X (m),Y (m)
0.001,0.0010100015126501532,-0.0006628221997479689
0.20000000000000015,-0.000996316910083974,0.0020620188870189636
0.4000000000000003,0.0007101566489956239,-0.0013996078928481123
0.6000000000000004,0.014802060915307813,-0.009109430138941017
0.8000000000000006,0.04597587460799503,-0.00858185748025839
1.0000000000000007,0.07374710708819876,-0.001784896700382902
1.2009999999999785,0.09820858119113506,0.001473256644319905
1.4009999999999565,0.12521386935895912,0.00028976320352818786
1.6009999999999345,0.15302081676320872,0.006886737616531488
1.8009999999999124,0.1807854627267114,0.01581898505768654
2.0009999999998906,0.21218463287893374,0.02014014750509904
2.2009999999998686,0.24225788204320353,0.011402061993885921
2.4009999999998466,0.2623092394369341,-0.01404178592511559
2.6009999999998246,0.28733591495940214,-0.03423901547849236
2.8009999999998025,0.30254382816321934,-0.058334387570510966
3.0009999999997805,0.29823551129209946,-0.10464477295795375
3.2009999999997585,0.2904422389167027,-0.15521744496082132
3.4009999999997365,0.285596616767177,-0.20496122659514437
3.6009999999997144,0.2898147458534655,-0.24330377285746443
3.8009999999996924,0.29200005453923406,-0.2834860543088283
4.000999999999671,0.2773825958472505,-0.30805843555410034
4.200999999999738,0.2520588890336044,-0.31735752787567506
4.400999999999804,0.21910288929242816,-0.3156916772043575
4.600999999999871,0.1793452411729238,-0.30039261452640575
4.800999999999938,0.13234539304654594,-0.28996139759362716
5.000000000000004,0.07512929283207971,-0.27883618972848195
5.200000000000071,0.019442736985829677,-0.26672304000819436
5.400000000000138,-0.028227045513647638,-0.24869955150911374
5.600000000000205,-0.06788259347295857,-0.2226051380520582
5.800000000000272,-0.09730060576431154,-0.1961012288922114
6.000000000000338,-0.11225751852532366,-0.15652196963713372
6.200000000000405,-0.11622428072527038,-0.11356412820958672
6.400000000000472,-0.12096642965449961,-0.06874833655314887
6.600000000000539,-0.1215553345279117,-0.015388158795920346
6.800000000000606,-0.11121634176036395,0.03437766239806426
7.000000000000672,-0.08914905868263351,0.07491397356129677
7.200000000000739,-0.055819003615115194,0.10371532405255948
7.400000000000806,-0.012931035191889397,0.11732770981938442
7.600000000000873,0.04070272530116179,0.12128663747272399
7.8000000000009395,0.10514122913262486,0.11241157710658513
8.000000000001005,0.1732257572188193,0.10389806185569883
8.200000000000895,0.2392223240949702,0.08797845990584292
8.400000000000784,0.2942103359351271,0.061139972861338744
8.600000000000673,0.34819243358080715,0.027151201814305102
8.800000000000562,0.40852331725989394,-0.012912519343040251
9.000000000000451,0.46666423942569507,-0.04593680068667219
9.20000000000034,0.509639154954717,-0.095612565496462
9.40000000000023,0.5362867554980114,-0.1403701053686465
9.600000000000119,0.5513744190341717,-0.19277135261993628
9.800000000000008,0.5602250787255073,-0.24659474579010962
10.000999999999896,0.5562633918952873,-0.3024570260284267
10.200999999999786,0.5450629583540361,-0.3522762964562233
10.400999999999675,0.5279938096073441,-0.3918895656992452
10.600999999999564,0.49066757185807586,-0.4140755521553348
10.800999999999453,0.45051606956085527,-0.4246000677572246
11.000999999999342,0.40638027810621763,-0.4137369211867432
11.200999999999231,0.36081283658625096,-0.39115332832832406
11.40099999999912,0.3107190436403763,-0.3700245933423501
11.60099999999901,0.26846592337812025,-0.3383952410586593
11.800999999998899,0.24680467390777536,-0.28830342922351493
12.000999999998788,0.23466061582289807,-0.23560509559809842
12.200999999998677,0.23991538322084888,-0.18209027823208093
12.400999999998566,0.26070012826532435,-0.13241999820026257
12.600999999998455,0.3070257706209434,-0.09168625109320204
12.800999999998345,0.3550937928333927,-0.06511744998666313
13.000999999998234,0.4019879100011275,-0.04964619420959883
13.200999999998123,0.461203746557127,-0.045524423635487025
13.400999999998012,0.5267074253492738,-0.047414315922202126
13.600999999997901,0.5894691715876728,-0.06324219227032102
13.80099999999779,0.6430830856450678,-0.10167332444196536
14.00099999999768,0.6797371035907717,-0.14983991625029044
14.200999999997569,0.6943294081428155,-0.21316859653901826
14.400999999997458,0.7003246112392025,-0.28154476282640106
14.600999999997347,0.7016996779353002,-0.3471380497678457
14.800999999997236,0.687832807319068,-0.41097328276994116
15.000999999997125,0.6663234356144688,-0.46954819680483817
15.200999999997014,0.6195903360934066,-0.5161961850277832
15.400999999996904,0.5624944159621673,-0.5436156885694158
15.600999999996793,0.5052977332985534,-0.5544549669508586
15.800999999996682,0.44730166888475775,-0.5509891424675496
16.000999999996573,0.3924085924882916,-0.5295722838822221
16.200999999996817,0.3360360466290098,-0.5074044832375898
16.40099999999706,0.2849841598733763,-0.486310587865142
16.600999999997306,0.24966656130737758,-0.4370784582388036
16.80099999999755,0.23113412545770673,-0.3706900290738495
17.000999999997795,0.22862508388514224,-0.2957338233277339
17.20099999999804,0.24833958785840626,-0.2342428150312003
17.400999999998284,0.28651084815374017,-0.19264102204652017
17.60099999999853,0.32473565145074546,-0.1670975730583212
17.800999999998773,0.37605245681882504,-0.15763393570900688
18.000999999999017,0.43679850314069474,-0.15449599912602954
18.20099999999926,0.49366058203067203,-0.17022538772341006
18.400999999999506,0.5388126401458766,-0.19972482302518724
18.60099999999975,0.5633374186578386,-0.25083971269567357
18.799999999999994,0.5695820935144729,-0.313578529465823
19.000000000000238,0.5623720685208954,-0.37821036354493764
19.200000000000482,0.5506372940659263,-0.4460978973911669
19.400000000000727,0.5319390464335438,-0.5166632287525955
19.60000000000097,0.5032819506591175,-0.5855815465520345
19.800000000001216,0.46435051538254857,-0.6482250202163448
20.00000000000146,0.42411342513930805,-0.6982753432127393
