Time (s),X (m),Y (m)
0.001,-0.0007489004572251305,-0.00035268032603768894
0.20000000000000015,0.007209601246034913,0.0017538610891429062
0.4000000000000003,0.009711128122319624,0.005393529421707633
0.6000000000000004,0.013276877717206656,0.010178477297971599
0.8000000000000006,0.026469436771739067,0.015941338787406483
1.0000000000000007,0.02761329621441436,0.017132630175455087
1.2009999999999785,0.03200618005222832,0.020364483332978797
1.4009999999999565,0.050435427284625474,0.02558726448230177
1.6009999999999345,0.06458255143378666,0.02717552091789012
1.8009999999999124,0.07422745749704202,0.03139897573552036
2.0009999999998906,0.08409695253634508,0.03851988167555853
2.2009999999998686,0.09652056584561043,0.03702332874450433
2.4009999999998466,0.11805228916044969,0.03764885157132378
2.6009999999998246,0.13737874497127114,0.035438625461685976
2.8009999999998025,0.15747570697288324,0.02909118254018149
3.0009999999997805,0.16796047899333647,0.021625656014857778
3.2009999999997585,0.19254315823446172,0.014105409715412456
3.4009999999997365,0.20766183947650105,0.0016569962549264107
3.6009999999997144,0.22485244383975958,-0.007697806475759548
3.8009999999996924,0.24983169076828474,-0.017959020414350234
4.000999999999671,0.2866110741587056,-0.029768151850281584
4.200999999999738,0.3076526186967675,-0.04100385354970894
4.400999999999804,0.3222920776756773,-0.056596608209910075
4.600999999999871,0.3222099387926269,-0.07545790954438733
4.800999999999938,0.343268207536138,-0.08989387534313108
5.000000000000004,0.36234176365365606,-0.10021148188346524
5.200000000000071,0.387734405361823,-0.1160200760014903
5.400000000000138,0.40456254534594255,-0.1360108914806152
5.600000000000205,0.41663368519641253,-0.15759669464713366
5.800000000000272,0.4325937333840416,-0.17430591138717635
6.000000000000338,0.4542913576491714,-0.18660892022905853
6.200000000000405,0.49063328003766765,-0.2062951688365197
6.400000000000472,0.5187795167232784,-0.22939378230044583
6.600000000000539,0.5539078825209408,-0.2489337563275484
6.800000000000606,0.5835551472352455,-0.27269809409437745
7.000000000000672,0.6241418864075402,-0.29955910433047533
7.200000000000739,0.6546805702018864,-0.33098046856394253
7.400000000000806,0.6787662936770963,-0.3547618586001171
7.600000000000873,0.7006425669886202,-0.3782732681181266
7.8000000000009395,0.720386263420031,-0.39906384796828503
8.000000000001005,0.7554809084293584,-0.4187815195110238
8.200000000000895,0.7836175619434267,-0.43657407419790184
8.400000000000784,0.809888193817258,-0.4566871221951184
8.600000000000673,0.837629898922709,-0.4825240712434708
8.800000000000562,0.8696091652309228,-0.5135629434873226
9.000000000000451,0.8997189514923837,-0.5449310864531407
9.20000000000034,0.9255583173738224,-0.5734422509386976
9.40000000000023,0.9473174216049606,-0.5964529734428292
9.600000000000119,0.9605470811026834,-0.614308058955301
9.800000000000008,0.9710594162754863,-0.6355591177378273
10.000999999999896,0.975970342314198,-0.6676448627302465
10.200999999999786,0.9770218664644237,-0.7009289236735928
10.400999999999675,0.9727101182622262,-0.7220542226588701
10.600999999999564,0.9684486392074002,-0.7450805249608179
10.800999999999453,0.9609028983456542,-0.774188315213269
11.000999999999342,0.9513338943122476,-0.7925919455808986
11.200999999999231,0.9428511635877138,-0.8080034521008329
11.40099999999912,0.9295748207213081,-0.8310495468973732
11.60099999999901,0.9201672954189023,-0.8533439271247804
11.800999999998899,0.9065236080086804,-0.8644478056870539
12.000999999998788,0.8912160968194239,-0.8928501739978535
12.200999999998677,0.8767054206241162,-0.9252588477045006
12.400999999998566,0.8632452092739725,-0.9465080211787948
12.600999999998455,0.8484019702297594,-0.9697338140144149
12.800999999998345,0.8313770093152594,-0.9921079671770625
13.000999999998234,0.8166757940506881,-1.0106111062720962
13.200999999998123,0.804601195380103,-1.036338157808705
13.400999999998012,0.796526179671917,-1.0734462431509713
13.600999999997901,0.7859870949078785,-1.110565928556194
13.80099999999779,0.7649491377646925,-1.1513359804175778
14.00099999999768,0.7377125882286791,-1.1886378186268562
14.200999999997569,0.7074175797205886,-1.2284596180496625
14.400999999997458,0.6739219387412564,-1.2577648897179825
14.600999999997347,0.647855577212973,-1.280744600491434
14.800999999997236,0.6208242821571053,-1.3050889043498368
15.000999999997125,0.5957328797949994,-1.3323102085732625
15.200999999997014,0.5659619932607257,-1.3626078328345124
15.400999999996904,0.5326915036992084,-1.3944553970956202
15.600999999996793,0.5003465484555344,-1.4285218197499001
15.800999999996682,0.4647760630938698,-1.4564271911390383
16.000999999996573,0.4425267051645586,-1.4878638041759147
16.200999999996817,0.41960444766156896,-1.514618886522065
16.40099999999706,0.4007326693048728,-1.548092404469769
16.600999999997306,0.37622734593239693,-1.5840955105020664
16.80099999999755,0.34463692256256545,-1.6138358316800896
17.000999999997795,0.32062704514386786,-1.6387805150555959
17.20099999999804,0.30340508184119463,-1.656484124707695
17.400999999998284,0.28467402525760305,-1.6704981105094758
17.60099999999853,0.2692673796909391,-1.6955637247990263
17.800999999998773,0.24534673861785802,-1.7252362183264578
18.000999999999017,0.22016849944310116,-1.7528306503262963
18.20099999999926,0.1937247929154458,-1.781217630192823
18.400999999999506,0.16542696548118932,-1.8160702634473298
18.60099999999975,0.1362924714694628,-1.8479401103253135
18.799999999999994,0.10971737639735904,-1.867186085932167
19.000000000000238,0.08304102003475886,-1.8859620074745371
19.200000000000482,0.05693731383599243,-1.906200763829645
19.400000000000727,0.03409304055578671,-1.9341545897702657
19.60000000000097,0.011627604115868991,-1.9708856168840934
19.800000000001216,-0.009756393132934601,-2.0101031756969907
20.00000000000146,-0.03185145486814752,-2.0524702940891975
