Time (s),X (m),Y (m)
0.001,-0.00021570977506068912,0.0009345558501746678
0.20000000000000015,0.00013015331595973094,0.004868975958794802
0.4000000000000003,0.002176178488431221,0.0024292618673266994
0.6000000000000004,0.0013932258540057022,0.008542565130070734
0.8000000000000006,0.0030098188822167923,0.010563037762914543
1.0000000000000007,0.007348596949712286,0.007073554405500381
1.2009999999999785,0.012223274419103933,0.00763388531212529
1.4009999999999565,0.018871534265478447,0.006093159087031118
1.6009999999999345,0.022618732874670467,0.007262775408639002
1.8009999999999124,0.029695998300023545,0.0028877500702002195
2.0009999999998906,0.03696360160078606,0.0008280440554244546
2.2009999999998686,0.046672274180510315,-0.002456973938079964
2.4009999999998466,0.05036452567287217,0.0004659546098950103
2.6009999999998246,0.057654498670425575,0.00023340792987887646
2.8009999999998025,0.06278350262431692,0.001239636500215733
3.0009999999997805,0.07085329744113787,0.0011435777832317364
3.2009999999997585,0.07889330102230276,0.0006269397375313669
3.4009999999997365,0.0858610328900204,0.001368482374789398
3.6009999999997144,0.09666938980891274,0.0024844525126409235
3.8009999999996924,0.1032599802812127,0.004192498166146622
4.000999999999671,0.11304666229648754,0.0023005987116904237
4.200999999999738,0.12165504541285745,0.003821481733873426
4.400999999999804,0.13024659090131901,0.004846707582647137
4.600999999999871,0.1426211817491589,0.0056111503141665275
4.800999999999938,0.1489583997195051,0.0076178495063371505
5.000000000000004,0.16168495515660689,0.007810970884899923
5.200000000000071,0.1695517061822401,0.008302616639143294
5.400000000000138,0.17698848386422505,0.011492642044182584
5.600000000000205,0.18727852315445814,0.00981793546557945
5.800000000000272,0.19532013047077681,0.011345219675827167
6.000000000000338,0.20326412435224556,0.015845676912800238
6.200000000000405,0.21425888390170517,0.017898390336711204
6.400000000000472,0.2186466413428209,0.021840514156166075
6.600000000000539,0.2161378427712786,0.02600060214921944
6.800000000000606,0.22273737170843877,0.030660017118491346
7.000000000000672,0.22821292364640505,0.03535141300676135
7.200000000000739,0.24005640438581963,0.03725797126273913
7.400000000000806,0.247159641603311,0.040641719178995644
7.600000000000873,0.25298315216766987,0.044679894055750034
7.8000000000009395,0.25911088825584283,0.04755701566636567
8.000000000001005,0.26680844733435827,0.05167413065915428
8.200000000000895,0.27138066457158694,0.05638611157255919
8.400000000000784,0.27602082226532776,0.062381544515227386
8.600000000000673,0.2796350062334724,0.06815944306051946
8.800000000000562,0.2865295028331715,0.07268094907458837
9.000000000000451,0.29172877847276235,0.07843203463266249
9.20000000000034,0.2962174508237417,0.081926531316044
9.40000000000023,0.29814876924674505,0.08759865771580168
9.600000000000119,0.3041812313195838,0.09316386562260617
9.800000000000008,0.3101340640058375,0.09858766645651966
10.000999999999896,0.3153280289300419,0.10398634706170844
10.200999999999786,0.31697809211561623,0.10990029081844409
10.400999999999675,0.3236663877381285,0.11633889895842499
10.600999999999564,0.3317329691638396,0.12209040483045502
10.800999999999453,0.33392858612975584,0.12772152754091923
11.000999999999342,0.3385306958305822,0.1328429804554272
11.200999999999231,0.3475200779767758,0.1378575042083366
11.40099999999912,0.3555292462578354,0.14371971038066716
11.60099999999901,0.3620038606089531,0.14865293614093883
11.800999999998899,0.3707131910880646,0.1543851257146005
12.000999999998788,0.37956772409759465,0.15939820787205217
12.200999999998677,0.38447202920945045,0.16571139295192086
12.400999999998566,0.38910556139133595,0.17157203419381828
12.600999999998455,0.3960626474786638,0.17755720162765354
12.800999999998345,0.40110826929433063,0.18425549538723165
13.000999999998234,0.4048924749042332,0.18904664666477639
13.200999999998123,0.4123023311843099,0.19476317019360515
13.400999999998012,0.4161826888545828,0.20043589753353847
13.600999999997901,0.42364993538874407,0.20660226977697213
13.80099999999779,0.430909012151336,0.2118316442389611
14.00099999999768,0.436139675566558,0.21758403710749982
14.200999999997569,0.4417529300533951,0.22327360656002762
14.400999999997458,0.4480184987738342,0.22996029037209212
14.600999999997347,0.453114831709056,0.23611115564944843
14.800999999997236,0.45847724561758546,0.24250718355346726
15.000999999997125,0.4645349226124353,0.24959573005263014
15.200999999997014,0.46496316646905395,0.2567523269615982
15.400999999996904,0.4725354670140064,0.26323215599015165
15.600999999996793,0.47547261547289316,0.2701384860202673
15.800999999996682,0.4802561365189807,0.27680900391089264
16.000999999996573,0.4820253856141623,0.28294588008100213
16.200999999996817,0.48881927123172414,0.2880070276427217
16.40099999999706,0.49203582475612373,0.2934751851939944
16.600999999997306,0.4995375938618538,0.2987963979481297
16.80099999999755,0.5051792924291982,0.30402283928810536
17.000999999997795,0.5113244134285306,0.3104106419567004
17.20099999999804,0.5200089080500113,0.3161782189199124
17.400999999998284,0.5282003530920604,0.32294545728172847
17.60099999999853,0.5346320463623067,0.329902691655975
17.800999999998773,0.5389043037346509,0.33699377284989435
18.000999999999017,0.5442479853724809,0.34426589609053254
18.20099999999926,0.5527627652511309,0.3501666534653394
18.400999999999506,0.5597661204347768,0.35652462906602705
18.60099999999975,0.565439398377397,0.36095187675829044
18.799999999999994,0.5679657701227347,0.36735736422250626
19.000000000000238,0.5768842237734088,0.37222049581309574
19.200000000000482,0.5869048853997301,0.3761776955055135
19.400000000000727,0.590431259598143,0.382689645021034
19.60000000000097,0.59960018725874,0.3898316849305144
19.800000000001216,0.6066305405208855,0.3950752889949526
20.00000000000146,0.6087920376339327,0.40092936275634894
