Time (s),X (m),Y (m)
0.001,0.0012161128565605834,-0.00026688599193002474
0.20000000000000015,-0.0009608310959927548,0.0012223013851734032
0.4000000000000003,-0.0008079918139236753,0.0022038724513444735
0.6000000000000004,0.0010615721420504014,0.007174964123057074
0.8000000000000006,0.009622375813157306,0.009061015608813125
1.0000000000000007,0.028838016930796788,0.010079223517968305
1.2009999999999785,0.03948583443032408,0.011519737044110627
1.4009999999999565,0.050129510750228715,0.014223569307936583
1.6009999999999345,0.06179717017772034,0.012972973541070302
1.8009999999999124,0.07681972314581569,0.0026467890620139093
2.0009999999998906,0.09315931966570376,-0.005635043708168867
2.2009999999998686,0.10772560316215264,-0.008001442235828691
2.4009999999998466,0.11801697981203971,-0.013475762361536265
2.6009999999998246,0.13617889749431694,-0.016460000594181262
2.8009999999998025,0.15604752313089001,-0.02109476705455341
3.0009999999997805,0.17637759664788402,-0.02769003902100681
3.2009999999997585,0.18643690879925867,-0.027065229736042848
3.4009999999997365,0.19892793502849612,-0.02661449184319642
3.6009999999997144,0.2133421302060227,-0.031628801818781964
3.8009999999996924,0.23139082364878955,-0.03428689339812803
4.000999999999671,0.253873287798041,-0.0433694564121173
4.200999999999738,0.267758908579893,-0.04979655097785498
4.400999999999804,0.28860459290531837,-0.05691801017083933
4.600999999999871,0.30608761241717924,-0.06232221595621491
4.800999999999938,0.3239487657545499,-0.0690019651951139
5.000000000000004,0.3361332071112371,-0.07215226953860669
5.200000000000071,0.34267316954244326,-0.07040260185762465
5.400000000000138,0.35027631807426074,-0.07140674316880372
5.600000000000205,0.37525748932831543,-0.07738174614370721
5.800000000000272,0.38661692415399107,-0.08477334465904351
6.000000000000338,0.40007013674816094,-0.08985645134800249
6.200000000000405,0.4182749782423479,-0.09686375534586454
6.400000000000472,0.44417185090596933,-0.11048746986987029
6.600000000000539,0.47184364263452794,-0.11890793644322094
6.800000000000606,0.5001265375335948,-0.13113948336460565
7.000000000000672,0.5266026558515512,-0.14467160983473196
7.200000000000739,0.5521216167648958,-0.14965185591878705
7.400000000000806,0.5753435186036733,-0.15871804073539597
7.600000000000873,0.6049087608402539,-0.17252866649377818
7.8000000000009395,0.6332572135753376,-0.18281720000122842
8.000000000001005,0.6517997694480406,-0.19132402954277483
8.200000000000895,0.6675090361405482,-0.20102341501286852
8.400000000000784,0.6843363007384957,-0.21259137133004558
8.600000000000673,0.7081297327206639,-0.22940059716158695
8.800000000000562,0.7381538370577182,-0.2490160231264008
9.000000000000451,0.7679708809961459,-0.2680003362250365
9.20000000000034,0.7984049995067707,-0.28538750325457507
9.40000000000023,0.8236720888930458,-0.2997450197255996
9.600000000000119,0.8461552287032938,-0.30387904333374927
9.800000000000008,0.8634386860652425,-0.3188720903265593
10.000999999999896,0.8854971795598634,-0.3423805602462623
10.200999999999786,0.9010594688073451,-0.36031035676847756
10.400999999999675,0.9116004064135944,-0.3865201576615664
10.600999999999564,0.9175102052371842,-0.40431400929828054
10.800999999999453,0.9207888220988115,-0.430227581381958
11.000999999999342,0.9216715774715906,-0.4499475953643301
11.200999999999231,0.9147991474920226,-0.4749340336686958
11.40099999999912,0.9069943587932533,-0.5053407058320538
11.60099999999901,0.8975765997675182,-0.5307887489457284
11.800999999998899,0.8896588933751038,-0.5569455363646951
12.000999999998788,0.875164609175725,-0.5888001647696853
12.200999999998677,0.8590451468229227,-0.6150214640784698
12.400999999998566,0.8515380987819577,-0.6296306264526369
12.600999999998455,0.8340449107321148,-0.6505533090858249
12.800999999998345,0.8205045603443002,-0.6768856365584746
13.000999999998234,0.8003355729983189,-0.704805649665194
13.200999999998123,0.7762075292001795,-0.736460713576213
13.400999999998012,0.7590218713460732,-0.7667807824619539
13.600999999997901,0.7417634554633333,-0.7854489006963112
13.80099999999779,0.7253539219315221,-0.7995654477182702
14.00099999999768,0.7045864281523642,-0.8086053531480472
14.200999999997569,0.6813189293417131,-0.8174480066552603
14.400999999997458,0.6512631823192524,-0.8212055159269166
14.600999999997347,0.6249563926723135,-0.8197602648206409
14.800999999997236,0.6101848862972389,-0.8173113432729979
15.000999999997125,0.57653027138051,-0.8078987659958037
15.200999999997014,0.543852212616859,-0.8022029043162466
15.400999999996904,0.5207719341379871,-0.7986701638868032
15.600999999996793,0.48934861388683976,-0.791090659585132
15.800999999996682,0.45903845584818675,-0.7800943373067624
16.000999999996573,0.43445263205578477,-0.7749518147110986
16.200999999996817,0.40800494978262963,-0.7676637841619385
16.40099999999706,0.37723718123562,-0.7522336390096048
16.600999999997306,0.34885469067169034,-0.7428393876932143
16.80099999999755,0.3205419110811976,-0.7260023720456343
17.000999999997795,0.29334894577478127,-0.7072283441530406
17.20099999999804,0.2631698915967493,-0.6859905442296681
17.400999999998284,0.23752818388678543,-0.669751153693013
17.60099999999853,0.2124831957533327,-0.657399780130878
17.800999999998773,0.1826701156463456,-0.6401923600691423
18.000999999999017,0.15373974313581465,-0.6202538068123622
18.20099999999926,0.1233959897381886,-0.5948699959967653
18.400999999999506,0.09483267712384562,-0.5743293377175743
18.60099999999975,0.06699059948638988,-0.5578390524555166
18.799999999999994,0.043606940686445377,-0.547984009924635
19.000000000000238,0.022553782665673438,-0.5347468688743987
19.200000000000482,0.0020786600785442353,-0.516269410882039
19.400000000000727,-0.022873245936256986,-0.4922972807972257
19.60000000000097,-0.037720950840615,-0.46546999919709187
19.800000000001216,-0.05053974846492659,-0.45129973185461
20.00000000000146,-0.05641616733598892,-0.43150795541658976
