Time (s),X (m),Y (m)
0.001,0.0011890620069237587,0.00035268032603768894
0.20000000000000015,-0.001669668152992842,-0.0009270002753041963
0.4000000000000003,0.0002299623942666058,-0.0001864608765178929
0.6000000000000004,0.0013626246591928667,-0.0006972889189987555
0.8000000000000006,0.004811541181236237,-0.0013173448663561143
1.0000000000000007,0.008057376638068992,-0.000611202491137996
1.2009999999999785,0.014803086044733483,2.8393986800046076e-05
1.4009999999999565,0.02002589684517463,0.0018510793191658026
1.6009999999999345,0.024047855018505527,0.003951796500484809
1.8009999999999124,0.02887831552911567,0.006274107361878009
2.0009999999998906,0.035058923115464276,0.008573731965811566
2.2009999999998686,0.04063269210428929,0.011622401066617221
2.4009999999998466,0.04552132729137438,0.014542465090389985
2.6009999999998246,0.05139238789889868,0.01813258994125499
2.8009999999998025,0.056100322350900504,0.02093185871212039
3.0009999999997805,0.060959497214745986,0.023160504347878835
3.2009999999997585,0.06434565425637216,0.024323676874180973
3.4009999999997365,0.06981768454822544,0.02885845774934784
3.6009999999997144,0.07596224209963924,0.032292802793195574
3.8009999999996924,0.08019313703825583,0.03593681937740892
4.000999999999671,0.08538164464721779,0.040132367979886896
4.200999999999738,0.09082025816035816,0.045157471605398625
4.400999999999804,0.09609065968436906,0.05018001537024933
4.600999999999871,0.10165277397630736,0.056039077645726035
4.800999999999938,0.10626658508357113,0.060127580297282913
5.000000000000004,0.11046623082079472,0.064800319442099
5.200000000000071,0.11319081320442292,0.06835764700720555
5.400000000000138,0.11662858887187863,0.07337355179933783
5.600000000000205,0.11908085539650146,0.07684160420872987
5.800000000000272,0.12161346469014944,0.08113437364346134
6.000000000000338,0.1235418100040976,0.08515373272587427
6.200000000000405,0.12606755584908963,0.08950082647953272
6.400000000000472,0.12887385732480294,0.09344448225823414
6.600000000000539,0.13077513707401064,0.09741079711535414
6.800000000000606,0.13340575150657505,0.10293864731195021
7.000000000000672,0.13553983251693352,0.1081430866484204
7.200000000000739,0.1374200828379987,0.11356847514756287
7.400000000000806,0.13872376877430104,0.11845248338905763
7.600000000000873,0.13966696120128055,0.12309987528032637
7.8000000000009395,0.1403160090721992,0.12894478237071144
8.000000000001005,0.14061053353364916,0.13509439086443187
8.200000000000895,0.14003398913403312,0.1398370968840663
8.400000000000784,0.13918045973960988,0.14443841445796501
8.600000000000673,0.13816785059433592,0.14844204560907967
8.800000000000562,0.1369584363832604,0.15298102188906865
9.000000000000451,0.13551021613132275,0.15713183129029062
9.20000000000034,0.13419569036960996,0.16108564716873883
9.40000000000023,0.1321529398005154,0.16567801713631883
9.600000000000119,0.1304375149315934,0.1701797154186672
9.800000000000008,0.12790285564336237,0.17460164018696037
10.000999999999896,0.12564822398815545,0.17880721860348509
10.200999999999786,0.1226421939777194,0.18419370156808582
10.400999999999675,0.11907783980778275,0.19090394183884923
10.600999999999564,0.11662599076865361,0.19574231199608622
10.800999999999453,0.11286100655888336,0.20172131734130258
11.000999999999342,0.10934170508191257,0.20679142990721786
11.200999999999231,0.10525180305259657,0.21144070751871635
11.40099999999912,0.10204481838875874,0.21492627071467513
11.60099999999901,0.09765867392835127,0.21974354147913755
11.800999999998899,0.09270550933938973,0.22495760006132692
12.000999999998788,0.08849208717268464,0.22914187364623206
12.200999999998677,0.08377524611312569,0.23318092129592832
12.400999999998566,0.07860218315981539,0.23766493973058272
12.600999999998455,0.07513633279260169,0.24010052773611057
12.800999999998345,0.06931689778867157,0.24455711380069123
13.000999999998234,0.06481170867592052,0.24742743861856384
13.200999999998123,0.06063877099974239,0.24997512627944712
13.400999999998012,0.055761682733582736,0.252605637921902
13.600999999997901,0.04962104406614818,0.2560377524981573
13.80099999999779,0.04518550465013495,0.25835127766888727
14.00099999999768,0.04010654727878871,0.260629103542342
14.200999999997569,0.03549972722560372,0.2615550762944557
14.400999999997458,0.031258121661919415,0.26240783243318955
14.600999999997347,0.02668910944592399,0.2631512607937186
14.800999999997236,0.022504598376045185,0.26343096341669275
15.000999999997125,0.018501644327545235,0.26364883688721746
15.200999999997014,0.01489557918573022,0.2633430704964962
15.400999999996904,0.010852778845588454,0.262976354416751
15.600999999996793,0.0058300975445202356,0.26243494904170145
15.800999999996682,0.0012496080065900672,0.26161257444119845
16.000999999996573,-0.0029846519341842647,0.2603215118608765
16.200999999996817,-0.006732336827497859,0.25892981427884826
16.40099999999706,-0.011856972935100617,0.2574480362823001
16.600999999997306,-0.015612756323697729,0.25557515086897126
16.80099999999755,-0.020043795060553073,0.25333813068277083
17.000999999997795,-0.024834341002844585,0.25097924608734967
17.20099999999804,-0.029492899382805346,0.24821550109608645
17.400999999998284,-0.033237967632667675,0.24564601239070843
17.60099999999853,-0.03815801592757311,0.2424760470952545
17.800999999998773,-0.04290578731796175,0.2393250741748642
18.000999999999017,-0.048774290516871446,0.23553052441085856
18.20099999999926,-0.05376074671999249,0.2314362220583611
18.400999999999506,-0.05880170932380296,0.22763145355506365
18.60099999999975,-0.06286396644604836,0.22445466791322552
18.799999999999994,-0.06746436070085493,0.2206152988346219
19.000000000000238,-0.07141183788971278,0.2170467817517778
19.200000000000482,-0.0753740001116789,0.21270583083225258
19.400000000000727,-0.07901565327289707,0.2079085933049449
19.60000000000097,-0.08185517105662776,0.20396324392992835
19.800000000001216,-0.08623082081143006,0.19880882217158
20.00000000000146,-0.08912225340652236,0.19432261915180157
