Time (s),X (m),Y (m)
0.001,-0.0006729371591054978,-0.000515584144559974
0.20000000000000015,0.005321310850382658,0.0017500938609228073
0.4000000000000003,0.0037901740008779348,0.00024015814443274268
0.6000000000000004,0.008334492968237933,0.001025445674111283
0.8000000000000006,0.01720066258812786,0.006239034261129098
1.0000000000000007,0.0267607927198195,0.010188674297892194
1.2009999999999785,0.03533541712868059,0.01091595195134198
1.4009999999999565,0.042029771256746166,0.007309227395939208
1.6009999999999345,0.0561038142437481,0.011535704872609272
1.8009999999999124,0.06721966766220956,0.01709158241302456
2.0009999999998906,0.08263887870984281,0.02135976964438143
2.2009999999998686,0.09771811962790834,0.02084021195833674
2.4009999999998466,0.11151476551894374,0.019081874150827155
2.6009999999998246,0.12218772119224516,0.021536391257705467
2.8009999999998025,0.13238258677402845,0.02142981149511775
3.0009999999997805,0.1346700497662974,0.01865658063769153
3.2009999999997585,0.14188775838418338,0.017613836593803237
3.4009999999997365,0.1605014966015099,0.01900161940675018
3.6009999999997144,0.18467175835093352,0.018160895317806125
3.8009999999996924,0.20451723947183564,0.01675775345651377
4.000999999999671,0.22276046412242567,0.009229180260944787
4.200999999999738,0.24081641912740165,0.00454341467653695
4.400999999999804,0.25464347196270337,0.0014533253926636287
4.600999999999871,0.2682628278028856,0.002737037454265038
4.800999999999938,0.27941594672573555,0.004989474843247802
5.000000000000004,0.288744899200519,0.00842021343618549
5.200000000000071,0.3020840987142019,0.01590995570873394
5.400000000000138,0.31650185900490924,0.015571505874276512
5.600000000000205,0.33521202850920956,0.015431074177292876
5.800000000000272,0.3616268907669471,0.013293940844659981
6.000000000000338,0.3734622997409859,0.007734659109364636
6.200000000000405,0.3813047434257446,0.0018262234804887012
6.400000000000472,0.39530165380792304,-0.002360317871500846
6.600000000000539,0.41283358339869797,-0.012221658970955772
6.800000000000606,0.4347223105866271,-0.014234509180271393
7.000000000000672,0.4526320238999308,-0.010669875182505064
7.200000000000739,0.4772779082485431,-0.014461730029962951
7.400000000000806,0.49741487253373173,-0.023983996393734094
7.600000000000873,0.5164470535746646,-0.029196780712768163
7.8000000000009395,0.5332439646906794,-0.03024399023165445
8.000000000001005,0.5524950282633486,-0.035451230519548106
8.200000000000895,0.5827696221752899,-0.03946441161766559
8.400000000000784,0.5995377793939982,-0.04393377673411144
8.600000000000673,0.6112360203796556,-0.05317718469484481
8.800000000000562,0.6298268283572068,-0.06414004917877067
9.000000000000451,0.6502459290660926,-0.07142609081198108
9.20000000000034,0.6646211195696728,-0.07834712466840073
9.40000000000023,0.6801164191619308,-0.08220984525652313
9.600000000000119,0.6926140296110076,-0.09280870522829064
9.800000000000008,0.726563529358351,-0.10074225269501234
10.000999999999896,0.7664236381663806,-0.11015797771797274
10.200999999999786,0.7834164029867821,-0.1250750211560295
10.400999999999675,0.7962470477237519,-0.13569724508926193
10.600999999999564,0.8181193325385889,-0.14774410342571434
10.800999999999453,0.8448286188103907,-0.16165647470635836
11.000999999999342,0.8629247549750357,-0.1793368410397057
11.200999999999231,0.8859814806306068,-0.1957048309628488
11.40099999999912,0.9131454720924576,-0.2105073307486864
11.60099999999901,0.9420483628198124,-0.22401705490482368
11.800999999998899,0.9543947482699391,-0.24092785949891854
12.000999999998788,0.9755784610026066,-0.2525075847455898
12.200999999998677,0.9930632410532759,-0.26842894962171093
12.400999999998566,1.013283275261346,-0.2849182234182593
12.600999999998455,1.034606282065885,-0.30410106138116627
12.800999999998345,1.0456354890919541,-0.324363512695679
13.000999999998234,1.0691338163674982,-0.33632600552827924
13.200999999998123,1.0887813666672899,-0.342378694804971
13.400999999998012,1.1047589314280792,-0.3567424931704542
13.600999999997901,1.1176917227481384,-0.3745706770595828
13.80099999999779,1.145398139972178,-0.3902778893361054
14.00099999999768,1.1628128530448043,-0.40942472615004666
14.200999999997569,1.190677992320472,-0.4218606932390681
14.400999999997458,1.221423218947203,-0.42799496782031987
14.600999999997347,1.2504893432663187,-0.43472043740869126
14.800999999997236,1.2840766464428135,-0.4459830439802747
15.000999999997125,1.3064642934776969,-0.46320256189500986
15.200999999997014,1.3205968987045877,-0.4791058625699411
15.400999999996904,1.3405814003077423,-0.49398920074499825
15.600999999996793,1.3685450093274212,-0.5085235313507465
15.800999999996682,1.4059944051573146,-0.5235161822334953
16.000999999996573,1.436825336900077,-0.5379745597064682
16.200999999996817,1.456273048412254,-0.5529240431122779
16.40099999999706,1.487757530299945,-0.5634637793802383
16.600999999997306,1.515500581205439,-0.5733006618392997
16.80099999999755,1.5403217664304294,-0.5824308499458951
17.000999999997795,1.564229795701907,-0.5847332536187296
17.20099999999804,1.583567988016514,-0.5886954522044788
17.400999999998284,1.6082643467948192,-0.5933076784656804
17.60099999999853,1.635330755994085,-0.6030181571085729
17.800999999998773,1.6590095279201456,-0.6140913773770004
18.000999999999017,1.6819136005798743,-0.6241925958928698
18.20099999999926,1.7106629266419378,-0.6349637537660404
18.400999999999506,1.732347128336877,-0.6413962330190769
18.60099999999975,1.749448659625346,-0.6480687953016641
18.799999999999994,1.779656169475626,-0.6510155837608911
19.000000000000238,1.809091484838031,-0.6506785058841573
19.200000000000482,1.8399386135245788,-0.6514584034424741
19.400000000000727,1.869445562959554,-0.6542847367079231
19.60000000000097,1.8965888652200502,-0.6587140475379996
19.800000000001216,1.924012313014003,-0.6624896123068909
20.00000000000146,1.9468288477365807,-0.6723505117357798
