Time (s),X (m),Y (m)
0.001,0.0010100015126501532,0.0006628221997479689
0.20000000000000015,0.003081841588086277,0.0006340829499648649
0.4000000000000003,0.0038490367172271936,-0.002386933008001763
0.6000000000000004,0.007202835347825134,-0.0013922357588563774
0.8000000000000006,0.011634625616097254,0.0005477068744615197
1.0000000000000007,0.019698414622170535,0.0021041163280365884
1.2009999999999785,0.027733804858019524,0.009299869585555563
1.4009999999999565,0.03464646474068217,0.010763462864539834
1.6009999999999345,0.03753306488632888,0.012513954692467003
1.8009999999999124,0.05099610632937349,0.022245729677217586
2.0009999999998906,0.05343687902956484,0.026203748551343085
2.2009999999998686,0.06242838370079385,0.030166742586850398
2.4009999999998466,0.07513004307073683,0.033997387935774316
2.6009999999998246,0.08531334286469655,0.03956978822629408
2.8009999999998025,0.09725214634015104,0.04125345199813219
3.0009999999997805,0.10830698765252399,0.04446372045782764
3.2009999999997585,0.11598125680943244,0.05209672913527478
3.4009999999997365,0.12589059147844162,0.0636418120804812
3.6009999999997144,0.14025129593858074,0.07433055793501267
3.8009999999996924,0.14994260287335534,0.0806975650451409
4.000999999999671,0.15994309058782116,0.09027450750855938
4.200999999999738,0.17134469626272517,0.09629389908765826
4.400999999999804,0.18181470377576844,0.10280280571223172
4.600999999999871,0.19552130470313123,0.10770570480036394
4.800999999999938,0.20565311816369894,0.11199602869655507
5.000000000000004,0.21524288910637793,0.1159217592581895
5.200000000000071,0.22421294424817118,0.13017764871412285
5.400000000000138,0.236355483148079,0.13896051280325172
5.600000000000205,0.24336569412373832,0.1459982995382824
5.800000000000272,0.24954191637992215,0.1513179238042697
6.000000000000338,0.2547662895399425,0.16635598359752748
6.200000000000405,0.2622516269321562,0.17587239435525703
6.400000000000472,0.26977708473948975,0.18335863999021945
6.600000000000539,0.2809493501622993,0.19081697037013015
6.800000000000606,0.29047434910351944,0.20476520411790075
7.000000000000672,0.29919759739796487,0.21469196204410101
7.200000000000739,0.309929395760742,0.22867109518598686
7.400000000000806,0.3204079501016017,0.23665089893687472
7.600000000000873,0.32482337241135983,0.24237490092222455
7.8000000000009395,0.33266692705957074,0.24949300499763274
8.000000000001005,0.3420402401313723,0.25609064966056183
8.200000000000895,0.34613932965624594,0.26952948890609013
8.400000000000784,0.3498009581105027,0.2764519662183909
8.600000000000673,0.35575433411533247,0.2856672230600465
8.800000000000562,0.3601690633678966,0.2952415401704996
9.000000000000451,0.36384845262754006,0.303183406820974
9.20000000000034,0.3712183052706097,0.3120389929040721
9.40000000000023,0.3772152345533354,0.32534406496020896
9.600000000000119,0.3840586973311122,0.335027842251108
9.800000000000008,0.385882978995032,0.3441630342898347
10.000999999999896,0.38713657368448595,0.35482920430451326
10.200999999999786,0.3894782695239133,0.3653317177845408
10.400999999999675,0.3943432159691818,0.38060291127733076
10.600999999999564,0.3998281266200472,0.39318045561807385
10.800999999999453,0.40432698536931294,0.40521364619178313
11.000999999999342,0.4088756499788283,0.41495832647990577
11.200999999999231,0.4132076830183694,0.42366970192133696
11.40099999999912,0.41402510526763,0.4376534944573033
11.60099999999901,0.4155654583251255,0.4510631395137645
11.800999999998899,0.4201601627481033,0.4634169320609202
12.000999999998788,0.4237127352705588,0.47721326774190737
12.200999999998677,0.4293027827319846,0.4896773025207556
12.400999999998566,0.43490456278046297,0.4977639066961401
12.600999999998455,0.43866147209982015,0.5044926968897822
12.800999999998345,0.4413585074330117,0.5175484346204057
13.000999999998234,0.4485816148361412,0.5294578002806395
13.200999999998123,0.45292091001719165,0.5400382676311094
13.400999999998012,0.4595373551571875,0.5505225393805864
13.600999999997901,0.4656748789292438,0.5576247891908537
13.80099999999779,0.4659739682655451,0.5706013580722749
14.00099999999768,0.46849309096293923,0.587777337601206
14.200999999997569,0.4746563105367532,0.6019234427531592
14.400999999997458,0.48038199666301523,0.6121215791444242
14.600999999997347,0.4793963445469163,0.6251278540689446
14.800999999997236,0.48377706110932295,0.6364548483474007
15.000999999997125,0.48438372619111847,0.6491672627105394
15.200999999997014,0.49249626518112427,0.6629918637922492
15.400999999996904,0.49624655430136516,0.6808953757424856
15.600999999996793,0.49950021616389706,0.6948474936054625
15.800999999996682,0.5026424530476976,0.7109366957727058
16.000999999996573,0.5049966716331652,0.7175245498144592
16.200999999996817,0.5068864415999652,0.7281733043429635
16.40099999999706,0.5062561741162228,0.7419856524435772
16.600999999997306,0.5110815527124251,0.7526442236966854
16.80099999999755,0.5102114773281972,0.7626245149848879
17.000999999997795,0.511755215742039,0.7726144334123967
17.20099999999804,0.5128903038551624,0.7855844039635949
17.400999999998284,0.5100937884127169,0.8058383685712751
17.60099999999853,0.5096397980552803,0.818821036649966
17.800999999998773,0.5112829377924933,0.8332789291267416
18.000999999999017,0.5126742432236718,0.845619727097388
18.20099999999926,0.5127741966179203,0.8600631035619837
18.400999999999506,0.5151652947680002,0.8761438839735657
18.60099999999975,0.5134706271595482,0.8891002431237635
18.799999999999994,0.5126689791528315,0.9079742379617984
19.000000000000238,0.5130653024888955,0.9193524819768054
19.200000000000482,0.5123064426514059,0.9353627026770195
19.400000000000727,0.5154440497720455,0.9486942643743684
19.60000000000097,0.5163861711537103,0.9667068975763391
19.800000000001216,0.5176105716273579,0.9845404547670723
20.00000000000146,0.5155605013617423,1.0007029025887448
