Time (s),X (m),Y (m)
0.001,-0.0007489004572251305,0.00035268032603768894
0.20000000000000015,0.008511107767489926,-0.004766717466667486
0.4000000000000003,0.016039842572533904,-0.0061469916490237125
0.6000000000000004,0.03184208878608214,-0.005774277365578423
0.8000000000000006,0.04810129256831206,-0.006095278917119749
1.0000000000000007,0.07684144346641655,-0.015515588542427296
1.2009999999999785,0.10632308179580086,-0.02693351067965071
1.4009999999999565,0.1308893932532038,-0.04080741376505729
1.6009999999999345,0.1528783879081204,-0.051815902237105436
1.8009999999999124,0.18004441594631573,-0.062155512895038637
2.0009999999998906,0.20925839716196554,-0.085708276786574
2.2009999999998686,0.22903313690931454,-0.11898577446115272
2.4009999999998466,0.23787918162763005,-0.15264525186115988
2.6009999999998246,0.2321954233366663,-0.19047405921367075
2.8009999999998025,0.23075685742093296,-0.21490214942759556
3.0009999999997805,0.23512748513117443,-0.23365299656596344
3.2009999999997585,0.2354372722185484,-0.24939477472702481
3.4009999999997365,0.2353378692865737,-0.26331451891886914
3.6009999999997144,0.23625671995277236,-0.27738701919247916
3.8009999999996924,0.23629289084246963,-0.3042385282449952
4.000999999999671,0.22698138331415002,-0.3344112416185646
4.200999999999738,0.21389427927738655,-0.3710231238110507
4.400999999999804,0.2014314190645379,-0.40815588675524905
4.600999999999871,0.20072898855124946,-0.4403946579384329
4.800999999999938,0.1893755143131126,-0.47426103017944066
5.000000000000004,0.18532893040366394,-0.5023392291316806
5.200000000000071,0.17513853750921327,-0.5333888524061112
5.400000000000138,0.15750656317953085,-0.5710689424458162
5.600000000000205,0.14072061585925966,-0.6064954161868906
5.800000000000272,0.13505788746801578,-0.6437891553024896
6.000000000000338,0.1253123903410021,-0.6804554752816524
6.200000000000405,0.09870938299934671,-0.7216155884048081
6.400000000000472,0.06354302280826969,-0.7617019013906183
6.600000000000539,0.025542667922083855,-0.7862543917614118
6.800000000000606,-0.012481631917600771,-0.7925846018976753
7.000000000000672,-0.04969312314891206,-0.7881961255106019
7.200000000000739,-0.08694188326137935,-0.7809712174248116
7.400000000000806,-0.12440296787241402,-0.7727943923959575
7.600000000000873,-0.15506169715582238,-0.7669570578590481
7.8000000000009395,-0.1968625634216753,-0.7586819459194745
8.000000000001005,-0.2446472268578173,-0.746434784034827
8.200000000000895,-0.2879775862564639,-0.7379083613692415
8.400000000000784,-0.33096296844456485,-0.7103601255403861
8.600000000000673,-0.3635484311020829,-0.6897596379944148
8.800000000000562,-0.3797969568147179,-0.6690429539999749
9.000000000000451,-0.3831530457296518,-0.6353787306029479
9.20000000000034,-0.37650907607313794,-0.6039416304871762
9.40000000000023,-0.3696502085924126,-0.5790783722775054
9.600000000000119,-0.3557145411150532,-0.5429570233108623
9.800000000000008,-0.3428118143532565,-0.5026862589816178
10.000999999999896,-0.33365515948927293,-0.46282505935119855
10.200999999999786,-0.31393913232561993,-0.4195708077913181
10.400999999999675,-0.28477975943708134,-0.37278033398354077
10.600999999999564,-0.2579318315520104,-0.32702881295965947
10.800999999999453,-0.24292779909760304,-0.2848023179295783
11.000999999999342,-0.22229617258556775,-0.24770688647645106
11.200999999999231,-0.1859312675606548,-0.21275863981752818
11.40099999999912,-0.1538728924865436,-0.18922984556987876
11.60099999999901,-0.127756344058897,-0.1685146546405147
11.800999999998899,-0.10138398989523516,-0.147648745654384
12.000999999998788,-0.07931676711405368,-0.12942022381294302
12.200999999998677,-0.07187677045885736,-0.10846255306982741
12.400999999998566,-0.045890683035444975,-0.10341035579597242
12.600999999998455,-0.011649028565767272,-0.10577429808216325
12.800999999998345,0.018503278416432525,-0.11042205063085685
13.000999999998234,0.04725949489672939,-0.11282201010786627
13.200999999998123,0.06934572316006364,-0.1128167481450906
13.400999999998012,0.10406590107152999,-0.11819759698817092
13.600999999997901,0.1397566555028723,-0.11632508264006051
13.80099999999779,0.18711926595581838,-0.12484870350113095
14.00099999999768,0.23486500929487034,-0.13447295238702853
14.200999999997569,0.28429248712201505,-0.1452379691080247
14.400999999997458,0.3273055445887369,-0.1711241230700329
14.600999999997347,0.3646673739406279,-0.18331396380676782
14.800999999997236,0.40469092077211355,-0.1948766420156885
15.000999999997125,0.43990438197135595,-0.20329070736519
15.200999999997014,0.46384946683005673,-0.23856710809422407
15.400999999996904,0.46633940492241316,-0.2849746915944997
15.600999999996793,0.4641777147697763,-0.31998347722051274
15.800999999996682,0.46102159878080345,-0.34245940059645524
16.000999999996573,0.44969034816529196,-0.3733888995997684
16.200999999996817,0.4397781849222836,-0.40659579832072623
16.40099999999706,0.4294278087896835,-0.44232270071223745
16.600999999997306,0.41180306369591024,-0.48291635317694975
16.80099999999755,0.3925911120080468,-0.5250313390537465
17.000999999997795,0.3862269598225922,-0.5629364869217001
17.20099999999804,0.3594997263002834,-0.609659455786467
17.400999999998284,0.32797814169885836,-0.658563002030021
17.60099999999853,0.3033859254189339,-0.6985695210976243
17.800999999998773,0.2740028868138483,-0.7269202539280024
18.000999999999017,0.24122309103864537,-0.740009230141963
18.20099999999926,0.20131117536389254,-0.7409311944539234
18.400999999999506,0.15811260012075218,-0.7386694550767983
18.60099999999975,0.12100175943032722,-0.7330649045232521
18.799999999999994,0.08144486204811886,-0.7162763393072415
19.000000000000238,0.03863215421358805,-0.6957646289283428
19.200000000000482,-0.0054060390961090995,-0.6723502148565083
19.400000000000727,-0.04142468000898115,-0.6431514402194858
19.60000000000097,-0.07157096516138867,-0.6103561525127654
19.800000000001216,-0.09307004215605043,-0.5746177340646319
20.00000000000146,-0.1014489217077561,-0.5336447435563276
