Time (s),X (m),Y (m)
0.001,0.0009492268646305597,0.0007291460897812449
0.20000000000000015,-0.00123241474255973,-0.0027100496265329184
0.4000000000000003,-0.0018805218083928219,-0.008063925430698653
0.6000000000000004,0.005498846230909598,-0.0075313052219198266
0.8000000000000006,0.009626655338667873,-0.008512906137587106
1.0000000000000007,0.024968720268999236,-0.008717249014508578
1.2009999999999785,0.04552361642865907,-0.0037996630335301648
1.4009999999999565,0.060045980616438406,0.009389058507840336
1.6009999999999345,0.07273911203363581,0.016930052649733237
1.8009999999999124,0.08074744585722045,0.013207022225961295
2.0009999999998906,0.08828651244680942,0.004205616213793791
2.2009999999998686,0.09998225306246358,0.00975178963861623
2.4009999999998466,0.11802712792578098,0.015552015931133223
2.6009999999998246,0.13641756068743285,0.020206422634546247
2.8009999999998025,0.14855028709644003,0.025181063818539594
3.0009999999997805,0.15676826875466465,0.03573379607283467
3.2009999999997585,0.17323482845240512,0.05021118053230206
3.4009999999997365,0.19074867266594994,0.052507086017666564
3.6009999999997144,0.21138656757081528,0.060059082673771524
3.8009999999996924,0.22828382037661443,0.07130545546107034
4.000999999999671,0.24429924632148456,0.08240932651391694
4.200999999999738,0.2599227664656889,0.08737908854431749
4.400999999999804,0.28005867804607637,0.09945141547560318
4.600999999999871,0.29919400728501344,0.11139774094490654
4.800999999999938,0.3176505211887388,0.13104170665034443
5.000000000000004,0.33435212164998523,0.1491105245746093
5.200000000000071,0.3543173082955559,0.15447872980451335
5.400000000000138,0.3725998977738306,0.16364710560380805
5.600000000000205,0.39309957829401504,0.17015039429170223
5.800000000000272,0.4145575944325044,0.1850381285789267
6.000000000000338,0.42996909098560576,0.20416268067855697
6.200000000000405,0.45108360599528047,0.2074817693456392
6.400000000000472,0.46611658269636347,0.22061118777536382
6.600000000000539,0.4819838947977073,0.24126402676485645
6.800000000000606,0.4924198127913108,0.2628213198084726
7.000000000000672,0.5064790979639903,0.2833937707497153
7.200000000000739,0.5230506584985596,0.29336126426378134
7.400000000000806,0.5392454993536963,0.31554917964690715
7.600000000000873,0.5535376607855501,0.3295171259522345
7.8000000000009395,0.5698837785749934,0.34051150944364655
8.000000000001005,0.5894588282056297,0.3618985639096026
8.200000000000895,0.6064684312999333,0.3806716571780217
8.400000000000784,0.6226790019049194,0.4047313265582054
8.600000000000673,0.6364622635027312,0.4309193782378556
8.800000000000562,0.6512838479914023,0.4452609336937368
9.000000000000451,0.6623275051384641,0.46465596817407795
9.20000000000034,0.6775064766609782,0.49420618141630906
9.40000000000023,0.6903114816481969,0.513332375373163
9.600000000000119,0.6971944274481587,0.5354792436042712
9.800000000000008,0.7021835628171675,0.5631472847934882
10.000999999999896,0.7109722956582682,0.5854636947285704
10.200999999999786,0.7188149321051848,0.5998300495086147
10.400999999999675,0.7299642267476829,0.6110973307484937
10.600999999999564,0.7465512804793988,0.6262503801419894
10.800999999999453,0.7558394879719654,0.6412087897322708
11.000999999999342,0.7657583837430848,0.6620282604158172
11.200999999999231,0.7832533532072349,0.6800610888767373
11.40099999999912,0.7938467087442929,0.7042919909971651
11.60099999999901,0.7989018324639614,0.7317793684529661
11.800999999998899,0.8070974093610888,0.7479958211645028
12.000999999998788,0.8161919378926483,0.7645996415049088
12.200999999998677,0.8245903034213853,0.7908960425597265
12.400999999998566,0.8320641392650192,0.8080586530418953
12.600999999998455,0.8357209324219644,0.8190271048371955
12.800999999998345,0.8479525410362339,0.8314768369654657
13.000999999998234,0.8579615992530689,0.8507296998771469
13.200999999998123,0.8607913900327767,0.8727727895337691
13.400999999998012,0.8674751255237927,0.8822848028204858
13.600999999997901,0.878733110033651,0.8976688981639852
13.80099999999779,0.8856510162256294,0.9125750011295946
14.00099999999768,0.8892737648836372,0.9274339419225294
14.200999999997569,0.8939053919498388,0.9547765531333605
14.400999999997458,0.8969613315479523,0.9739171555208601
14.600999999997347,0.900955798195129,0.9942552375306551
14.800999999997236,0.9041710638578769,1.0173447390216217
15.000999999997125,0.9120462998567379,1.0362244955375546
15.200999999997014,0.9229747151426791,1.047153830975206
15.400999999996904,0.9334552547699085,1.0562378640277268
15.600999999996793,0.9424310202726206,1.073906404851511
15.800999999996682,0.9466216097713325,1.091612028756617
16.000999999996573,0.9507681076417268,1.111511579590601
16.200999999996817,0.95178269941907,1.1366324884231518
16.40099999999706,0.9543531954303188,1.16024267928711
16.600999999997306,0.9568016572998123,1.1796835565686004
16.80099999999755,0.9580785555365143,1.1971079696936457
17.000999999997795,0.9581305141229827,1.2197892888298716
17.20099999999804,0.9583248330174723,1.2433314740389345
17.400999999998284,0.9691931289576986,1.2694701767959662
17.60099999999853,0.9771358541302249,1.2990375336614102
17.800999999998773,0.980532428147224,1.3243687616050677
18.000999999999017,0.9825072052365378,1.3455804496626966
18.20099999999926,0.9929460007561856,1.3665925713977436
18.400999999999506,0.9960854099305446,1.39318551546135
18.60099999999975,0.999771232995363,1.4251559015300173
18.799999999999994,1.0047855684301734,1.4534606142575386
19.000000000000238,1.0079762692298195,1.4766463698112928
19.200000000000482,1.0058272126178947,1.4994275317804977
19.400000000000727,1.0054646480215912,1.5109897796108391
19.60000000000097,1.0018483792223707,1.5340230621765334
19.800000000001216,0.9918802503615773,1.5705608723083282
20.00000000000146,0.9790601307246806,1.6011806596897435
