Time (s),X (m),Y (m)
0.001,-0.00013259955118837574,-0.0009689812320744441
0.20000000000000015,0.003979950828476639,0.003692530992230487
0.4000000000000003,0.007067405564103039,-0.002046661643823033
0.6000000000000004,0.014909551439357087,-0.01713693005374046
0.8000000000000006,0.04094339989580666,-0.018140044301613856
1.0000000000000007,0.07704790744908985,-0.010008569229770324
1.2009999999999785,0.11557939512725379,0.0089752209557631
1.4009999999999565,0.1565414428788289,0.039688061817837676
1.6009999999999345,0.2026255970463198,0.07618290521209373
1.8009999999999124,0.24961250911217686,0.09478876509756175
2.0009999999998906,0.3031356991252667,0.11163492559865365
2.2009999999998686,0.3666938774858972,0.12684504325931836
2.4009999999998466,0.44081631187534537,0.1332558901673915
2.6009999999998246,0.5035992383762979,0.13412817374355862
2.8009999999998025,0.5570042111879607,0.13198506486928938
3.0009999999997805,0.6000804018482234,0.11083095476281848
3.2009999999997585,0.6423613703867157,0.0669267599752897
3.4009999999997365,0.6910316935769238,0.012195916269170074
3.6009999999997144,0.7316094355848445,-0.053261792690904974
3.8009999999996924,0.7544780130279323,-0.12326592177808482
4.000999999999671,0.7636698622494805,-0.17594219481064127
4.200999999999738,0.7543652770302016,-0.2059300094310873
4.400999999999804,0.7224779242996046,-0.2305746061293728
4.600999999999871,0.6764445102398391,-0.2547046678329691
4.800999999999938,0.6158014423685588,-0.27644668872891986
5.000000000000004,0.539955923255564,-0.3015965891449733
5.200000000000071,0.4628247656828329,-0.3204108881042405
5.400000000000138,0.4079637074499089,-0.31953996384274946
5.600000000000205,0.3780997930082535,-0.298745223422079
5.800000000000272,0.361140562253417,-0.2676307074688631
6.000000000000338,0.35442033972811426,-0.2274531885575977
6.200000000000405,0.363228251139034,-0.17961575407535055
6.400000000000472,0.3917065468324036,-0.1415336950951305
6.600000000000539,0.43233353625279025,-0.10513379262580966
6.800000000000606,0.4929961274125453,-0.04717218337838128
7.000000000000672,0.5624375804856698,0.0043325554732126115
7.200000000000739,0.6338969536786948,0.04025324689160077
7.400000000000806,0.6774907589942367,0.04555100783463284
7.600000000000873,0.7072091954992762,0.04000734615717738
7.8000000000009395,0.7168291903102827,0.01882466758254823
8.000000000001005,0.6999239636376661,0.003624267630658993
8.200000000000895,0.6616809713141747,-0.016852530308908157
8.400000000000784,0.6008668829593865,-0.04546836947738059
8.600000000000673,0.5347721026292904,-0.06453643197584731
8.800000000000562,0.4748490051636918,-0.07212029569272672
9.000000000000451,0.4189196895459415,-0.06986654979126553
9.20000000000034,0.3642262434903708,-0.057154698875108025
9.40000000000023,0.32410823250878373,-0.020652825225040226
9.600000000000119,0.2885556725321324,0.05320717946709115
9.800000000000008,0.25750126356193864,0.13460190370254788
10.000999999999896,0.22670000362020007,0.2161862363779445
10.200999999999786,0.20576212501827396,0.3108200928879241
10.400999999999675,0.2051383376590416,0.39218249900767926
10.600999999999564,0.22025083499860015,0.4728068844528055
10.800999999999453,0.2516912414617876,0.5301362363873598
11.000999999999342,0.30470461258357573,0.5826625314867869
11.200999999999231,0.37011125540424905,0.6263783953509344
11.40099999999912,0.4248708226002649,0.656907243725876
11.60099999999901,0.47878560924335867,0.6737704707020444
11.800999999998899,0.5216605648701174,0.6711549909870582
12.000999999998788,0.5675833778378876,0.6518506872620105
12.200999999998677,0.6092177754494152,0.6050755403388874
12.400999999998566,0.6659370743949168,0.5470849696953383
12.600999999998455,0.7266900691474754,0.47672117980477846
12.800999999998345,0.779248851952604,0.39778709435699283
13.000999999998234,0.8277417452459926,0.3140968992633501
13.200999999998123,0.859775275513121,0.22047691425774374
13.400999999998012,0.8659177116347985,0.1498509964898575
13.600999999997901,0.8405533756253889,0.1036387563205217
13.80099999999779,0.8047806723499058,0.06866289190492605
14.00099999999768,0.7740816882910696,0.06836157138213515
14.200999999997569,0.7480292289523858,0.0985125097322866
14.400999999997458,0.7060280784327866,0.15570869987389138
14.600999999997347,0.6512343216352865,0.2342045735837313
14.800999999997236,0.5927217998692059,0.31739230001782154
15.000999999997125,0.5345130377026828,0.4018613680641757
15.200999999997014,0.47114399278248503,0.4843327138594665
15.400999999996904,0.4034259685070636,0.5538162745940773
15.600999999996793,0.3116715984066619,0.6064866720552251
15.800999999996682,0.22134160230739375,0.6520941022971938
16.000999999996573,0.13162762368300626,0.6680256545388205
16.200999999996817,0.035868968332548413,0.6453428317886809
16.40099999999706,-0.05769161751295488,0.6136793646508594
16.600999999997306,-0.14644500558272436,0.5768236096482147
16.80099999999755,-0.23306855610459268,0.5268325895575849
17.000999999997795,-0.32585560201896024,0.4850243413015165
17.20099999999804,-0.4237984140442438,0.4585145125600608
17.400999999998284,-0.5132693004341187,0.4567306668846361
17.60099999999853,-0.5734088661499351,0.48341349502442
17.800999999998773,-0.613229507462388,0.5295766278702302
18.000999999999017,-0.6372368605007271,0.586785957602223
18.20099999999926,-0.6483165937849014,0.6415790046363954
18.400999999999506,-0.636433220375211,0.6921967884503959
18.60099999999975,-0.5942568033005221,0.7350042424476201
18.799999999999994,-0.5463627522698989,0.804253249826729
19.000000000000238,-0.5094344091596376,0.8946583833717235
19.200000000000482,-0.46643328372727816,0.9860978474507748
19.400000000000727,-0.4016269440531718,1.072712204399014
19.60000000000097,-0.3176392043634859,1.138031108783436
19.800000000001216,-0.2313377264255074,1.1956479790865946
20.00000000000146,-0.1583824429850474,1.2581356117635787
