Time (s),X (m),Y (m)
0.001,-0.0007489004572251305,-0.00035268032603768894
0.20000000000000015,0.00594089687038174,0.0005136605795888979
0.4000000000000003,0.010998340822191656,0.00031482040704135044
0.6000000000000004,0.017362554723081024,0.0006545821829961292
0.8000000000000006,0.02325607857805653,0.006164055134895755
1.0000000000000007,0.03695586752356084,0.013746139511079657
1.2009999999999785,0.05261188709623282,0.013387958825612745
1.4009999999999565,0.06548241932355629,0.01153802169796826
1.6009999999999345,0.09141537892218203,0.0019267455632404789
1.8009999999999124,0.11800570353194383,-0.0070147905965816295
2.0009999999998906,0.12706595650474906,-0.018304997585006543
2.2009999999998686,0.13488617016225932,-0.03119316406341928
2.4009999999998466,0.1632318807476777,-0.05116705737867786
2.6009999999998246,0.19687806158014426,-0.074929852757046
2.8009999999998025,0.23170707632796106,-0.10191379022390606
3.0009999999997805,0.2621231472313577,-0.12720890352838352
3.2009999999997585,0.29093423750717423,-0.15464575239310513
3.4009999999997365,0.3171785651904993,-0.1812362225076899
3.6009999999997144,0.34421776158034784,-0.21270690326971925
3.8009999999996924,0.3699022609197794,-0.24595925242097763
4.000999999999671,0.3964174445143008,-0.27539979097673434
4.200999999999738,0.41962912262499297,-0.3059078915531495
4.400999999999804,0.42893395459970945,-0.3344469156876799
4.600999999999871,0.4223934870209078,-0.35985886264334943
4.800999999999938,0.4039784348538482,-0.3784691393876788
5.000000000000004,0.3796652176577276,-0.4040499312442809
5.200000000000071,0.35448452609998427,-0.42945675048953164
5.400000000000138,0.3331646546346116,-0.4698015278759995
5.600000000000205,0.3149079615484369,-0.49050265263872284
5.800000000000272,0.30057623563378877,-0.5250371153994051
6.000000000000338,0.28690363384027034,-0.5553155762179612
6.200000000000405,0.2702187470073329,-0.5936058173208282
6.400000000000472,0.2595036075270163,-0.6216629983317629
6.600000000000539,0.2460292512076517,-0.6546154887317114
6.800000000000606,0.2289297358955877,-0.7012497406560115
7.000000000000672,0.20916475329747455,-0.7421959834944376
7.200000000000739,0.1831894225432856,-0.7817997987116359
7.400000000000806,0.15815365947537524,-0.8074852425516216
7.600000000000873,0.13158461203627755,-0.8360239505296426
7.8000000000009395,0.10379401229870082,-0.875297061315555
8.000000000001005,0.07375005885726182,-0.9114274785172498
8.200000000000895,0.04370454449143818,-0.9455980597609157
8.400000000000784,0.013718358263094633,-0.9883235406412592
8.600000000000673,-0.01652774111971985,-1.02775013520956
8.800000000000562,-0.038646912053508106,-1.0546918742569331
9.000000000000451,-0.060248269754363204,-1.0925373436287134
9.20000000000034,-0.08917718365241613,-1.1391574934250168
9.40000000000023,-0.12990996934518426,-1.1889988115503176
9.600000000000119,-0.17558455157335262,-1.2395448042660961
9.800000000000008,-0.21949550740501442,-1.282965267011569
10.000999999999896,-0.2640458616965515,-1.32837739709323
10.200999999999786,-0.30769550455398503,-1.3771152100955064
10.400999999999675,-0.3473779563012596,-1.4286797902999768
10.600999999999564,-0.38935777147475936,-1.4779540112698704
10.800999999999453,-0.4320146703823974,-1.5289066644355918
11.000999999999342,-0.47743211812113484,-1.5787571116481447
11.200999999999231,-0.5203811203445781,-1.6286356910288369
11.40099999999912,-0.5595422088067495,-1.678136655411709
11.60099999999901,-0.5977322562141887,-1.7250548230995508
11.800999999998899,-0.6399754428970645,-1.7730472535543744
12.000999999998788,-0.6824316037897727,-1.8175757641766108
12.200999999998677,-0.7236126724293509,-1.8608616179777502
12.400999999998566,-0.766110515351349,-1.9022858513608636
12.600999999998455,-0.809881314004164,-1.9420774000637437
12.800999999998345,-0.8557924394698078,-1.9825944584698572
13.000999999998234,-0.9007825682948518,-2.0156422005109507
13.200999999998123,-0.9325718040934127,-2.036260652926608
13.400999999998012,-0.9645443155804104,-2.0392783587927004
13.600999999997901,-1.0019234181409802,-2.0331995685822877
13.80099999999779,-1.0368440573928221,-2.0228951489421023
14.00099999999768,-1.0572618206829687,-2.0060128232275583
14.200999999997569,-1.0976560628590348,-1.986336278724259
14.400999999997458,-1.1348062695612262,-1.963720861603508
14.600999999997347,-1.1720740232654228,-1.9426187072672665
14.800999999997236,-1.2032141724084697,-1.9196858231168474
15.000999999997125,-1.2337600465368856,-1.8986414266154286
15.200999999997014,-1.2572780677310267,-1.8865910508728803
15.400999999996904,-1.2837057019991382,-1.888260451475012
15.600999999996793,-1.3036444064583295,-1.8934915167780375
15.800999999996682,-1.3229206350746203,-1.8906097226969285
16.000999999996573,-1.3441703844703892,-1.881926174440328
16.200999999996817,-1.3750651906690463,-1.8649296521037522
16.40099999999706,-1.4088453356103707,-1.8491140838438194
16.600999999997306,-1.4455207499217493,-1.8260696175331381
16.80099999999755,-1.4996920934169573,-1.7949182226129694
17.000999999997795,-1.5607461585100149,-1.754537243439537
17.20099999999804,-1.6118115115654716,-1.7118560428036644
17.400999999998284,-1.662257681172424,-1.6602357845604163
17.60099999999853,-1.7101162871482172,-1.604110391891405
17.800999999998773,-1.7548433605848506,-1.5552251106146069
18.000999999999017,-1.7927907371569052,-1.5046193718589627
18.20099999999926,-1.8009451696414147,-1.4485154277766712
18.400999999999506,-1.7826311944126336,-1.3924626918812841
18.60099999999975,-1.7550681611526084,-1.3506318835350675
18.799999999999994,-1.7273433766262152,-1.3053879298154714
19.000000000000238,-1.7043711829177586,-1.274260401417004
19.200000000000482,-1.6812712259003126,-1.2512674758370812
19.400000000000727,-1.6611804482414183,-1.239587761935445
19.60000000000097,-1.6396571555363026,-1.215483523446978
19.800000000001216,-1.6183319909138847,-1.1779191236695101
20.00000000000146,-1.594205108741121,-1.1380583981874255
