Time (s),X (m),Y (m)
0.001,-0.00021570977506068912,0.0009345558501746678
0.20000000000000015,0.0022494086370551205,-0.0018642385935465915
0.4000000000000003,0.011198875016540223,-0.0105857297017883
0.6000000000000004,0.028448715081178595,-0.021450186957970695
0.8000000000000006,0.04666882249931489,-0.031121917473307264
1.0000000000000007,0.0644089388168163,-0.038024191118143036
1.2009999999999785,0.078159844770818,-0.05216817495025457
1.4009999999999565,0.09315399366832927,-0.05138624113472704
1.6009999999999345,0.11050090758113887,-0.051045328677468575
1.8009999999999124,0.14079086322503215,-0.062316445526044505
2.0009999999998906,0.16312962698800573,-0.09006895023422681
2.2009999999998686,0.1833097926830908,-0.12411296926746207
2.4009999999998466,0.20190305122910704,-0.16980466822812512
2.6009999999998246,0.22713633851736,-0.18123488999567167
2.8009999999998025,0.2575068316958262,-0.2077918531225448
3.0009999999997805,0.28774140023709704,-0.2422996558025303
3.2009999999997585,0.3161807491697625,-0.28186509567147416
3.4009999999997365,0.34300245509569405,-0.316938996636099
3.6009999999997144,0.372962408444832,-0.3498569309025028
3.8009999999996924,0.407982283788743,-0.3777285135204006
4.000999999999671,0.4430566026518153,-0.4174256463672854
4.200999999999738,0.4819401986281675,-0.46381464890745644
4.400999999999804,0.5233299268275013,-0.4921880752449822
4.600999999999871,0.5598128290107196,-0.5163041584174679
4.800999999999938,0.5933607290785653,-0.5465956718695288
5.000000000000004,0.6259198329655689,-0.5914074149797767
5.200000000000071,0.6606617308420495,-0.6277443486071738
5.400000000000138,0.6975232462689352,-0.6463802248139382
5.600000000000205,0.7372960975180879,-0.6628160261769366
5.800000000000272,0.7687828523502224,-0.6894457591648656
6.000000000000338,0.7968776323895443,-0.7272834861749597
6.200000000000405,0.8342191980890794,-0.7549659459122724
6.400000000000472,0.8722899760884885,-0.7933490457828363
6.600000000000539,0.9112809877408651,-0.8213417552155815
6.800000000000606,0.9502662590252884,-0.8426218251657801
7.000000000000672,0.983875493052459,-0.8821412961308914
7.200000000000739,1.0065200877103915,-0.9369065920572698
7.400000000000806,1.0217800927519818,-0.9896910057185555
7.600000000000873,1.034221228350154,-1.0369682759405023
7.8000000000009395,1.0415490740606177,-1.082366536012126
8.000000000001005,1.042670770533456,-1.13225430820362
8.200000000000895,1.025678152664411,-1.1866789142959995
8.400000000000784,1.010995219940063,-1.240785647976652
8.600000000000673,0.9962614926205676,-1.2900298005782442
8.800000000000562,0.9833525324221303,-1.3289792239566334
9.000000000000451,0.9625472278422809,-1.3645931987356585
9.20000000000034,0.9359315485999238,-1.407292775996781
9.40000000000023,0.9028491706634855,-1.4463877779313972
9.600000000000119,0.8732030368877879,-1.4785990446463815
9.800000000000008,0.853712689196752,-1.5070724225316223
10.000999999999896,0.828801937854353,-1.5374580101418347
10.200999999999786,0.7873150035128089,-1.5697132169048864
10.400999999999675,0.7308387410234631,-1.5947006389373846
10.600999999999564,0.6782017454962105,-1.6250354242882077
10.800999999999453,0.6208666779816773,-1.6487221249854325
11.000999999999342,0.5648869299562677,-1.666445559538662
11.200999999999231,0.5154890877090795,-1.6901806615830075
11.40099999999912,0.4655749045289622,-1.7158716825178113
11.60099999999901,0.4151109327590318,-1.7296310419205763
11.800999999998899,0.3615725154172174,-1.7452645579049857
12.000999999998788,0.3130168694332393,-1.7633906595562763
12.200999999998677,0.2682912670326814,-1.7812635154189622
12.400999999998566,0.22703647190357265,-1.8083606488277344
12.600999999998455,0.18621584485995502,-1.8383023623445176
12.800999999998345,0.1484553141319079,-1.868368269718086
13.000999999998234,0.10949877864116213,-1.8966112476670385
13.200999999998123,0.06987211745591143,-1.9154650250013403
13.400999999998012,0.026610631448187948,-1.9061980000206928
13.600999999997901,-0.01513109895945833,-1.88335104138719
13.80099999999779,-0.053999504297503664,-1.8522704113276285
14.00099999999768,-0.08803779274685168,-1.8180040744664336
14.200999999997569,-0.12441203534024389,-1.788411907009851
14.400999999997458,-0.16894986173610615,-1.759141098797764
14.600999999997347,-0.2107087822989781,-1.730834151056306
14.800999999997236,-0.24678198949993288,-1.7030560185049823
15.000999999997125,-0.27341630026947666,-1.66065060685296
15.200999999997014,-0.2912324660691852,-1.6147693796938776
15.400999999996904,-0.2847265363235582,-1.5669719922252148
15.600999999996793,-0.2708819758163719,-1.5175971175610403
15.800999999996682,-0.24876122890976046,-1.4698689314475242
16.000999999996573,-0.215284969044458,-1.4302891261802877
16.200999999996817,-0.17170737885963358,-1.3953570490927196
16.40099999999706,-0.13061234175739772,-1.3601502081795944
16.600999999997306,-0.08208695331086864,-1.3320084716674536
16.80099999999755,-0.030510456044415827,-1.3145713776212913
17.000999999997795,0.021648114803417197,-1.3141531755761178
17.20099999999804,0.07254109462953988,-1.324993059383392
17.400999999998284,0.12414079743358583,-1.337388324080178
17.60099999999853,0.17609076470957447,-1.3600878116553292
17.800999999998773,0.22625937031316726,-1.39523515073338
18.000999999999017,0.2793062663917108,-1.4311818367900055
18.20099999999926,0.3332443135198507,-1.4634498326687544
18.400999999999506,0.3798253665140051,-1.4977501885814755
18.60099999999975,0.4257696416194999,-1.5369235596395725
18.799999999999994,0.470290713858257,-1.5883876172770364
19.000000000000238,0.5155350875776477,-1.6403578823695908
19.200000000000482,0.5601489803012302,-1.6983790267143881
19.400000000000727,0.6009475007299617,-1.7496221468795532
19.60000000000097,0.6318084532938121,-1.8061169456024013
19.800000000001216,0.6624394634089297,-1.8548565975736764
20.00000000000146,0.6906411910600012,-1.9009907140926365
