Time (s),X (m),Y (m)
0.001,0.0008115346074009382,0.0008446836120385872
0.20000000000000015,-0.0023199238104059847,-0.003176868132118784
0.4000000000000003,0.005056704123232785,-0.002909900788300763
0.6000000000000004,0.01455795683633876,-5.244707410117845e-05
0.8000000000000006,0.032437534565400925,0.015300442686821082
1.0000000000000007,0.05873092420593951,0.027106771261146
1.2009999999999785,0.0811069892080533,0.023663914682301383
1.4009999999999565,0.11040364084700299,0.03504357643521878
1.6009999999999345,0.14372445463474595,0.04861132041944952
1.8009999999999124,0.18373701483986105,0.05165519408955485
2.0009999999998906,0.21962532030321444,0.05166052998807962
2.2009999999998686,0.2534964954365031,0.06310412598448915
2.4009999999998466,0.2841383814134733,0.07248195066744893
2.6009999999998246,0.30986898395202206,0.06953703673172261
2.8009999999998025,0.3394410109692462,0.09914384281688848
3.0009999999997805,0.373705621746503,0.12803144112351048
3.2009999999997585,0.4126537458504312,0.1284506110049355
3.4009999999997365,0.4478969971419682,0.14073245384621166
3.6009999999997144,0.48287546127727843,0.15510673493665042
3.8009999999996924,0.5111193103757962,0.19282897202004656
4.000999999999671,0.5396087036079948,0.22090874624334694
4.200999999999738,0.574156741013313,0.24433444054545617
4.400999999999804,0.6085462875267597,0.26415766420245745
4.600999999999871,0.6386825497894468,0.2870309411950328
4.800999999999938,0.6720171165621993,0.30863614853575055
5.000000000000004,0.7080581211473699,0.3233226031706056
5.200000000000071,0.743529819555755,0.34621561101116494
5.400000000000138,0.774576214593297,0.36210999187079257
5.600000000000205,0.8005504468073195,0.38439348985052885
5.800000000000272,0.832692998685092,0.39465639229349014
6.000000000000338,0.8620798450301962,0.4212403041700179
6.200000000000405,0.8966054109937306,0.43815478703614086
6.400000000000472,0.9301179794042017,0.46145574494852526
6.600000000000539,0.9652597933038891,0.48450120243574263
6.800000000000606,1.0052646553527087,0.511354047597217
7.000000000000672,1.0492725516827373,0.5194286832990966
7.200000000000739,1.0829272067177926,0.5278824031632013
7.400000000000806,1.1096561341139926,0.539979939760191
7.600000000000873,1.1387641850806665,0.5784832436953985
7.8000000000009395,1.1692226977147835,0.6128403229725606
8.000000000001005,1.2062692149174246,0.6449317242243232
8.200000000000895,1.2398769029892658,0.6665852258389428
8.400000000000784,1.2697943481056024,0.6936170490223151
8.600000000000673,1.2961877990012998,0.7295610339825241
8.800000000000562,1.3214184979040908,0.7770992202481523
9.000000000000451,1.3349157381265528,0.8314159522703986
9.20000000000034,1.3432646795117185,0.8737601647310972
9.40000000000023,1.3504084349546293,0.9124223825620816
9.600000000000119,1.3581369804934444,0.9343973659764033
9.800000000000008,1.3625162920256126,0.9708434084611856
10.000999999999896,1.372366796745425,1.0171127583553288
10.200999999999786,1.389383707067669,1.0570915489922148
10.400999999999675,1.4078428447913471,1.0857881362426935
10.600999999999564,1.415042804025448,1.131902435683813
10.800999999999453,1.4150185751760218,1.1901040070472007
11.000999999999342,1.4199272333140887,1.228604177319767
11.200999999999231,1.425309788364249,1.2639071972855724
11.40099999999912,1.424210137953967,1.307299756821974
11.60099999999901,1.4194753259118869,1.3545655464003876
11.800999999998899,1.4105317732708453,1.4144100530724573
12.000999999998788,1.395612761842386,1.4728947454932073
12.200999999998677,1.3881087917493231,1.5292819752317888
12.400999999998566,1.382538925237847,1.5735692110037658
12.600999999998455,1.3816829337326477,1.6106164220146857
12.800999999998345,1.3749642192569542,1.6532531047615278
13.000999999998234,1.3570837969154674,1.7116946474511974
13.200999999998123,1.3412495172348144,1.7695603561547952
13.400999999998012,1.3233439037708978,1.825483854392496
13.600999999997901,1.3056401084396196,1.8726103641017788
13.80099999999779,1.2752160884720238,1.9262324728988
14.00099999999768,1.2358284304027234,1.9850785646826425
14.200999999997569,1.1976723303148487,2.0439365127765483
14.400999999997458,1.1737849007929875,2.09279040675951
14.600999999997347,1.1422254702790404,2.128600805179075
14.800999999997236,1.1182130918227506,2.1619213744919787
15.000999999997125,1.0821858688334245,2.197007610722158
15.200999999997014,1.051843721101668,2.234511090361223
15.400999999996904,1.0205087515449132,2.2605651064236962
15.600999999996793,0.9813675960148114,2.2887765256593804
15.800999999996682,0.9486818288857765,2.3245650734240315
16.000999999996573,0.8992254178111473,2.349176422414137
16.200999999996817,0.8488501393097349,2.36357349212448
16.40099999999706,0.8018616062230729,2.3802413750323383
16.600999999997306,0.7445528249729035,2.3856206331631844
16.80099999999755,0.685194833633174,2.3767827645470327
17.000999999997795,0.6329908707593823,2.3625116608316064
17.20099999999804,0.5787934331240375,2.3398416944716747
17.400999999998284,0.522815183413203,2.309527306439128
17.60099999999853,0.4597639339265926,2.2743367961274306
17.800999999998773,0.40063427223038184,2.250133880305885
18.000999999999017,0.34318793463619557,2.218603774820034
18.20099999999926,0.29549999816771977,2.1964388527656995
18.400999999999506,0.24760070404122428,2.176843646638636
18.60099999999975,0.20774080618432358,2.140950301204439
18.799999999999994,0.17323572753632038,2.096528399165606
19.000000000000238,0.1448255019811228,2.0453303942553847
19.200000000000482,0.11585724284451358,2.0042496104321668
19.400000000000727,0.08267886319574183,1.985122100788236
19.60000000000097,0.044818109379396065,1.9623314038666915
19.800000000001216,0.008580052788851992,1.934342760537127
20.00000000000146,-0.027225347202959313,1.903375780794883
