Time (s),X (m),Y (m)
0.001,0.0003099530129853942,-0.0010272443824616275
0.20000000000000015,0.002711008001987037,0.00611607173770585
0.4000000000000003,0.006057552833778692,0.008130353997072464
0.6000000000000004,0.01025111427598163,-0.005697340017274019
0.8000000000000006,0.021327507514117314,-0.036454615401701265
1.0000000000000007,0.039916454696279524,-0.05034655596033711
1.2009999999999785,0.06345305790267211,-0.04542838631961762
1.4009999999999565,0.08688342918071211,-0.06890079870693937
1.6009999999999345,0.11761377323064559,-0.08698407371009827
1.8009999999999124,0.15022441089444485,-0.10754104776970065
2.0009999999998906,0.17317590743338243,-0.11874497774635152
2.2009999999998686,0.2019281627633108,-0.11899289200037062
2.4009999999998466,0.24150598867459233,-0.11711624189708525
2.6009999999998246,0.2756997812129016,-0.1164497452875584
2.8009999999998025,0.30522641582746335,-0.13307251495902997
3.0009999999997805,0.3423679103597458,-0.14328896754122664
3.2009999999997585,0.3754985853527929,-0.14541895994706025
3.4009999999997365,0.399885205281648,-0.16667916503687014
3.6009999999997144,0.42890064083050783,-0.18622427341316602
3.8009999999996924,0.46243224858572685,-0.20402741629247742
4.000999999999671,0.4881089306766629,-0.2295844807005921
4.200999999999738,0.5277021553081779,-0.25543539416922656
4.400999999999804,0.5412077129301129,-0.28618013162040395
4.600999999999871,0.5647082622886678,-0.3178494986914799
4.800999999999938,0.5927434544112743,-0.3458581758861101
5.000000000000004,0.60968434026333,-0.37413880491425616
5.200000000000071,0.6016891043862864,-0.40589036538226475
5.400000000000138,0.5954350835435943,-0.4409410650688732
5.600000000000205,0.5886555741582292,-0.47419034673148974
5.800000000000272,0.58722848611437,-0.5099002911532625
6.000000000000338,0.5607716913387075,-0.5381819539369341
6.200000000000405,0.5372419487350473,-0.5627274435178712
6.400000000000472,0.52822329128074,-0.5922318802145683
6.600000000000539,0.4934649015612078,-0.6240802072994425
6.800000000000606,0.45421168681104507,-0.6448019643484452
7.000000000000672,0.4306963345838844,-0.6756762370419664
7.200000000000739,0.40040065111900747,-0.7041639938550588
7.400000000000806,0.3748411659447522,-0.7385754129102144
7.600000000000873,0.3701358421494862,-0.7735687774830547
7.8000000000009395,0.35787458850789194,-0.8080182788147289
8.000000000001005,0.3456487187598858,-0.8412798304455642
8.200000000000895,0.33561363790316023,-0.8743562815626102
8.400000000000784,0.31727079799050245,-0.9116341014432167
8.600000000000673,0.3055579698071619,-0.9528464310061827
8.800000000000562,0.2776279935476895,-0.9849206262150157
9.000000000000451,0.2550983493311205,-1.0229205372806827
9.20000000000034,0.23677527539429655,-1.0607672955364156
9.40000000000023,0.21912702027611256,-1.097446532132101
9.600000000000119,0.18198042148809984,-1.1209802798282515
9.800000000000008,0.16623950496523282,-1.1567397512451172
10.000999999999896,0.14366811117579759,-1.1916789057784591
10.200999999999786,0.10608938696219558,-1.2198332058634678
10.400999999999675,0.0665453261551005,-1.242764125730737
10.600999999999564,0.03092100657362333,-1.258900598023855
10.800999999999453,-0.004562948868929842,-1.2726233889343173
11.000999999999342,-0.04488525457323876,-1.2755353978516721
11.200999999999231,-0.08540627301170656,-1.2545303138833168
11.40099999999912,-0.13088298595243064,-1.2445525611141715
11.60099999999901,-0.16924193271081656,-1.224220060710784
11.800999999998899,-0.1896515824318156,-1.1977567434501577
12.000999999998788,-0.19996851937403787,-1.1691434396617857
12.200999999998677,-0.20362964347116322,-1.130206374752171
12.400999999998566,-0.20377918631027125,-1.086142419373066
12.600999999998455,-0.19226885755927897,-1.0443281908481588
12.800999999998345,-0.17164174638077848,-1.004528188230146
13.000999999998234,-0.15572732333440362,-0.9773699225038859
13.200999999998123,-0.13366015169568865,-0.9841996344659919
13.400999999998012,-0.10830122732057419,-0.9976663165266526
13.600999999997901,-0.09807378662810895,-1.0150582651119509
13.80099999999779,-0.09269211365543305,-1.042906289252725
14.00099999999768,-0.10045480963506655,-1.079636412713945
14.200999999997569,-0.11181675138471521,-1.1151699453597943
14.400999999997458,-0.127014909478357,-1.153243217878313
14.600999999997347,-0.14721294998328893,-1.179273498207175
14.800999999997236,-0.18164596145391756,-1.1981023714826626
15.000999999997125,-0.22523780640612648,-1.1967568013759449
15.200999999997014,-0.2688101687605849,-1.1853343265294203
15.400999999996904,-0.2906352275026951,-1.1694265895969658
15.600999999996793,-0.29448106921653466,-1.1427981559779181
15.800999999996682,-0.2940960042450833,-1.1115455578768252
16.000999999996573,-0.2760193542141664,-1.0824845774233929
16.200999999996817,-0.26738701785548136,-1.045867328487376
16.40099999999706,-0.2539295785836213,-1.0163460302205334
16.600999999997306,-0.23393424023589868,-1.0008703728257413
16.80099999999755,-0.2054551940704923,-0.9920463194844893
17.000999999997795,-0.1795892048714877,-0.9965725655101891
17.20099999999804,-0.14898082557312198,-1.009758460330461
17.400999999998284,-0.11133653837519045,-1.02394871127358
17.60099999999853,-0.07060383925800376,-1.0385917678840553
17.800999999998773,-0.037825378547974554,-1.0565410841857583
18.000999999999017,-0.012688563392408049,-1.0893766822704543
18.20099999999926,0.015667704271349666,-1.1197962673676616
18.400999999999506,0.025347412988184097,-1.1575021132019534
18.60099999999975,0.02401566976237524,-1.197844541027862
18.799999999999994,0.0004373558708361436,-1.2228652729937786
19.000000000000238,-0.024162723552058625,-1.2411438571201623
19.200000000000482,-0.0493615164360375,-1.236963407725406
19.400000000000727,-0.08138363051178057,-1.2485979953983626
19.60000000000097,-0.1100482327886757,-1.2736747557904269
19.800000000001216,-0.1463119621906051,-1.2901389400420233
20.00000000000146,-0.184752668639937,-1.3008764393354104
