Time (s),X (m),Y (m)
0.001,-0.00037137305770231177,-0.0008446836120385868
0.20000000000000015,0.006729146902668974,0.004443812443081785
0.4000000000000003,0.013522131565390613,0.008228224460801197
0.6000000000000004,0.01810179963791594,0.013393991015245342
0.8000000000000006,0.030847246266175764,0.010106510791706755
1.0000000000000007,0.04725792849710125,0.004485757640328811
1.2009999999999785,0.059426869703549406,-1.5205015845000028e-05
1.4009999999999565,0.08055617397887008,-0.0002564741091697083
1.6009999999999345,0.09853367674548773,-0.004862140705089691
1.8009999999999124,0.12207803353530737,-0.01135536537064516
2.0009999999998906,0.15126234929104337,-0.007898948000312437
2.2009999999998686,0.17568274463580974,-0.006841785642863857
2.4009999999998466,0.2024974364472702,-0.019266991137324243
2.6009999999998246,0.2294914227753429,-0.03178712998657741
2.8009999999998025,0.25641925738917404,-0.04742678119292272
3.0009999999997805,0.2871581804183677,-0.06687152422692587
3.2009999999997585,0.29812880148239246,-0.08554312860757082
3.4009999999997365,0.3021700528833396,-0.1090422280600313
3.6009999999997144,0.31312803348956103,-0.136457562845252
3.8009999999996924,0.33309864281915114,-0.16620816989598747
4.000999999999671,0.3476447071694956,-0.190472291861078
4.200999999999738,0.3658702175488422,-0.22155267642799004
4.400999999999804,0.3772851973152222,-0.25102208007608773
4.600999999999871,0.38321247940680564,-0.2817540385807459
4.800999999999938,0.3834304216838262,-0.3156300231359532
5.000000000000004,0.38461944907097556,-0.3463295083341238
5.200000000000071,0.3964795730737963,-0.3799353311846223
5.400000000000138,0.41085939710481345,-0.4194742945772844
5.600000000000205,0.43763070178053254,-0.45855986498767787
5.800000000000272,0.4704904334764002,-0.4990713234404381
6.000000000000338,0.49097594343210005,-0.5420838481799203
6.200000000000405,0.509821733490846,-0.5863742843666551
6.400000000000472,0.5346229820466266,-0.6271264474454163
6.600000000000539,0.5523364359116274,-0.6638552754442053
6.800000000000606,0.5724493757519138,-0.697174203381481
7.000000000000672,0.5892423243538255,-0.7269833394485342
7.200000000000739,0.6116261944248879,-0.7550548845053503
7.400000000000806,0.6292589552168277,-0.7873404717701368
7.600000000000873,0.6525342611625972,-0.8236870820255796
7.8000000000009395,0.6746238521088961,-0.8615114423295828
8.000000000001005,0.6975718700728167,-0.8982133821207573
8.200000000000895,0.7225955234457,-0.9337968629375387
8.400000000000784,0.7422766756520339,-0.9708939833927382
8.600000000000673,0.759444198555605,-1.0087653519807214
8.800000000000562,0.7854476351184437,-1.0429952314358775
9.000000000000451,0.8143855482880576,-1.0758440685800073
9.20000000000034,0.848847855862127,-1.1106807990371554
9.40000000000023,0.8728829600812379,-1.1438330117932078
9.600000000000119,0.9016029619438826,-1.1790914748295582
9.800000000000008,0.9216149346176166,-1.2172914609930574
10.000999999999896,0.9311188363488118,-1.2563551419326946
10.200999999999786,0.9502611986889172,-1.2944600964783344
10.400999999999675,0.9784335119163209,-1.3380285426930674
10.600999999999564,1.0133464616107322,-1.37004645853459
10.800999999999453,1.0551231475450897,-1.3901935734822688
11.000999999999342,1.1002046217342272,-1.400711529399989
11.200999999999231,1.1410539909149644,-1.4105028194663098
11.40099999999912,1.181648088528074,-1.4199164561515532
11.60099999999901,1.2263001235008437,-1.4298936385267902
11.800999999998899,1.2705752558821555,-1.4361361686844505
12.000999999998788,1.3093956357952554,-1.4409501997104646
12.200999999998677,1.3457843612379423,-1.4536056109757163
12.400999999998566,1.3749045040430465,-1.4664965895299291
12.600999999998455,1.4104714964823186,-1.472602847604516
12.800999999998345,1.4526318838777665,-1.4872316649281407
13.000999999998234,1.4902886650240899,-1.5077043724422357
13.200999999998123,1.5306354040141104,-1.5256704082227586
13.400999999998012,1.5673413733432253,-1.544839208080178
13.600999999997901,1.5946921949424933,-1.5647600603946783
13.80099999999779,1.6337043200795847,-1.5788745526667958
14.00099999999768,1.6784823595926754,-1.5893006602190385
14.200999999997569,1.7104505920101127,-1.6012935489268523
14.400999999997458,1.7383386198024147,-1.619738129959178
14.600999999997347,1.7656984259824384,-1.6419817268540948
14.800999999997236,1.8038962358085255,-1.6569398385778773
15.000999999997125,1.8535515307424935,-1.6704593644779107
15.200999999997014,1.9074470956358498,-1.6801091080625687
15.400999999996904,1.9458935689502985,-1.682294694325978
15.600999999996793,1.9772045806762502,-1.6903226532042317
15.800999999996682,2.021066902156252,-1.7041300740123757
16.000999999996573,2.060572888817106,-1.7216409504210468
16.200999999996817,2.0857083030876957,-1.741234896683911
16.40099999999706,2.1188159380503016,-1.7637044791129226
16.600999999997306,2.157074971910984,-1.7890348251137416
16.80099999999755,2.200064297220146,-1.8056724175175103
17.000999999997795,2.2396788481832726,-1.8116670624053328
17.20099999999804,2.276100599039317,-1.8217103784502149
17.400999999998284,2.3154771200436355,-1.8153216454963188
17.60099999999853,2.3444228242770135,-1.8120517185767333
17.800999999998773,2.378213632100317,-1.823148008176105
18.000999999999017,2.405601774811297,-1.838532169713022
18.20099999999926,2.4402394697481826,-1.842464426822267
18.400999999999506,2.478552475202484,-1.8399406967632908
18.60099999999975,2.5191379058807115,-1.8413924556979295
18.799999999999994,2.556725225198605,-1.857688816971247
19.000000000000238,2.598506123684421,-1.8727245619800386
19.200000000000482,2.6428260888661548,-1.8915280536734558
19.400000000000727,2.6819164719895663,-1.9064054201024898
19.60000000000097,2.734818058401608,-1.9186171441857904
19.800000000001216,2.7840620140509076,-1.933581814424019
20.00000000000146,2.81924361998597,-1.9514563312261703
