Time (s),X (m),Y (m)
0.001,-0.0005698399629515257,-0.0006628221997479689
0.20000000000000015,0.005233944839446624,0.0009869539033545342
0.4000000000000003,0.012368762112945126,-0.00031447846217435655
0.6000000000000004,0.026279622908022382,0.004441400002399254
0.8000000000000006,0.048422018962520824,0.013731245893443336
1.0000000000000007,0.0743563633099526,0.025677784020536873
1.2009999999999785,0.09296224348132064,0.03291068861596696
1.4009999999999565,0.1250353923855765,0.04354534672217386
1.6009999999999345,0.15735260560759387,0.05601387161739111
1.8009999999999124,0.19064712620866123,0.07002555120067161
2.0009999999998906,0.21823554329254088,0.08949969965953194
2.2009999999998686,0.24771946608745135,0.1039820875006104
2.4009999999998466,0.2844432113894092,0.12314388942133947
2.6009999999998246,0.31673938345246117,0.14393065822461745
2.8009999999998025,0.35512986437485805,0.16311588889443937
3.0009999999997805,0.38349116969280445,0.1803304495275692
3.2009999999997585,0.42331780070239333,0.1975529489827585
3.4009999999997365,0.4595759305587826,0.21023336586129002
3.6009999999997144,0.48849751334187186,0.2166103870900623
3.8009999999996924,0.5186937472315473,0.22126507068228699
4.000999999999671,0.5464537720400404,0.2236112988993116
4.200999999999738,0.5648386109433832,0.21753666155486406
4.400999999999804,0.591292652375313,0.2083311693670114
4.600999999999871,0.6314355820558444,0.19655732077506438
4.800999999999938,0.6691212373113401,0.1825222302312016
5.000000000000004,0.713581396819187,0.1768107511406714
5.200000000000071,0.768853159230509,0.17909095839012315
5.400000000000138,0.8209107447360061,0.17756875434508954
5.600000000000205,0.8655950030854512,0.17517037198952407
5.800000000000272,0.9046290894735819,0.1685372455091872
6.000000000000338,0.9574934908237976,0.1595185008629721
6.200000000000405,1.0158300242772915,0.1419169933187879
6.400000000000472,1.057996130016719,0.12515776194749542
6.600000000000539,1.0943148663491942,0.11438243230032727
6.800000000000606,1.1261179597450492,0.0990816162248565
7.000000000000672,1.171959334023227,0.07987161273680791
7.200000000000739,1.2189411847745868,0.05376656800395366
7.400000000000806,1.2630818496189586,0.022757102189081554
7.600000000000873,1.31098443940281,-0.01120952137028929
7.8000000000009395,1.3611478536441641,-0.04800227011412342
8.000000000001005,1.392832243533787,-0.08470128165766912
8.200000000000895,1.4264739987045472,-0.12373467261168504
8.400000000000784,1.46592516123131,-0.16638407872927288
8.600000000000673,1.5058123600022921,-0.21070872647168462
8.800000000000562,1.5378569224813734,-0.254658279077683
9.000000000000451,1.5782336766779013,-0.3025919529864141
9.20000000000034,1.6132691155332437,-0.34743941475581747
9.40000000000023,1.639025115683359,-0.3889921153240082
9.600000000000119,1.6651311935825683,-0.4323424460197654
9.800000000000008,1.699697801763424,-0.4805915047088849
10.000999999999896,1.7355764075250864,-0.5351209442051302
10.200999999999786,1.769792662286648,-0.5871792053544881
10.400999999999675,1.8002942822414254,-0.6419741090008853
10.600999999999564,1.8252969049518097,-0.6944215267439992
10.800999999999453,1.8505499975150788,-0.7499106218179467
11.000999999999342,1.8860396386581606,-0.8092138969103323
11.200999999999231,1.9332741497178372,-0.8700581027420037
11.40099999999912,1.9823215530454639,-0.9292094949420298
11.60099999999901,2.0399412487285282,-0.9868668284442611
11.800999999998899,2.109449590208941,-1.0319253330213116
12.000999999998788,2.1677339188909013,-1.0663220897629133
12.200999999998677,2.2125659238217787,-1.087209551997648
12.400999999998566,2.2704320407513765,-1.1043774519028027
12.600999999998455,2.3375282124183787,-1.11692070550906
12.800999999998345,2.399184513646098,-1.1196528953514866
13.000999999998234,2.4713001229086076,-1.116818181301263
13.200999999998123,2.5336945205003305,-1.1214613090943264
13.400999999998012,2.585833275845107,-1.1393012180576096
13.600999999997901,2.6390150116796542,-1.1767958998523285
13.80099999999779,2.6893251886392013,-1.231364022875641
14.00099999999768,2.7363691290823566,-1.2859356099907095
14.200999999997569,2.790353028391371,-1.3341019846782103
14.400999999997458,2.849412967851835,-1.3734266573424778
14.600999999997347,2.9043111813114586,-1.4001169818143964
14.800999999997236,2.958963539088072,-1.4263745308947662
15.000999999997125,3.01296879691026,-1.4620001804583633
15.200999999997014,3.0700568597727576,-1.5092282881361092
15.400999999996904,3.126240438191401,-1.5650849027892912
15.600999999996793,3.1837880574316726,-1.6170327058873681
15.800999999996682,3.239989565150944,-1.6666584769720831
16.000999999996573,3.297941162127866,-1.7200002342824896
16.200999999996817,3.3460674654125966,-1.7751395768313762
16.40099999999706,3.4004479095514277,-1.826906870863649
16.600999999997306,3.462743025294734,-1.8736038436703948
16.80099999999755,3.5242589811995755,-1.9257462013265074
17.000999999997795,3.567900282160291,-1.973184570112409
17.20099999999804,3.6098776070978817,-2.017030800377888
17.400999999998284,3.6557923291668004,-2.055153567814411
17.60099999999853,3.7133954333857027,-2.0904566550688575
17.800999999998773,3.777156864960156,-2.119375529871593
18.000999999999017,3.84525648518342,-2.137301560070325
18.20099999999926,3.917431188797965,-2.1435356738349625
18.400999999999506,4.000371382662869,-2.129346629152094
18.60099999999975,4.0785925199424655,-2.1089170517527642
18.799999999999994,4.138172908705751,-2.093587865693501
19.000000000000238,4.187551127639344,-2.093213925076318
19.200000000000482,4.224414234790988,-2.101396378786444
19.400000000000727,4.260330330788656,-2.1127473175237976
19.60000000000097,4.293890073190258,-2.1301076354356363
19.800000000001216,4.335748676399748,-2.141188754911894
20.00000000000146,4.37313623667964,-2.1501186511591923
