Time (s),X (m),Y (m)
0.001,0.0003099530129853942,-0.0010272443824616275
0.20000000000000015,0.0018699347575585304,0.0069515943871036705
0.4000000000000003,0.010611038797278021,0.009518814007737282
0.6000000000000004,0.0329413586324398,-0.00746932334291391
0.8000000000000006,0.0491504299681154,-0.039916136067798924
1.0000000000000007,0.05739261177084062,-0.08296546642592989
1.2009999999999785,0.07002881980234722,-0.13962120451291415
1.4009999999999565,0.07013078935217008,-0.19631447401037946
1.6009999999999345,0.058418831849238205,-0.23993721743950452
1.8009999999999124,0.01856983739182825,-0.2718346417251051
2.0009999999998906,-0.0402209803010526,-0.2943137780746388
2.2009999999998686,-0.11094042547209304,-0.3105817990017272
2.4009999999998466,-0.18992504994829165,-0.31542199766797857
2.6009999999998246,-0.27175511258285834,-0.3164379626468158
2.8009999999998025,-0.3463476545953725,-0.30172124594100996
3.0009999999997805,-0.4095434939631442,-0.26858288558058663
3.2009999999997585,-0.46526616340405896,-0.2159773576052967
3.4009999999997365,-0.49401901750505045,-0.15053277653190603
3.6009999999997144,-0.5156723813507827,-0.0752629264141242
3.8009999999996924,-0.5306320943306423,0.004555312982058398
4.000999999999671,-0.5328405828684337,0.09327067526400729
4.200999999999738,-0.5217128359714951,0.17693824413219744
4.400999999999804,-0.4915986022739544,0.23690429383302253
4.600999999999871,-0.44585937747946713,0.28185697576929064
4.800999999999938,-0.41572951907682343,0.2917037650151311
5.000000000000004,-0.4053975547964343,0.28796536220924096
5.200000000000071,-0.42088701112002924,0.27188414486553153
5.400000000000138,-0.4244143134867275,0.264191972158291
5.600000000000205,-0.41321862000541687,0.27081615126738295
5.800000000000272,-0.38045999722923873,0.293541947868138
6.000000000000338,-0.3235989104905732,0.3244018927883259
6.200000000000405,-0.2530694354659566,0.3466582261341024
6.400000000000472,-0.17754072365453197,0.3579939684877695
6.600000000000539,-0.10749986677142326,0.34966372884595326
6.800000000000606,-0.06501539594028813,0.31108562477278656
7.000000000000672,-0.055118906612529876,0.2599426216068082
7.200000000000739,-0.05956953444895594,0.19821319831617065
7.400000000000806,-0.07247513861185814,0.1352652511141121
7.600000000000873,-0.09842754651454276,0.060978010480422784
7.8000000000009395,-0.13606528250347466,-0.023184213859119094
8.000000000001005,-0.18311330657369726,-0.08289993331146744
8.200000000000895,-0.24858355112924888,-0.10843872960831605
8.400000000000784,-0.3112149555133939,-0.1089135152620688
8.600000000000673,-0.3601886455428956,-0.08536549475883796
8.800000000000562,-0.3777890177800331,-0.057249425242542035
9.000000000000451,-0.3639125011556334,-0.04646390549164093
9.20000000000034,-0.32028138244291976,-0.03647818049493986
9.40000000000023,-0.26673271796397274,-0.030012336290281008
9.600000000000119,-0.222753756745956,-0.05029876632170315
9.800000000000008,-0.20720718023694581,-0.08234018051942779
10.000999999999896,-0.20571860049840995,-0.12849425688894003
10.200999999999786,-0.2241465886773957,-0.1577759648001497
10.400999999999675,-0.24773559692390454,-0.1633285773861888
10.600999999999564,-0.2894124191483027,-0.1503306371587448
10.800999999999453,-0.3388420890919083,-0.1232905843071182
11.000999999999342,-0.3598067261430674,-0.0736859890892229
11.200999999999231,-0.349863522862637,-0.04381842670384252
11.40099999999912,-0.32867319381965115,-0.03605523023096969
11.60099999999901,-0.30042758874230635,-0.04778093991303319
11.800999999998899,-0.23482968621441777,-0.07207576581114879
12.000999999998788,-0.17331578470274753,-0.10205522491731792
12.200999999998677,-0.12671495676495384,-0.14090774031147502
12.400999999998566,-0.10207913504558698,-0.19087185263648387
12.600999999998455,-0.07090123732375374,-0.2525323114368359
12.800999999998345,-0.04410788932639425,-0.32178831164578564
13.000999999998234,-0.02761049013662334,-0.4014312808227956
13.200999999998123,-0.015484660544217684,-0.49819140726286265
13.400999999998012,-0.007496486235152,-0.6065857803426616
13.600999999997901,-0.01584905906563943,-0.696495857835409
13.80099999999779,-0.03513577917802236,-0.755906367735722
14.00099999999768,-0.04795521673084583,-0.7877323033200923
14.200999999997569,-0.043602182606219356,-0.7869676816449882
14.400999999997458,-0.02189733957041077,-0.7837688303329816
14.600999999997347,0.015170056270388742,-0.7926801978868748
14.800999999997236,0.06229535044693285,-0.8102279098379969
15.000999999997125,0.1263499237350068,-0.8422304504805129
15.200999999997014,0.1799148831068678,-0.886290086389329
15.400999999996904,0.2072837094470164,-0.9282274805740001
15.600999999996793,0.21183914026667156,-0.9571890699311297
15.800999999996682,0.18956649541658013,-0.966696890499373
16.000999999996573,0.14773682269788205,-0.9575560389846867
16.200999999996817,0.11547202870114849,-0.923994620584987
16.40099999999706,0.10974672593028419,-0.8840761945634402
16.600999999997306,0.11744713031196125,-0.8238997586421536
16.80099999999755,0.14517286564004384,-0.7736863666879495
17.000999999997795,0.1943424757432744,-0.7480682876973767
17.20099999999804,0.25556722433219026,-0.7334689558300961
17.400999999998284,0.2973417035775349,-0.7384906351370222
17.60099999999853,0.32339422795544215,-0.7825737515850448
17.800999999998773,0.33232336421607817,-0.8511699567973371
18.000999999999017,0.3142107283295556,-0.9003006146926332
18.20099999999926,0.2825747730658123,-0.9274610227880687
18.400999999999506,0.25780590794856123,-0.9327913218818792
18.60099999999975,0.25298894203622535,-0.906782866815701
18.799999999999994,0.2724907899493701,-0.8684032889937648
19.000000000000238,0.3132358674598454,-0.8486342635199796
19.200000000000482,0.36390688056059367,-0.8594207063493062
19.400000000000727,0.3939896530254416,-0.8870854194206291
19.60000000000097,0.4127003650918515,-0.9330665832833307
19.800000000001216,0.4111817698837128,-0.986846005045585
20.00000000000146,0.3964589509513814,-1.0344340355368182
