Time (s),X (m),Y (m)
0.001,0.0008115346074009382,-0.0008446836120385868
0.20000000000000015,0.0009378220671947449,0.00167151393151435
0.4000000000000003,0.007445706037138977,-0.010764845016839015
0.6000000000000004,0.02070391319883237,-0.02640905145241895
0.8000000000000006,0.044662455425556476,-0.0275596512048999
1.0000000000000007,0.07184282452671369,-0.05707084185376248
1.2009999999999785,0.09668096590993255,-0.10398800244596167
1.4009999999999565,0.11691219815444612,-0.1533706064485532
1.6009999999999345,0.12985864788868257,-0.20919685378290334
1.8009999999999124,0.11457322001743987,-0.2611740917003061
2.0009999999998906,0.08631375471637132,-0.30518291867430103
2.2009999999998686,0.05878626184001512,-0.35117313259845273
2.4009999999998466,0.025697964696923085,-0.38884089899946467
2.6009999999998246,-0.013092320681566367,-0.4073970770729224
2.8009999999998025,-0.0558076078328614,-0.38495450863590225
3.0009999999997805,-0.1048341419363655,-0.34973229200902883
3.2009999999997585,-0.15046459695136152,-0.29225631677320546
3.4009999999997365,-0.18569062101701553,-0.228598533285079
3.6009999999997144,-0.2205927170094784,-0.1771258503256145
3.8009999999996924,-0.24437354707401257,-0.13027496754127135
4.000999999999671,-0.2414491677524104,-0.07722263897331372
4.200999999999738,-0.2054363936773905,-0.023105340332678956
4.400999999999804,-0.14728592017464184,0.018887656666847875
4.600999999999871,-0.08210118891567482,0.03809960826742044
4.800999999999938,-0.015473476502345375,0.05656514789566153
5.000000000000004,0.05611885337632937,0.06161978924369997
5.200000000000071,0.12457340714752382,0.04693320266663742
5.400000000000138,0.19001053674246116,0.023762041582797162
5.600000000000205,0.24826054229061026,-0.018396555386887437
5.800000000000272,0.2913879057567825,-0.06992042225396472
6.000000000000338,0.3357300841119638,-0.11785350539687628
6.200000000000405,0.3750121456914248,-0.1611877633884835
6.400000000000472,0.3826464378873296,-0.2141271606081363
6.600000000000539,0.3401092906057734,-0.2662448237366717
6.800000000000606,0.2837114049734349,-0.3006221909919554
7.000000000000672,0.22245451331377264,-0.313270579527818
7.200000000000739,0.16477717278402437,-0.31766459491986265
7.400000000000806,0.10339104239182853,-0.30213206506644175
7.600000000000873,0.051935013306457556,-0.2574151063496595
7.8000000000009395,0.03220068397198552,-0.1954390302812339
8.000000000001005,0.02703740297862803,-0.12888989755493865
8.200000000000895,0.0401889712018459,-0.06364239535074048
8.400000000000784,0.08827062493255607,-0.016772154726344322
8.600000000000673,0.14531473470274092,0.01058168556678615
8.800000000000562,0.20413048540089512,0.005626563165382546
9.000000000000451,0.2633669189955248,-0.018169970845860115
9.20000000000034,0.3100934255063719,-0.06994038430529048
9.40000000000023,0.33501291164338437,-0.13709697828691444
9.600000000000119,0.34663473872388756,-0.2047885501409951
9.800000000000008,0.36257834059322774,-0.27651111723687627
10.000999999999896,0.3576958843530235,-0.3381204469737805
10.200999999999786,0.33545480068022265,-0.3792726036136947
10.400999999999675,0.2963089050745126,-0.40955947980073454
10.600999999999564,0.25139988908348265,-0.4374500084730376
10.800999999999453,0.19757115417282017,-0.4443272678128355
11.000999999999342,0.14215549857956014,-0.430157012516927
11.200999999999231,0.08897836670033323,-0.3932446507312659
11.40099999999912,0.04150831410308392,-0.3450361414056649
11.60099999999901,0.0022319692882223656,-0.29039355197228306
11.800999999998899,-0.017246532942954005,-0.22580217945000694
12.000999999998788,-0.006683682058529973,-0.17433672908377532
12.200999999998677,0.021866725820750634,-0.14782951384832102
12.400999999998566,0.06299532177872665,-0.13277621166625853
12.600999999998455,0.10082694633875883,-0.1409986940993433
12.800999999998345,0.1206497162259691,-0.172710211941744
13.000999999998234,0.11484588298298398,-0.2121353618747478
13.200999999998123,0.093417050759828,-0.248594129962629
13.400999999998012,0.05364520147377044,-0.28339542958130337
13.600999999997901,0.00934486815125459,-0.3098831286461907
13.80099999999779,-0.04241267114944279,-0.3086156705318614
14.00099999999768,-0.09371693396823878,-0.2866234038606991
14.200999999997569,-0.13961847765857988,-0.2506090919902539
14.400999999997458,-0.18175746261533404,-0.20995071554064518
14.600999999997347,-0.2033659281211423,-0.15833925235190602
14.800999999997236,-0.21080815105709175,-0.10556590681210691
15.000999999997125,-0.20343656702433152,-0.05474557179857923
15.200999999997014,-0.17541482694237498,-0.040768094360049745
15.400999999996904,-0.1431229424556248,-0.05878676914599722
15.600999999996793,-0.11174001064740981,-0.09977850101975631
15.800999999996682,-0.08218327262374599,-0.15298504211579037
16.000999999996573,-0.06542044367279519,-0.22648169963897513
16.200999999996817,-0.06190833650834438,-0.30675469904757946
16.40099999999706,-0.06179269791618924,-0.37856140770655183
16.600999999997306,-0.07872193648753331,-0.44827098146705774
16.80099999999755,-0.1130266689948759,-0.5176551016394302
17.000999999997795,-0.15343940229739905,-0.5738448333618693
17.20099999999804,-0.20934429801562726,-0.6029195319349553
17.400999999998284,-0.2757471959174442,-0.6158936880533282
17.60099999999853,-0.3380562241257082,-0.6295685866731573
17.800999999998773,-0.39926300189857356,-0.6246412700749987
18.000999999999017,-0.44877057044513013,-0.605238202303802
18.20099999999926,-0.4583564932794259,-0.5765953710844481
18.400999999999506,-0.4281150552739742,-0.536641016361332
18.60099999999975,-0.38151996249353015,-0.49940622759585085
18.799999999999994,-0.32432171179727093,-0.4618489805472804
19.000000000000238,-0.25254757920106646,-0.43563228298019957
19.200000000000482,-0.18489189277966248,-0.411114456953591
19.400000000000727,-0.11835185692512874,-0.41919551818266876
19.60000000000097,-0.053774672766599245,-0.4493322086965213
19.800000000001216,-0.006934593985517465,-0.4963756849336147
20.00000000000146,0.022257437636868653,-0.5470955514596739
