Time (s),X (m),Y (m)
0.001,-0.0002955033697106609,0.0008930179339548111
0.20000000000000015,0.003307347077832502,-0.0011920962712150692
0.4000000000000003,0.011242061281488663,-0.008606599657178705
0.6000000000000004,0.030390567315271927,-0.021942062214795926
0.8000000000000006,0.05423055593072231,-0.029331218992355974
1.0000000000000007,0.08238264301319358,-0.0373928259459176
1.2009999999999785,0.11727526986862787,-0.06419084154482647
1.4009999999999565,0.14900897021261367,-0.11606873361678025
1.6009999999999345,0.1777027418747827,-0.17701229219197795
1.8009999999999124,0.20333284060471607,-0.23115629818042954
2.0009999999998906,0.2297781016437539,-0.2848991937859621
2.2009999999998686,0.2429323915954707,-0.34021234840065745
2.4009999999998466,0.2436410401601957,-0.39580261443781123
2.6009999999998246,0.23270755662638082,-0.44869936461982723
2.8009999999998025,0.20931209354700037,-0.5051597064436468
3.0009999999997805,0.1708827097644814,-0.5565231683679461
3.2009999999997585,0.12769979934018263,-0.5877040745050112
3.4009999999997365,0.07918134148247093,-0.5965523708685285
3.6009999999997144,0.0305471077063912,-0.5860956287292194
3.8009999999996924,-0.014566829943210421,-0.5374712220510862
4.000999999999671,-0.05880482034630427,-0.48735558337692114
4.200999999999738,-0.08844741192307902,-0.42321648021011893
4.400999999999804,-0.11241646037292563,-0.3536477142703561
4.600999999999871,-0.13480019742991078,-0.2927527306804403
4.800999999999938,-0.14011528716263888,-0.23252958105348723
5.000000000000004,-0.13137488807084333,-0.17477133536382639
5.200000000000071,-0.11478665736155624,-0.1150528614052789
5.400000000000138,-0.09227190327352507,-0.05742587431150686
5.600000000000205,-0.04021460576221583,-0.015317553694587399
5.800000000000272,0.02454517572935975,0.018492694074351362
6.000000000000338,0.08969802924966704,0.04345958732484545
6.200000000000405,0.15778099396035225,0.05689362865612677
6.400000000000472,0.22523654310591887,0.04857410769524011
6.600000000000539,0.2921655123283355,0.028314357263984676
6.800000000000606,0.3540744129302684,-0.007529151475235133
7.000000000000672,0.4051613862392664,-0.057238220111766755
7.200000000000739,0.44699074505145125,-0.11047041223414014
7.400000000000806,0.47306218972756064,-0.1684413656739311
7.600000000000873,0.48661260282289437,-0.22956872761674424
7.8000000000009395,0.4796493079438476,-0.2952706803010699
8.000000000001005,0.4454370512121538,-0.3571594902006213
8.200000000000895,0.3914860768392815,-0.4095376464576387
8.400000000000784,0.3307287840515355,-0.45595723737649835
8.600000000000673,0.2632513561294014,-0.48812985020220245
8.800000000000562,0.19090080484506655,-0.5063582827093196
9.000000000000451,0.12166666422068466,-0.5107611384394588
9.20000000000034,0.05485064979677896,-0.5228629277247135
9.40000000000023,-0.015830260191064052,-0.5221364444933903
9.600000000000119,-0.08397277403079773,-0.5122797412368844
9.800000000000008,-0.1355305252026457,-0.4771912740653874
10.000999999999896,-0.17051575022080118,-0.4294178726845441
10.200999999999786,-0.18273452809883325,-0.37793051361137686
10.400999999999675,-0.1717201792417916,-0.3239982991403198
10.600999999999564,-0.15201358606407234,-0.26931719971147383
10.800999999999453,-0.11861588920152809,-0.2254540971919098
11.000999999999342,-0.07657997439789341,-0.18084516082075483
11.200999999999231,-0.029824922848835814,-0.14355212768215153
11.40099999999912,0.018842116560548787,-0.10988376731294269
11.60099999999901,0.07502571196914455,-0.10144857330971851
11.800999999998899,0.13616300696420391,-0.1016953674733903
12.000999999998788,0.19178888493356328,-0.13327742923832622
12.200999999998677,0.24129931266607646,-0.1793110766407243
12.400999999998566,0.280739616822966,-0.232251758929545
12.600999999998455,0.30801299299673796,-0.28699427430662583
12.800999999998345,0.31912766189325287,-0.34342970472639944
13.000999999998234,0.3014917271369978,-0.40196617869456197
13.200999999998123,0.26510914053745377,-0.46143652683691966
13.400999999998012,0.21880137805936423,-0.5111171294224263
13.600999999997901,0.16670827120996973,-0.5455655384902283
13.80099999999779,0.10581992856336624,-0.5633509713014159
14.00099999999768,0.04331946859779926,-0.5616341522187441
14.200999999997569,-0.017904094425930047,-0.5315070057832904
14.400999999997458,-0.05779515124347015,-0.47496264158037504
14.600999999997347,-0.07963705951407804,-0.41436835057705634
14.800999999997236,-0.06230364210689513,-0.35066993209497427
15.000999999997125,-0.024354489008800023,-0.28403633460539746
15.200999999997014,-0.005879222570359742,-0.2208222806815932
15.400999999996904,0.016981891627207465,-0.15770835744822936
15.600999999996793,0.06280226849596462,-0.11082615750465234
15.800999999996682,0.11643373166952728,-0.0722162210673909
16.000999999996573,0.17809311410453288,-0.05889140518735168
16.200999999996817,0.24254287512466322,-0.07325631579083704
16.40099999999706,0.30244683264677097,-0.09457579183449727
16.600999999997306,0.3486740729806485,-0.13171493974260454
16.80099999999755,0.38451951382510385,-0.18188218961297592
17.000999999997795,0.4086792294933128,-0.23918741910771307
17.20099999999804,0.4101394963386031,-0.29971260706358804
17.400999999998284,0.3821242001886661,-0.35698085134795327
17.60099999999853,0.3346152511789236,-0.40485220155620216
17.800999999998773,0.28457078606752273,-0.4488397746368946
18.000999999999017,0.23373342925603466,-0.4872371962595173
18.20099999999926,0.18330471668820106,-0.5237439070860168
18.400999999999506,0.12938125456271762,-0.5475467301880917
18.60099999999975,0.07013335705226979,-0.5531872703206565
18.799999999999994,0.00417327357664713,-0.5292618792583899
19.000000000000238,-0.06028015555142902,-0.4867460319698736
19.200000000000482,-0.11216505208614211,-0.44704987603335433
19.400000000000727,-0.15908272613823052,-0.3993470715415781
19.60000000000097,-0.19445520024706228,-0.33447639391340994
19.800000000001216,-0.2122138205269467,-0.26154793574305013
20.00000000000146,-0.22032203383612614,-0.18986933055538108
