Time (s),X (m),Y (m)
0.001,0.0008115346074009382,0.0008446836120385872
0.20000000000000015,0.0016062066979269224,0.00016802834178977617
0.4000000000000003,0.0022265634330868437,-0.0034612208770125473
0.6000000000000004,0.00772215184131781,0.0010707238617774183
0.8000000000000006,0.014959887267071143,0.0014741819899896885
1.0000000000000007,0.01854585361679577,-0.0033562418409322677
1.2009999999999785,0.02765989502400747,0.0018230264547866874
1.4009999999999565,0.03857093111794789,0.0004972583846189544
1.6009999999999345,0.050721259792353555,0.003794034390077801
1.8009999999999124,0.06247730283774457,0.00950103143387543
2.0009999999998906,0.07546191564347379,0.017698945186653436
2.2009999999998686,0.08637703569628008,0.02208306362489676
2.4009999999998466,0.09792241536653513,0.032253875377748195
2.6009999999998246,0.10975281297299885,0.04131257456707348
2.8009999999998025,0.1235313434072416,0.043721720734380874
3.0009999999997805,0.14022217447577787,0.05530140843573222
3.2009999999997585,0.1575411023223817,0.057296253200757576
3.4009999999997365,0.17054958833813702,0.05843082615631535
3.6009999999997144,0.187178811451675,0.058159675375834344
3.8009999999996924,0.20466217748740662,0.054372713731015265
4.000999999999671,0.2202272982757161,0.05751807214325598
4.200999999999738,0.2277594499479688,0.0632798177656111
4.400999999999804,0.23715571724741122,0.06700151527664014
4.600999999999871,0.24490955650391197,0.08052271647042666
4.800999999999938,0.25562220027879445,0.09935627186648233
5.000000000000004,0.2683075942956445,0.11298862960028289
5.200000000000071,0.27849336756999354,0.12361037314879432
5.400000000000138,0.2915226778341882,0.12608028729018775
5.600000000000205,0.30310765152573294,0.13804276856415099
5.800000000000272,0.31596781686114345,0.14647825610438656
6.000000000000338,0.32761381857825533,0.16342435950274262
6.200000000000405,0.34106127564601396,0.1736249476494975
6.400000000000472,0.35715027767838925,0.18622511641138997
6.600000000000539,0.37170467129759904,0.19321827721398083
6.800000000000606,0.3829165637682062,0.19845837708112937
7.000000000000672,0.39355605576427,0.21138344120468155
7.200000000000739,0.40733615222088465,0.2231230346568549
7.400000000000806,0.4182457915756088,0.2375389898412837
7.600000000000873,0.43046821657689727,0.24199233378437318
7.8000000000009395,0.4386210741864914,0.25595569976845906
8.000000000001005,0.45366933107349716,0.27103325556169233
8.200000000000895,0.463912340080233,0.28883105365985046
8.400000000000784,0.47209300576280794,0.3042634786357706
8.600000000000673,0.4795420805567313,0.31199391927503745
8.800000000000562,0.48301568152968594,0.3226878208006342
9.000000000000451,0.4926726320325494,0.33449431089321874
9.20000000000034,0.5033108955965204,0.3456860740464526
9.40000000000023,0.5152693391334026,0.36406473267393885
9.600000000000119,0.5299787263164423,0.3768850816915714
9.800000000000008,0.5402068168501063,0.38936299667091157
10.000999999999896,0.5461996896187411,0.40707462360964763
10.200999999999786,0.5544558852655086,0.4280892172271365
10.400999999999675,0.5617548181859968,0.4380432054943724
10.600999999999564,0.570494526364047,0.4520378714964192
10.800999999999453,0.5802656954144088,0.4638437292052806
11.000999999999342,0.5891098765571307,0.47308121365203903
11.200999999999231,0.5937114312540506,0.4868578444723422
11.40099999999912,0.5939987704797209,0.5061865357077849
11.60099999999901,0.5960739686404024,0.526948299711761
11.800999999998899,0.5993561129096403,0.5457100211080551
12.000999999998788,0.6088777602187332,0.5549350425194238
12.200999999998677,0.6118437145161363,0.5701990280336009
12.400999999998566,0.6161662719960305,0.5835750352957384
12.600999999998455,0.6196036934126834,0.6060592976007417
12.800999999998345,0.6218474851279796,0.6293692272277364
13.000999999998234,0.6261340397950583,0.647245524117143
13.200999999998123,0.6292942927951212,0.6635804529649659
13.400999999998012,0.6338960301513112,0.6829625176062626
13.600999999997901,0.6363114626279093,0.7021230134361764
13.80099999999779,0.6385036138892335,0.7186438027461849
14.00099999999768,0.6425784522226645,0.7344719421691952
14.200999999997569,0.6428997204604174,0.7507616259608776
14.400999999997458,0.6375330589319836,0.7728566452558281
14.600999999997347,0.638033060157492,0.7909825156664374
14.800999999997236,0.6396250862994727,0.8144030967836
15.000999999997125,0.634865686409763,0.8338975930215348
15.200999999997014,0.6313119583856667,0.853842234853381
15.400999999996904,0.6228081157641056,0.8712584593276032
15.600999999996793,0.6146273437415144,0.890371707186492
15.800999999996682,0.6050778835658731,0.9091763078808748
16.000999999996573,0.5898841708710787,0.9296704322403849
16.200999999996817,0.5797130792514917,0.95114175545269
16.40099999999706,0.5703559459434452,0.9671770817025329
16.600999999997306,0.559729509819393,0.9830515959567974
16.80099999999755,0.5482589508139657,1.0005319297034256
17.000999999997795,0.5384308961023454,1.014100476770584
17.20099999999804,0.5233556899670232,1.0284956649099963
17.400999999998284,0.5083068828362372,1.0443249159529973
17.60099999999853,0.49994055552397837,1.0573167467480122
17.800999999998773,0.4945362057810584,1.0709167486038307
18.000999999999017,0.4855175922878865,1.0856764002737818
18.20099999999926,0.4727757227557604,1.105719042619782
18.400999999999506,0.45396441382736546,1.1218260139975187
18.60099999999975,0.4390912083583783,1.1369836869303507
18.799999999999994,0.4261439759513686,1.1524325231270198
19.000000000000238,0.41124353569957356,1.1619871385549776
19.200000000000482,0.39933857643668946,1.1720325889689176
19.400000000000727,0.38604460608956886,1.1859764065243628
19.60000000000097,0.37659174509390164,1.196283197775187
19.800000000001216,0.3641507315024317,1.2087313996768838
20.00000000000146,0.3535536079824939,1.2178284483135362
