Time (s),X (m),Y (m)
0.001,-0.00013259955118837574,0.0009689812320744445
0.20000000000000015,0.0018121169898373914,-0.002095145188408555
0.4000000000000003,0.01014895230208221,-0.013109482301164843
0.6000000000000004,0.017192734927704158,-0.0151303433409451
0.8000000000000006,0.02661401542924693,-0.027395563653855547
1.0000000000000007,0.03849094643091815,-0.036445017547050776
1.2009999999999785,0.05194761389027313,-0.04262891658018984
1.4009999999999565,0.05773447062320503,-0.04801307628088204
1.6009999999999345,0.0659001184136282,-0.046622292356838006
1.8009999999999124,0.0768112157647593,-0.05797826587224303
2.0009999999998906,0.08830017566353637,-0.05548735706397108
2.2009999999998686,0.1024742404926373,-0.06538509522585516
2.4009999999998466,0.1209097585690165,-0.07012142280640549
2.6009999999998246,0.13843440971486712,-0.07267901572526636
2.8009999999998025,0.15954532445826247,-0.06702366909527505
3.0009999999997805,0.18533143923421908,-0.06234348067031098
3.2009999999997585,0.2075140665759097,-0.06553147112886587
3.4009999999997365,0.22789624557554056,-0.07281656320290797
3.6009999999997144,0.23977867393234753,-0.08469290022666011
3.8009999999996924,0.25289842435715687,-0.09275002313006495
4.000999999999671,0.27124495474693844,-0.09641148393201578
4.200999999999738,0.28969878714865255,-0.09817745105571196
4.400999999999804,0.30664715032756595,-0.11137788339617748
4.600999999999871,0.31889762744452743,-0.1261661883099495
4.800999999999938,0.33404012607947076,-0.12654237193679682
5.000000000000004,0.3492129324708674,-0.13864667228882854
5.200000000000071,0.3632427613871905,-0.14994257973329714
5.400000000000138,0.3737178031324888,-0.165177764791414
5.600000000000205,0.3824761243769308,-0.16972048375118373
5.800000000000272,0.39583227726287107,-0.1809934688749113
6.000000000000338,0.4039579577124501,-0.19470437822869305
6.200000000000405,0.41635921743514387,-0.20049462479460273
6.400000000000472,0.4284598152580551,-0.2158060778646073
6.600000000000539,0.435090129314529,-0.22568156784129004
6.800000000000606,0.44879112683081235,-0.2324660611098187
7.000000000000672,0.46363784768076755,-0.23809704714436322
7.200000000000739,0.4781782594535974,-0.247341880763003
7.400000000000806,0.49292360268206853,-0.25926187834036635
7.600000000000873,0.5053520471078825,-0.276825737629776
7.8000000000009395,0.5202716768272763,-0.2891540520289268
8.000000000001005,0.5374306658892531,-0.2978178510409632
8.200000000000895,0.5493873796728145,-0.31393723554247444
8.400000000000784,0.5533012997261463,-0.3377741157877147
8.600000000000673,0.566584922096288,-0.3574157591753896
8.800000000000562,0.5836096035112023,-0.37521579450438625
9.000000000000451,0.5881573857251501,-0.40227714115110896
9.20000000000034,0.5939407353710227,-0.4208454404517662
9.40000000000023,0.6015509486913219,-0.4409756617657986
9.600000000000119,0.61794074025133,-0.4487659568329182
9.800000000000008,0.636576102875531,-0.4514522225317229
10.000999999999896,0.6576867610579811,-0.4595908330305331
10.200999999999786,0.6697935927826273,-0.4720950405610099
10.400999999999675,0.6823362562353117,-0.4761838826068547
10.600999999999564,0.6985138558952287,-0.4914311041964132
10.800999999999453,0.7100739340440654,-0.4985331836852078
11.000999999999342,0.7187374242382729,-0.5079778501765101
11.200999999999231,0.7348358016018387,-0.5189099697443195
11.40099999999912,0.7534792560725343,-0.5317956136428729
11.60099999999901,0.759973403568279,-0.5440780706380232
11.800999999998899,0.7673121281779528,-0.5493587908336105
12.000999999998788,0.7803899693411144,-0.559595275972695
12.200999999998677,0.793947912667072,-0.5729835098240065
12.400999999998566,0.8038072469561738,-0.5909955214834925
12.600999999998455,0.8110886669785682,-0.6029960659682225
12.800999999998345,0.8154609051911427,-0.6210671238919795
13.000999999998234,0.8308264817332971,-0.6402914369554152
13.200999999998123,0.8446170453714281,-0.6520988570668791
13.400999999998012,0.8536382684428674,-0.6668192927177576
13.600999999997901,0.859124831949606,-0.6854708664888484
13.80099999999779,0.8760856317231248,-0.6939784072305841
14.00099999999768,0.8947956334407893,-0.7142506429547327
14.200999999997569,0.9121928178970586,-0.7215307660808898
14.400999999997458,0.9257316530605799,-0.7392728166223507
14.600999999997347,0.9340673817394258,-0.7552236732905926
14.800999999997236,0.943647353718671,-0.7714886688133238
15.000999999997125,0.9516527385088974,-0.7889171446948325
15.200999999997014,0.9622468306597831,-0.800387856107267
15.400999999996904,0.9690791221355735,-0.8106274828718868
15.600999999996793,0.9814197853242079,-0.8194658327659623
15.800999999996682,0.9971731783283738,-0.8319736312708177
16.000999999996573,1.0135106032340764,-0.848277736146873
16.200999999996817,1.0258121055595066,-0.8688190051979326
16.40099999999706,1.0440238844413805,-0.8808187213733281
16.600999999997306,1.0596263104349881,-0.8945926221384256
16.80099999999755,1.0724383954660628,-0.9092870674848685
17.000999999997795,1.086511206547508,-0.9201191500923704
17.20099999999804,1.1004048595860587,-0.9341684556546391
17.400999999998284,1.107846016596484,-0.9530717371018103
17.60099999999853,1.1253268986591798,-0.971158840845227
17.800999999998773,1.1413026106240713,-0.9803034855309327
18.000999999999017,1.1600386481973344,-0.9876128392122505
18.20099999999926,1.1661150818386592,-0.9982946613558086
18.400999999999506,1.178577150235173,-1.006624745909084
18.60099999999975,1.1959161816582606,-1.0140853392513705
18.799999999999994,1.2099817986781474,-1.0200305909362861
19.000000000000238,1.2212956651362719,-1.0309979807812195
19.200000000000482,1.2374434918582606,-1.0421766752180113
19.400000000000727,1.2498305976314943,-1.0599524528749042
19.60000000000097,1.2570615311360496,-1.0827432988236299
19.800000000001216,1.2720555950415344,-1.0963254282977988
20.00000000000146,1.2811519301780203,-1.1114892299395838
