Time (s),X (m),Y (m)
0.001,0.0008115346074009382,-0.0008446836120385868
0.20000000000000015,0.0026927727961666356,-0.0012877187741402651
0.4000000000000003,0.017604290315707833,-0.00654189905199078
0.6000000000000004,0.03619622244607288,-0.024493804267570456
0.8000000000000006,0.05857921526956233,-0.05086967487022926
1.0000000000000007,0.08332513903354721,-0.07523105958611184
1.2009999999999785,0.10635421899051155,-0.11276759973600788
1.4009999999999565,0.12449885141203564,-0.17219841002753064
1.6009999999999345,0.13379962633067266,-0.23447016356283695
1.8009999999999124,0.13124159000179197,-0.294399665943013
2.0009999999998906,0.10574086240945363,-0.3515830984785054
2.2009999999998686,0.07938392697042669,-0.40326707210867974
2.4009999999998466,0.03586694450336531,-0.42553070150932315
2.6009999999998246,-0.013952221844200544,-0.43253511123345856
2.8009999999998025,-0.06474966340290932,-0.42562285271243466
3.0009999999997805,-0.11172402228926569,-0.4017531832344943
3.2009999999997585,-0.15004047329921777,-0.37091304058036356
3.4009999999997365,-0.16920483017133772,-0.33318461631085217
3.6009999999997144,-0.1838747504952093,-0.29081481626060485
3.8009999999996924,-0.17352750435242853,-0.2498923770654606
4.000999999999671,-0.13696907962670535,-0.21706852174745567
4.200999999999738,-0.0901295503422889,-0.189331159670799
4.400999999999804,-0.04041775109648823,-0.16727802534049852
4.600999999999871,0.011325647578359884,-0.1732854104808179
4.800999999999938,0.06270576778679526,-0.17113048167195088
5.000000000000004,0.1100655141545813,-0.18434403789771361
5.200000000000071,0.148274543810722,-0.21799126087427673
5.400000000000138,0.16194486476591957,-0.2616985865292443
5.600000000000205,0.14717880580164153,-0.30266004144941316
5.800000000000272,0.11530666989123668,-0.33650043334707946
6.000000000000338,0.07270552599897195,-0.3564069689036448
6.200000000000405,0.02480086566878914,-0.3656820501146224
6.400000000000472,-0.022631822502254702,-0.35104320883077
6.600000000000539,-0.0703143485643832,-0.3122104957700027
6.800000000000606,-0.11024210120053553,-0.261106630152917
7.000000000000672,-0.14208526742785085,-0.19933722262880108
7.200000000000739,-0.15686743702228942,-0.13537904678632917
7.400000000000806,-0.1560516762082509,-0.0780068215542697
7.600000000000873,-0.13102033052465142,-0.015916102528186767
7.8000000000009395,-0.08115942611005016,0.04658077013458136
8.000000000001005,-0.023391253698532764,0.0946675196883268
8.200000000000895,0.03201235172378675,0.13618075102890354
8.400000000000784,0.08509962293021445,0.15583504575685733
8.600000000000673,0.1384667799675772,0.14075510805781494
8.800000000000562,0.1933856714253394,0.11387466008523296
9.000000000000451,0.23177260640827074,0.04635233199266737
9.20000000000034,0.26097102066716515,-0.024142311931249594
9.40000000000023,0.28953103245436873,-0.09899117551302056
9.600000000000119,0.31403174754448854,-0.1740113634018568
9.800000000000008,0.32614626615160236,-0.2494642520937922
10.000999999999896,0.3280554389723377,-0.3224689686531108
10.200999999999786,0.3226658194304389,-0.3927068771898956
10.400999999999675,0.30248731857269745,-0.4549794930483944
10.600999999999564,0.261972074151997,-0.5069780625421598
10.800999999999453,0.21208821648048296,-0.5467919139975724
11.000999999999342,0.1615186213707273,-0.5714002862680513
11.200999999999231,0.10719940109022132,-0.5794704008808897
11.40099999999912,0.05118500118490093,-0.5619985599503715
11.60099999999901,0.006204399276711318,-0.528361504981662
11.800999999998899,-0.012646598084957618,-0.48306028857198063
12.000999999998788,0.0005193166013003783,-0.437551502378225
12.200999999998677,0.030037096818106297,-0.39989304713602375
12.400999999998566,0.07372956535883164,-0.37338193901194805
12.600999999998455,0.13104027109830604,-0.36221696428770345
12.800999999998345,0.19343039483744245,-0.36967100500552214
13.000999999998234,0.25774582104568267,-0.3891448822415775
13.200999999998123,0.3096574481700072,-0.4287254811055103
13.400999999998012,0.34652738841037445,-0.486245932685925
13.600999999997901,0.3689675676145749,-0.5496844269225423
13.80099999999779,0.3712713272460523,-0.6130540065240208
14.00099999999768,0.342611550602902,-0.6749616667367786
14.200999999997569,0.3100571730781329,-0.7274061694065508
14.400999999997458,0.25712048111684715,-0.7606559660453156
14.600999999997347,0.1954000210946778,-0.785079793451715
14.800999999997236,0.13224725445195712,-0.7901054826231619
15.000999999997125,0.07632726814771078,-0.8013699995602047
15.200999999997014,0.020615499901925197,-0.7977844770981639
15.400999999996904,-0.03578882871202546,-0.7677794706272941
15.600999999996793,-0.07686843236147112,-0.709198308707766
15.800999999996682,-0.10236730200509384,-0.642233097900681
16.000999999996573,-0.10196067035047672,-0.5703663933552864
16.200999999996817,-0.088331706350625,-0.505653985204828
16.40099999999706,-0.05187524776671476,-0.4464607369080291
16.600999999997306,0.0035509916475872923,-0.4071644606043328
16.80099999999755,0.07075975877915087,-0.4000416850376787
17.000999999997795,0.13667736718965878,-0.4236540741450919
17.20099999999804,0.19097581480664197,-0.4691262057942835
17.400999999998284,0.23036205980929864,-0.5250915264998178
17.60099999999853,0.24598883206545252,-0.5943232022856199
17.800999999998773,0.2224478568125614,-0.6601446292383449
18.000999999999017,0.17925715754370378,-0.7198919255076249
18.20099999999926,0.12783854250674048,-0.7706816011016248
18.400999999999506,0.07064663275392437,-0.8016811053516469
18.60099999999975,0.014242615927160649,-0.8068254013904581
18.799999999999994,-0.048462352303950185,-0.8219309055517884
19.000000000000238,-0.11219108756074438,-0.8060398612703765
19.200000000000482,-0.15205621107179706,-0.7552883817989539
19.400000000000727,-0.17882984716194109,-0.6974799055440919
19.60000000000097,-0.2007803990566672,-0.6342255547486668
19.800000000001216,-0.21910327000029134,-0.562590217948038
20.00000000000146,-0.2368909872829278,-0.4788764516805081
