Time (s),X (m),Y (m)
0.001,0.0006558713247593165,0.0009345558501746678
0.20000000000000015,4.424545759263265e-05,-0.003993571573173701
0.4000000000000003,0.007084899941665018,-0.0006508644581942937
0.6000000000000004,0.016350159753788562,-0.0005980730967120513
0.8000000000000006,0.02784434764595242,-0.0029281090267470563
1.0000000000000007,0.044907286636023586,0.00953810952944591
1.2009999999999785,0.059270585400383866,0.017743279926098504
1.4009999999999565,0.07259026212643156,0.018639399267697667
1.6009999999999345,0.09663921084160441,0.022806617083527464
1.8009999999999124,0.11937275237701601,0.022208178822330747
2.0009999999998906,0.1431642235091374,0.021910478056836973
2.2009999999998686,0.1612038609253145,0.0073401074633489575
2.4009999999998466,0.1790626873467844,-0.0026108742945230236
2.6009999999998246,0.2035243577690709,-0.001117914302338679
2.8009999999998025,0.23250259996792547,-0.0017381688033810277
3.0009999999997805,0.2501986308678679,-0.013257836199998043
3.2009999999997585,0.26829548081546006,-0.020368540303936165
3.4009999999997365,0.29133162329098383,-0.02124601871806858
3.6009999999997144,0.3139848736931628,-0.018436781834521253
3.8009999999996924,0.34211479570720676,-0.009467561581820435
4.000999999999671,0.3680807335798835,-0.0033383396224999184
4.200999999999738,0.39901745087657803,0.0047171212470186775
4.400999999999804,0.4221840406207849,0.004831281159907846
4.600999999999871,0.44943367366375053,0.0035413061955227015
4.800999999999938,0.47354089636949426,0.01305821734094288
5.000000000000004,0.5034319697291791,0.01765006199369537
5.200000000000071,0.5326083016374847,0.01657519545789935
5.400000000000138,0.559418277924842,0.01811444466142465
5.600000000000205,0.5893386920387697,0.020265161732400446
5.800000000000272,0.6165057017387465,0.020505575199473925
6.000000000000338,0.6450384524056495,0.019908904067547733
6.200000000000405,0.6741898825779169,0.021054891312706096
6.400000000000472,0.7018782358731801,0.02854629926556482
6.600000000000539,0.7291039441872781,0.042611064515911304
6.800000000000606,0.7565111799966637,0.05993095652237605
7.000000000000672,0.7862903193002145,0.06536886796998809
7.200000000000739,0.8122789570948914,0.07760732008109757
7.400000000000806,0.8365506709743286,0.09475846408400065
7.600000000000873,0.8595326290944992,0.12042282742495886
7.8000000000009395,0.884509335056625,0.14403747308230794
8.000000000001005,0.9074931301270582,0.166629575885376
8.200000000000895,0.93646797432983,0.17683515669849234
8.400000000000784,0.9642126220955017,0.18708652686613728
8.600000000000673,0.9958101004482115,0.19952377484705
8.800000000000562,1.025408991017485,0.21210120406228458
9.000000000000451,1.0503254901596568,0.22649110980215567
9.20000000000034,1.0759337152818895,0.24550308302228854
9.40000000000023,1.1036831760884074,0.2582615631805029
9.600000000000119,1.12919370205358,0.27923372064146385
9.800000000000008,1.1575261181552297,0.29562389402323974
10.000999999999896,1.1955448550622452,0.30217890856071006
10.200999999999786,1.2286597995436332,0.3177467656054828
10.400999999999675,1.2584880555167017,0.3452827728988499
10.600999999999564,1.293202771319187,0.3520367850461476
10.800999999999453,1.3238001137658857,0.36765668536028795
11.000999999999342,1.355589634081359,0.3829214586930798
11.200999999999231,1.3907053559545801,0.3923738847230029
11.40099999999912,1.420995404491241,0.4008734514139666
11.60099999999901,1.4494193838465848,0.4128679790293511
11.800999999998899,1.4789786024118836,0.4328435240506123
12.000999999998788,1.5077215756894207,0.4513407887799639
12.200999999998677,1.5370460111759734,0.4649982755733082
12.400999999998566,1.5701932010758037,0.47911154939637995
12.600999999998455,1.6088092299748904,0.4929100063117705
12.800999999998345,1.6396131090688384,0.49829775943326243
13.000999999998234,1.660966221591523,0.5150146974760323
13.200999999998123,1.6880224093668774,0.5307404783683513
13.400999999998012,1.7139318295069783,0.5410495058925051
13.600999999997901,1.736577491488425,0.5596549138090025
13.80099999999779,1.7684904590399726,0.567902908855365
14.00099999999768,1.7933045923103998,0.5759663217883004
14.200999999997569,1.8172043100445865,0.5757387744597003
14.400999999997458,1.8423182346780436,0.5892377582786865
14.600999999997347,1.8702588170479681,0.6062662151633492
14.800999999997236,1.892418300526457,0.6357291310566802
15.000999999997125,1.9136138018896698,0.6527085832178472
15.200999999997014,1.9386002528282191,0.674266026591102
15.400999999996904,1.9618413658680862,0.6952097245067026
15.600999999996793,1.9869386771084505,0.718245871369915
15.800999999996682,2.012687138684611,0.7418287941462827
16.000999999996573,2.038133100160806,0.7647261995513184
16.200999999996817,2.068838205213687,0.7861637258050658
16.40099999999706,2.1022860423701566,0.8064735970268729
16.600999999997306,2.1350024545687787,0.8338377492947704
16.80099999999755,2.165114487901252,0.8608334070888289
17.000999999997795,2.1929427656390414,0.8868115225082985
17.20099999999804,2.2204229309644203,0.905516618902479
17.400999999998284,2.2528743433594665,0.9218184546337777
17.60099999999853,2.278747236867126,0.9301545828363927
17.800999999998773,2.304163691826965,0.9410415910033579
18.000999999999017,2.3341731539350827,0.9578753667591005
18.20099999999926,2.36053171879976,0.9818771295748748
18.400999999999506,2.382982742155221,0.9959674685459949
18.60099999999975,2.407244361372898,1.0170209868085078
18.799999999999994,2.4295862354861906,1.0335443264544777
19.000000000000238,2.454222103271713,1.0608305007494434
19.200000000000482,2.4785308296100395,1.087949994181992
19.400000000000727,2.4966792378467044,1.1186551623072523
19.60000000000097,2.515356213856129,1.1451606714679237
19.800000000001216,2.532079726496324,1.173533391953162
20.00000000000146,2.5468028498735626,1.2033402059236338
