Time (s),X (m),Y (m)
0.001,0.0002200807748493132,-0.0010311682891199468
0.20000000000000015,0.0007065079314129988,-0.003561259036670996
0.4000000000000003,0.002063420771657396,-0.004173363070531608
0.6000000000000004,0.00469231777753742,-0.007967527978257113
0.8000000000000006,0.009645641028574861,-0.004590513620461361
1.0000000000000007,0.014733191443480561,0.0010278931736413185
1.2009999999999785,0.019294728223205347,0.007975628306952828
1.4009999999999565,0.023256732432098564,0.01816055277883411
1.6009999999999345,0.025617233472509587,0.02124571802882722
1.8009999999999124,0.02946473517078195,0.02065357731505161
2.0009999999998906,0.03292111859316971,0.023375182086044367
2.2009999999998686,0.03546565144443502,0.028854293548639456
2.4009999999998466,0.03973952972323708,0.030260793990182118
2.6009999999998246,0.04436142673850928,0.03336100460337546
2.8009999999998025,0.047436666840104794,0.03694290085650688
3.0009999999997805,0.05018012916746028,0.03916017454773329
3.2009999999997585,0.05623989017327955,0.04154977551909519
3.4009999999997365,0.06140041190423623,0.04586415297159617
3.6009999999997144,0.06485788642882652,0.049188512622629146
3.8009999999996924,0.06912575981208202,0.05203012573081351
4.000999999999671,0.07339174782242115,0.05243913684531044
4.200999999999738,0.08040021882983123,0.052340030069699194
4.400999999999804,0.08598792984613207,0.05613717989307583
4.600999999999871,0.09067374906216581,0.059408722215786886
4.800999999999938,0.09642782697714056,0.058458482931793565
5.000000000000004,0.10038736149540123,0.06210250845796672
5.200000000000071,0.10554477241755186,0.06227150599116099
5.400000000000138,0.10863723818847472,0.06541514902018965
5.600000000000205,0.11193356742593688,0.06902324396447374
5.800000000000272,0.11931011736286366,0.06812606638707845
6.000000000000338,0.12745046612869612,0.06804698420277404
6.200000000000405,0.1304254106307165,0.07529699827034193
6.400000000000472,0.1372637314457514,0.07629955593585226
6.600000000000539,0.1466365349886835,0.07659850352686003
6.800000000000606,0.1531323481774951,0.078628099333675
7.000000000000672,0.1578598462514589,0.08349133783344463
7.200000000000739,0.16148928165334678,0.08662870106129976
7.400000000000806,0.16674701076800633,0.08935660503083163
7.600000000000873,0.17072883050932852,0.09394409696197241
7.8000000000009395,0.17759659058942154,0.09701712718283279
8.000000000001005,0.1862864189527926,0.09958991476743488
8.200000000000895,0.19157424122434383,0.10216954353817415
8.400000000000784,0.1970093378928979,0.1036526737534774
8.600000000000673,0.198327986100854,0.10806321607041784
8.800000000000562,0.20176050478072452,0.1118392448271207
9.000000000000451,0.2043952635196737,0.11585219921201681
9.20000000000034,0.20843196904896708,0.12078419541967578
9.40000000000023,0.21002805021675314,0.12673353603257922
9.600000000000119,0.21162639248906764,0.13265039756698052
9.800000000000008,0.21457552995005133,0.13966289046734098
10.000999999999896,0.21749920423213573,0.14362036763784872
10.200999999999786,0.2231597485036353,0.14789339232956056
10.400999999999675,0.22502253972124775,0.15262795359053358
10.600999999999564,0.22810178025896577,0.15715386572481618
10.800999999999453,0.233986232741595,0.162082435227012
11.000999999999342,0.23403586793101094,0.16787318796301068
11.200999999999231,0.23631406819268233,0.17332823691557045
11.40099999999912,0.23903832563409702,0.17965735195372687
11.60099999999901,0.24102213534927724,0.18555233354856077
11.800999999998899,0.2438522384176222,0.19219604150530753
12.000999999998788,0.24637366247451684,0.19820307657674532
12.200999999998677,0.25296377038152584,0.20330828677106114
12.400999999998566,0.2534527824674971,0.2092015771426919
12.600999999998455,0.25090300472769084,0.21472071410123805
12.800999999998345,0.25314270214493645,0.22122027202653083
13.000999999998234,0.25360118767690754,0.2268868378230514
13.200999999998123,0.2541460362753651,0.23296064419138923
13.400999999998012,0.253031537819221,0.23693370505212633
13.600999999997901,0.25420861390787214,0.24238402216971808
13.80099999999779,0.25559030943405214,0.24788582216345362
14.00099999999768,0.2506986960144178,0.25208344944086275
14.200999999997569,0.2535475505811772,0.25698924691430514
14.400999999997458,0.25779681610892885,0.2629008183885567
14.600999999997347,0.2545113222027233,0.2684557867644503
14.800999999997236,0.2536314130556562,0.27309460140324454
15.000999999997125,0.25620665100390283,0.2794782271519579
15.200999999997014,0.2530989065281524,0.2844889761337559
15.400999999996904,0.25006989042601363,0.28981581206588586
15.600999999996793,0.2507890386326546,0.2949737157875658
15.800999999996682,0.24907261334131148,0.30022511947972697
16.000999999996573,0.24634962918339698,0.3057481481065836
16.200999999996817,0.24569089113479833,0.310325910490709
16.40099999999706,0.24374100518001285,0.3147814278269652
16.600999999997306,0.24070872603077664,0.32010758830882563
16.80099999999755,0.24371158383402527,0.32919641056104
17.000999999997795,0.24367153354091714,0.33559564325273133
17.20099999999804,0.24279636897173054,0.3408848765967417
17.400999999998284,0.24132353229150094,0.3456518567349032
17.60099999999853,0.23947315759895402,0.35124135742591117
17.800999999998773,0.24062907120604948,0.3594580803754441
18.000999999999017,0.23992353141583025,0.3658818413873011
18.20099999999926,0.23482002397468496,0.3721405866363832
18.400999999999506,0.2364450506988019,0.3786963125053792
18.60099999999975,0.23398158723619072,0.38332433131867577
18.799999999999994,0.2358479458379976,0.38916320481387395
19.000000000000238,0.23472042741331162,0.3954972005635656
19.200000000000482,0.23196208066725982,0.40175434357129197
19.400000000000727,0.2276353569698242,0.40680255241192
19.60000000000097,0.22280898088106785,0.4120089132745492
19.800000000001216,0.2240067075432716,0.4215317083403261
20.00000000000146,0.22057993077250215,0.42827323682280016
