Time (s),X (m),Y (m)
0.001,0.0011546366250239817,0.000435790549910003
0.20000000000000015,-0.0013632559022356467,-0.0011050981051275515
0.4000000000000003,-0.005700541360976123,-0.005755727382445188
0.6000000000000004,-0.0006364870882673584,-0.0034991282003836
0.8000000000000006,0.006721195611970353,-0.0049955539451135445
1.0000000000000007,0.016611881198129105,0.0014295291428259153
1.2009999999999785,0.0258752115810856,0.004025059272930696
1.4009999999999565,0.034492242043769654,0.0045790332171601646
1.6009999999999345,0.04546375873595648,0.005267431101676326
1.8009999999999124,0.05321981528365606,0.006265697070782786
2.0009999999998906,0.06034362086360057,0.010478525707211915
2.2009999999998686,0.0727568500408841,0.01343145930239037
2.4009999999998466,0.08925244759680988,0.01803171253411289
2.6009999999998246,0.0998984263150633,0.018546647175212205
2.8009999999998025,0.10858451447452319,0.023004509490489305
3.0009999999997805,0.11785570379161919,0.029521024207697553
3.2009999999997585,0.1421279662892574,0.03173770218812393
3.4009999999997365,0.167328994505078,0.04045779838035186
3.6009999999997144,0.18203191955459672,0.055124263544412286
3.8009999999996924,0.20191080533523953,0.06566836635504346
4.000999999999671,0.2189761851680224,0.06953702755419963
4.200999999999738,0.23498451915074636,0.07255242143335922
4.400999999999804,0.24747980745588696,0.08059310244188475
4.600999999999871,0.2585226802476942,0.08804036227945236
4.800999999999938,0.2671536501074192,0.09027627094987827
5.000000000000004,0.27808656093036355,0.09871508490109639
5.200000000000071,0.2879698018635198,0.10979794626806276
5.400000000000138,0.3012688066207151,0.10926356608868906
5.600000000000205,0.3215648034937175,0.11018636605286873
5.800000000000272,0.34145387589788645,0.11365057561328815
6.000000000000338,0.35787503707587587,0.11251843627959104
6.200000000000405,0.3786596780218844,0.11829883802500125
6.400000000000472,0.3974708616878092,0.12335998532843452
6.600000000000539,0.41587094325017765,0.1312922699266382
6.800000000000606,0.4321746058129333,0.13901412159701187
7.000000000000672,0.4490076149542794,0.14691914497759107
7.200000000000739,0.4652444665223193,0.1558596118190335
7.400000000000806,0.4779952156552027,0.1662876675027503
7.600000000000873,0.48780605561506707,0.17528284746283318
7.8000000000009395,0.498640815515695,0.18428396473128114
8.000000000001005,0.5262046431196983,0.19918576669080107
8.200000000000895,0.5545562506318598,0.2138738972394285
8.400000000000784,0.5716488371806057,0.2256047457495978
8.600000000000673,0.5943618904786068,0.24580447229768293
8.800000000000562,0.6143266751060064,0.2679923960800304
9.000000000000451,0.6353034928947613,0.2881638225614165
9.20000000000034,0.6562148959820875,0.31507818344958055
9.40000000000023,0.6756533928649076,0.3376580610482241
9.600000000000119,0.6930096880508995,0.3485517123112733
9.800000000000008,0.7077631106766159,0.3567747801300885
10.000999999999896,0.7280947814173239,0.3703802709970457
10.200999999999786,0.7403660820085417,0.3809341956881685
10.400999999999675,0.7491388952969192,0.3929542380214751
10.600999999999564,0.7664246909258394,0.4043644745074472
10.800999999999453,0.7838037608296687,0.41738296567285205
11.000999999999342,0.8015659054140399,0.44104503958161495
11.200999999999231,0.821474146688083,0.46076397849534667
11.40099999999912,0.8399845112434716,0.4794983613240061
11.60099999999901,0.8507184408412356,0.4839799877174962
11.800999999998899,0.8696712600925199,0.5017312716468016
12.000999999998788,0.8855842071331339,0.5240694067844174
12.200999999998677,0.8981381098101199,0.5404760352173205
12.400999999998566,0.913484365202192,0.5559802072941054
12.600999999998455,0.9266378285095613,0.5772502141173556
12.800999999998345,0.9374892269761831,0.5992069083271547
13.000999999998234,0.9496754749278555,0.6121482145807426
13.200999999998123,0.9606231537046048,0.625447351488774
13.400999999998012,0.9703486646410946,0.6376908409398657
13.600999999997901,0.9829514782589213,0.6578150848666392
13.80099999999779,0.9949621728174589,0.6729200750197489
14.00099999999768,1.0085109292567567,0.6906069162992606
14.200999999997569,1.017983144957523,0.7117219546607296
14.400999999997458,1.0262694065537012,0.7319058251237329
14.600999999997347,1.0362879829410747,0.7472876469559392
14.800999999997236,1.0413012302437055,0.7579521170075587
15.000999999997125,1.0463398733280438,0.7579356434701032
15.200999999997014,1.0508080375774633,0.7688093284327264
15.400999999996904,1.0582936874677138,0.7877166165650913
15.600999999996793,1.0665277296261984,0.8001854898108568
15.800999999996682,1.0774854160561276,0.8110998440104676
16.000999999996573,1.0873620419466257,0.8272012961924546
16.200999999996817,1.0986132717424875,0.8392960423081517
16.40099999999706,1.1085185372275876,0.8625556547115055
16.600999999997306,1.1181782742176383,0.8813884963166057
16.80099999999755,1.1229396088254457,0.8944386590727726
17.000999999997795,1.1296330671678547,0.9157939090607139
17.20099999999804,1.1406096435285105,0.9282834095994914
17.400999999998284,1.1510326587951951,0.9395646835470091
17.60099999999853,1.1683019975165687,0.960104124984441
17.800999999998773,1.1842885829714922,0.9794735196409555
18.000999999999017,1.1946321735468879,0.9931629893857549
18.20099999999926,1.2038763144082125,1.019749950988213
18.400999999999506,1.2104522988512068,1.0384815466505821
18.60099999999975,1.2196913923284394,1.0569781108225649
18.799999999999994,1.2222631207882992,1.0782977509590832
19.000000000000238,1.224169466922431,1.1025476089211779
19.200000000000482,1.22717962924368,1.12811892147732
19.400000000000727,1.2329991045674973,1.1523391308162285
19.60000000000097,1.2388878864024573,1.1710810212065383
19.800000000001216,1.2506950969093233,1.1920023673133051
20.00000000000146,1.2601835737116711,1.2101411574532184
