Time (s),X (m),Y (m)
0.001,0.0005727611008870025,0.0009689812320744445
0.20000000000000015,0.004386684802771996,0.005259205081378457
0.4000000000000003,0.003632214384908865,0.0013929356771873445
0.6000000000000004,0.00806941774523995,0.006377019191393202
0.8000000000000006,0.013510882783408075,0.012958615103534308
1.0000000000000007,0.019370056096265402,0.01348993154398976
1.2009999999999785,0.02908148456688273,0.011009313259046359
1.4009999999999565,0.03581243067965789,0.016137660804955305
1.6009999999999345,0.04258722472724288,0.013053139516970238
1.8009999999999124,0.049344740336574364,0.012052539929241303
2.0009999999998906,0.054578395502827295,0.01146702964237176
2.2009999999998686,0.060450525935737145,0.01186492876764777
2.4009999999998466,0.06602628229997912,0.01093541565837559
2.6009999999998246,0.07340797060450126,0.017386915405037055
2.8009999999998025,0.0837641120406795,0.020991019156861513
3.0009999999997805,0.08938128486185767,0.025972630630743208
3.2009999999997585,0.09668157473387132,0.029756623517056796
3.4009999999997365,0.10323737988876841,0.03832987415225042
3.6009999999997144,0.10646091750849278,0.043189989483658216
3.8009999999996924,0.11226308218133577,0.04901295381734429
4.000999999999671,0.11693433342611012,0.05294824401034733
4.200999999999738,0.12215181020159684,0.05729652140269376
4.400999999999804,0.12598785729492493,0.06039546666674403
4.600999999999871,0.1291771466614258,0.06881714135366614
4.800999999999938,0.1325240012889594,0.07400693441921388
5.000000000000004,0.13489589495525667,0.0818889666880269
5.200000000000071,0.1388248064606822,0.08904582676537837
5.400000000000138,0.13992990073526654,0.09655058450957725
5.600000000000205,0.14210749435311254,0.10131238197519472
5.800000000000272,0.14333270956407726,0.10720095792274965
6.000000000000338,0.1452958789241831,0.11992297224931772
6.200000000000405,0.14663279627612447,0.12864424542116595
6.400000000000472,0.14936333045427938,0.13849916599144887
6.600000000000539,0.14882474807673554,0.1477515296753651
6.800000000000606,0.1460811851309656,0.15924212785252664
7.000000000000672,0.14578986429006857,0.16902035807179155
7.200000000000739,0.14567315685644291,0.17869783337252995
7.400000000000806,0.146697335150089,0.18514038912933456
7.600000000000873,0.14489283526259883,0.19307919177299165
7.8000000000009395,0.14075482868636027,0.20233439435267983
8.000000000001005,0.1350192228893297,0.2105918668299057
8.200000000000895,0.13030556144125152,0.2216766149117577
8.400000000000784,0.1275389868105581,0.22984868002216274
8.600000000000673,0.12476593764733335,0.23633200934511786
8.800000000000562,0.12386254861973717,0.24612393887084422
9.000000000000451,0.11748693791082428,0.2538195875405924
9.20000000000034,0.11249963040260194,0.25926983443504253
9.40000000000023,0.107511451769974,0.2661695523595401
9.600000000000119,0.10510875690329341,0.27405275494320946
9.800000000000008,0.10057940015099147,0.28137279253040287
10.000999999999896,0.09657731924922205,0.28736705698585213
10.200999999999786,0.08856178568656722,0.2914570573041341
10.400999999999675,0.08242197743613884,0.2937459514173968
10.600999999999564,0.07674457794251059,0.2974342643273274
10.800999999999453,0.06664209598923126,0.30075194188741744
11.000999999999342,0.06111931914044893,0.30351718928401455
11.200999999999231,0.05192626006991085,0.30771128337557063
11.40099999999912,0.04476853993401917,0.311050045625299
11.60099999999901,0.03443063111025432,0.3111737361329037
11.800999999998899,0.02678045944786419,0.3113899291525347
12.000999999998788,0.02054404259452874,0.31295188488568193
12.200999999998677,0.010120220243650621,0.3136018938060766
12.400999999998566,0.0009566691866872061,0.316423604921992
12.600999999998455,-0.00854351616221099,0.31466199632252484
12.800999999998345,-0.021098521589852582,0.31254666303122436
13.000999999998234,-0.030027672668232162,0.31074238393736137
13.200999999998123,-0.03955962097237785,0.31052548400332125
13.400999999998012,-0.04911357689729041,0.3060205304977564
13.600999999997901,-0.058318336184938986,0.2986381779588333
13.80099999999779,-0.06624778089744,0.2985332718789093
14.00099999999768,-0.07478309034574396,0.291906915994071
14.200999999997569,-0.08370022712896873,0.2895560601420852
14.400999999997458,-0.0935089005196574,0.2856955003429151
14.600999999997347,-0.09991960958114056,0.28065275497155023
14.800999999997236,-0.1075781010354495,0.27641372096564293
15.000999999997125,-0.11273054102187048,0.276840071662755
15.200999999997014,-0.11915330568679895,0.2742277766018571
15.400999999996904,-0.12628595764235276,0.27033987477888766
15.600999999996793,-0.13188112406196437,0.2676356526178154
15.800999999996682,-0.13633145198506033,0.2594409525507477
16.000999999996573,-0.1420501289935775,0.2545738444519277
16.200999999996817,-0.14654418270877537,0.24863843514644515
16.40099999999706,-0.1509392203826599,0.24005503362098635
16.600999999997306,-0.15625402553242523,0.23639003263819344
16.80099999999755,-0.1599266824794553,0.22730529714058623
17.000999999997795,-0.16216084632967495,0.21953061388229594
17.20099999999804,-0.16189371722272397,0.21138305258849246
17.400999999998284,-0.1614002257973744,0.20047386128800548
17.60099999999853,-0.16213332252996684,0.1911050882905795
17.800999999998773,-0.16632274953591922,0.182007243896841
18.000999999999017,-0.1687740784225056,0.17438515431417018
18.20099999999926,-0.16807906650611884,0.16375020815159474
18.400999999999506,-0.1716018246174811,0.15364303549579134
18.60099999999975,-0.17279420821198047,0.14681417338741268
18.799999999999994,-0.17305215826128226,0.13806367829497462
19.000000000000238,-0.1711726116698483,0.1280570062187673
19.200000000000482,-0.17118532528110658,0.12072378919405824
19.400000000000727,-0.17025556274501036,0.11313657721726034
19.60000000000097,-0.16892122312490754,0.10509660081479177
19.800000000001216,-0.1654227497157322,0.09720926241812389
20.00000000000146,-0.1624945603393501,0.08888355223212416
