Time (s),X (m),Y (m)
0.001,-0.0008071636076123137,8.987223813608099e-05
0.20000000000000015,0.0017829452157732668,-0.0013839299785952876
0.4000000000000003,0.0043826220000209234,-0.004464790999121628
0.6000000000000004,0.0240446307039382,-0.01614227365789638
0.8000000000000006,0.057860531090565125,-0.03131930754356641
1.0000000000000007,0.08381901081306248,-0.046028731783835757
1.2009999999999785,0.11523038017570374,-0.05544307912278139
1.4009999999999565,0.14301433037278222,-0.06125579556594209
1.6009999999999345,0.17489375522135628,-0.07159567573099423
1.8009999999999124,0.21198771938510136,-0.08421540588965781
2.0009999999998906,0.24383599997401995,-0.09879306743601371
2.2009999999998686,0.28244022593769746,-0.12005256037986284
2.4009999999998466,0.31760823935871274,-0.15310678048460974
2.6009999999998246,0.33785674065361976,-0.1836113763168542
2.8009999999998025,0.34579675497022944,-0.21474429939435
3.0009999999997805,0.34158801710646985,-0.25462191369709625
3.2009999999997585,0.3306636954381694,-0.29697547154660725
3.4009999999997365,0.3144702648713184,-0.34502366273691615
3.6009999999997144,0.3003925845704383,-0.3887595550508727
3.8009999999996924,0.2836153571751508,-0.4382277381177566
4.000999999999671,0.2652841682702813,-0.48645681384460315
4.200999999999738,0.2467940236697773,-0.5329457787749873
4.400999999999804,0.21866345931258435,-0.5857788311060934
4.600999999999871,0.18126735673152947,-0.642502312714508
4.800999999999938,0.1369059391346242,-0.6940996622971106
5.000000000000004,0.09388757102049686,-0.7242266346627562
5.200000000000071,0.05372618384558263,-0.7318020603205959
5.400000000000138,0.007066381438734061,-0.7161520648376365
5.600000000000205,-0.0435365188984208,-0.6767380670551545
5.800000000000272,-0.07929426722891704,-0.6317648343988234
6.000000000000338,-0.09318429558687175,-0.5888160875948876
6.200000000000405,-0.09415623547920153,-0.5420246377827712
6.400000000000472,-0.08031115027377381,-0.4963695148419142
6.600000000000539,-0.06259478859717427,-0.46904410684895076
6.800000000000606,-0.026252089761595904,-0.47224058624778675
7.000000000000672,0.013418899076347239,-0.505037675732069
7.200000000000739,0.054426695697653266,-0.5431814450921897
7.400000000000806,0.09136638648045182,-0.592421442816273
7.600000000000873,0.11258273714612423,-0.6368550296297628
7.8000000000009395,0.11396824831576428,-0.6810850095980349
8.000000000001005,0.10048258765187233,-0.7310921404661808
8.200000000000895,0.09059079859695368,-0.779640417115877
8.400000000000784,0.06400436753246388,-0.8314138413397284
8.600000000000673,0.02668668459913655,-0.8826073650325738
8.800000000000562,-0.01319036202832388,-0.9210004176393464
9.000000000000451,-0.06504813097105858,-0.9375653968924476
9.20000000000034,-0.12122277994588367,-0.9332628892008912
9.40000000000023,-0.17770115482320828,-0.9103600853868773
9.600000000000119,-0.2204724456947526,-0.8810803016431252
9.800000000000008,-0.2357398192877236,-0.8421032614555828
10.000999999999896,-0.2265443936094458,-0.7857658178158078
10.200999999999786,-0.20056232023920512,-0.7248059862410704
10.400999999999675,-0.16833600369421634,-0.6606741968088248
10.600999999999564,-0.14318935525142806,-0.609787995073115
10.800999999999453,-0.11319086142189555,-0.5778220931210926
11.000999999999342,-0.06780185373488792,-0.5707618182801065
11.200999999999231,-0.018522501856438372,-0.5837426825467311
11.40099999999912,0.039802908433289305,-0.61571238076145
11.60099999999901,0.09207029505926893,-0.6555367796773671
11.800999999998899,0.14059976623576906,-0.7107738512706
12.000999999998788,0.19034192664549623,-0.7826663348437124
12.200999999998677,0.23105465265570566,-0.8420667428701005
12.400999999998566,0.24588096603577816,-0.9024254217074934
12.600999999998455,0.24482896511572969,-0.9590995122697759
12.800999999998345,0.23245847609663328,-1.011423268832185
13.000999999998234,0.20823457181461735,-1.069628997226112
13.200999999998123,0.16435297129438986,-1.121877578156921
13.400999999998012,0.1070080473627912,-1.15255805829952
13.600999999997901,0.04885977183213633,-1.152491547242781
13.80099999999779,-0.0037612485619843206,-1.1402511407334974
14.00099999999768,-0.0487486126146335,-1.1252109261655863
14.200999999997569,-0.10889834928088339,-1.1024553282581167
14.400999999997458,-0.17603637346096662,-1.0702147765968335
14.600999999997347,-0.2418331675912581,-1.032604017658277
14.800999999997236,-0.3105544834509947,-0.988131812546554
15.000999999997125,-0.37397119713221444,-0.9388265261615908
15.200999999997014,-0.4237457398665516,-0.8758995881643058
15.400999999996904,-0.4506518465109269,-0.8117841756112774
15.600999999996793,-0.46058120336728364,-0.7523782609619992
15.800999999996682,-0.4484205558998996,-0.6901758662874312
16.000999999996573,-0.42483115294399537,-0.626431415692897
16.200999999996817,-0.3949763172550597,-0.567436485180234
16.40099999999706,-0.3569245609685566,-0.5349988638151493
16.600999999997306,-0.31043299331731755,-0.5271000745652543
16.80099999999755,-0.24951786720055688,-0.5412047886889252
17.000999999997795,-0.18738595742172326,-0.5593394835887582
17.20099999999804,-0.11999393756455258,-0.5870124223059532
17.400999999998284,-0.052166157556236235,-0.6264368007028557
17.60099999999853,0.01615695672365261,-0.6691400001697254
17.800999999998773,0.0812551781693353,-0.7257038671702148
18.000999999999017,0.12541785642437905,-0.8009772449790443
18.20099999999926,0.14017389983895487,-0.8688409330820321
18.400999999999506,0.13223658727040707,-0.9400394241375299
18.60099999999975,0.10024376405062789,-1.0159484380267325
18.799999999999994,0.06395768016912884,-1.086147575625577
19.000000000000238,0.021150184331865572,-1.1551507150479272
19.200000000000482,-0.016138223002198908,-1.2105157401569897
19.400000000000727,-0.06318522691148623,-1.2246768344090704
19.60000000000097,-0.113303708857339,-1.212485783840652
19.800000000001216,-0.17487211242589182,-1.1792867948475427
20.00000000000146,-0.23113187742376717,-1.126327334930582
