Time (s),X (m),Y (m)
0.001,0.0010100015126501532,-0.0006628221997479689
0.20000000000000015,0.0024797419575210916,0.0002302107339364359
0.4000000000000003,0.011306278692438138,0.003483313488878851
0.6000000000000004,0.022741277229333785,0.012979534887436087
0.8000000000000006,0.039614067266143936,0.02067676256957482
1.0000000000000007,0.06404503380247988,0.015681398452433618
1.2009999999999785,0.0906261243637823,0.008985645272092526
1.4009999999999565,0.1092876810334844,-0.022649442483218107
1.6009999999999345,0.12407633958221671,-0.06728160586865098
1.8009999999999124,0.13372423908483325,-0.12773169526391503
2.0009999999998906,0.13646349293184484,-0.19712075476646895
2.2009999999998686,0.13525392576414016,-0.2632848677027987
2.4009999999998466,0.12166334413920149,-0.32813734574732467
2.6009999999998246,0.0948600769002095,-0.3878151323182836
2.8009999999998025,0.04091093832629263,-0.44043034188619423
3.0009999999997805,-0.03856467339861745,-0.4683598815476148
3.2009999999997585,-0.12489766421002586,-0.4685942563269505
3.4009999999997365,-0.2121877328816832,-0.4485783623112441
3.6009999999997144,-0.2912594614591995,-0.41127903869425403
3.8009999999996924,-0.338153698907447,-0.34795555638321474
4.000999999999671,-0.3652473251109099,-0.29408011588023775
4.200999999999738,-0.38776273655042226,-0.2447608402022741
4.400999999999804,-0.39429392437150373,-0.1852159485581278
4.600999999999871,-0.3944961927425828,-0.11464686596341263
4.800999999999938,-0.3894174710784263,-0.04062885807002622
5.000000000000004,-0.3826682849717728,0.027280430249827393
5.200000000000071,-0.3531149481293286,0.08620308191984444
5.400000000000138,-0.30664619000951315,0.12332220212140103
5.600000000000205,-0.2455531765769813,0.13543835983603536
5.800000000000272,-0.19321224880702628,0.1443023150405422
6.000000000000338,-0.13798579528969307,0.13667106568999562
6.200000000000405,-0.08238582568833004,0.13089359058274866
6.400000000000472,-0.042065190902270004,0.10590607744569464
6.600000000000539,-0.019731574981372076,0.06330179976184687
6.800000000000606,-0.005502883192853416,0.020561771410788677
7.000000000000672,-0.007415043983546948,-0.02944148995427315
7.200000000000739,-0.019062284733487558,-0.0867422751169385
7.400000000000806,-0.04311172416943216,-0.14243669340865062
7.600000000000873,-0.0842732854154909,-0.18253770257143384
7.8000000000009395,-0.13188939877149677,-0.19966272146995062
8.000000000001005,-0.19298985219709203,-0.18926973170380787
8.200000000000895,-0.25679323991139924,-0.16373958728911184
8.400000000000784,-0.30573487785290865,-0.11791605829072878
8.600000000000673,-0.3346492442374082,-0.06641738227583509
8.800000000000562,-0.3498208848446541,-0.009669306324374044
9.000000000000451,-0.3563215991666281,0.04813471457860805
9.20000000000034,-0.34925819023211063,0.10959815985993586
9.40000000000023,-0.3331961054429794,0.17474114357522147
9.600000000000119,-0.30836173484160045,0.24269848917845552
9.800000000000008,-0.26325378224633716,0.30052277053523374
10.000999999999896,-0.21598830875244138,0.33672443765215027
10.200999999999786,-0.17811655051954062,0.34610369524905105
10.400999999999675,-0.17399291811708195,0.32561184177375124
10.600999999999564,-0.1844542622744285,0.2967760368612631
10.800999999999453,-0.21187994315236663,0.2680602778836433
11.000999999999342,-0.2500256367731362,0.24262868561000836
11.200999999999231,-0.3008236006058066,0.22816769470688286
11.40099999999912,-0.350970768995642,0.23247859550113656
11.60099999999901,-0.39344145725971125,0.26180201293118927
11.800999999998899,-0.40924936205724444,0.31112689258204024
12.000999999998788,-0.41326332097317087,0.36943715770321434
12.200999999998677,-0.4016383088004077,0.4358530537720379
12.400999999998566,-0.36992916229233624,0.4973991399201084
12.600999999998455,-0.3265661094950752,0.5423403913317787
12.800999999998345,-0.2721992053017373,0.5729336623098356
13.000999999998234,-0.2137270189490231,0.5833843384035208
13.200999999998123,-0.15414437670334868,0.57256280136815
13.400999999998012,-0.09155995625122972,0.5537442426419099
13.600999999997901,-0.034441426221979266,0.4995087676191516
13.80099999999779,0.004616489444906454,0.4396059645354169
14.00099999999768,0.017077228194659948,0.3648031845803479
14.200999999997569,0.010650013202411575,0.2958731228096797
14.400999999997458,-0.011009077596437832,0.23823518772618105
14.600999999997347,-0.04586726688543626,0.19941550217231238
14.800999999997236,-0.09091833117695804,0.17810367673421623
15.000999999997125,-0.1357823208784218,0.1911269818185814
15.200999999997014,-0.15763757339522586,0.228704385090325
15.400999999996904,-0.14616991818980257,0.2764742752513294
15.600999999996793,-0.11832468000036007,0.32114624093746036
15.800999999996682,-0.06859614860756992,0.3507732950590812
16.000999999996573,-0.0020934833268869326,0.3680249243541315
16.200999999996817,0.07515296530784535,0.3597041317668281
16.40099999999706,0.15024121848101143,0.35025422362851844
16.600999999997306,0.2268789900427308,0.3441472614366888
16.80099999999755,0.29667196227972825,0.33187020813600027
17.000999999997795,0.34598213968526564,0.30164201859338635
17.20099999999804,0.37487368693435,0.2748904334938436
17.400999999998284,0.3782373949011823,0.22952094043054797
17.60099999999853,0.3683608430301019,0.1807743007964939
17.800999999998773,0.3486355104555564,0.14332318069667807
18.000999999999017,0.3137388136610549,0.12633583884889926
18.20099999999926,0.26023479475508726,0.13062920711879325
18.400999999999506,0.1938994712527885,0.15237838607497844
18.60099999999975,0.1326973763047536,0.18774296831973825
18.799999999999994,0.08500049523816762,0.2358560817707027
19.000000000000238,0.05184469344746578,0.2851472208966883
19.200000000000482,0.0351742057884206,0.3381440638699874
19.400000000000727,0.051962980722614835,0.3991165186745549
19.60000000000097,0.09362209033075601,0.44955837755999933
19.800000000001216,0.13681202533032058,0.4821476605919004
20.00000000000146,0.18759972640760497,0.4784456718740066
