Time (s),X (m),Y (m)
0.001,0.0003099530129853942,-0.0010272443824616275
0.20000000000000015,0.0015323701605640862,-0.0032491190554110403
0.4000000000000003,0.002834267743000396,-0.002747686220906965
0.6000000000000004,0.0064224581428237995,0.0017094981804132588
0.8000000000000006,0.014669913542473307,0.002637333832342259
1.0000000000000007,0.021326214072489837,0.0024780590944314335
1.2009999999999785,0.02894004377997374,0.0010399625730975804
1.4009999999999565,0.03857837588763784,-0.004301426933420802
1.6009999999999345,0.048142112214033285,-0.005318216260480202
1.8009999999999124,0.05552989199255797,-0.011281784072455295
2.0009999999998906,0.06342811867485339,-0.007682618645312962
2.2009999999998686,0.07395272742598309,-0.014939934268077739
2.4009999999998466,0.08160811986511603,-0.024525498231072494
2.6009999999998246,0.09147330594771308,-0.026445404308818733
2.8009999999998025,0.10175113182508529,-0.02857646263914743
3.0009999999997805,0.11324770927032599,-0.03617955962083016
3.2009999999997585,0.12273095168714064,-0.03510356886600501
3.4009999999997365,0.13537360548680785,-0.033458231278460086
3.6009999999997144,0.14778336381212048,-0.03930467858135402
3.8009999999996924,0.15664138164371127,-0.0398682933596776
4.000999999999671,0.16729446311716092,-0.042233636657920404
4.200999999999738,0.17880889334446196,-0.05029011081510471
4.400999999999804,0.19191880559263585,-0.05282538727663338
4.600999999999871,0.20163243152749424,-0.053773254776661186
4.800999999999938,0.21275156065920423,-0.05415490470590196
5.000000000000004,0.221748103329623,-0.05653303773531655
5.200000000000071,0.22924684686529426,-0.06400932247401954
5.400000000000138,0.23835893072748224,-0.06338368939524673
5.600000000000205,0.24988335937356543,-0.07382102402319805
5.800000000000272,0.25955074122146954,-0.07985811232812583
6.000000000000338,0.27065849514014334,-0.08565255732338577
6.200000000000405,0.28027103566983924,-0.09159370347705272
6.400000000000472,0.2932760102323353,-0.09150050069064693
6.600000000000539,0.3041684405692092,-0.09244646025284038
6.800000000000606,0.31178278346680466,-0.09312588294783211
7.000000000000672,0.3196531607189704,-0.09795945148940638
7.200000000000739,0.329320192218347,-0.10305599270277657
7.400000000000806,0.34288132156426354,-0.10625651345811579
7.600000000000873,0.35035121389084595,-0.11449101047509307
7.8000000000009395,0.36105301325889505,-0.12268678310598638
8.000000000001005,0.3691074378597781,-0.1281466811202281
8.200000000000895,0.3813706859618122,-0.13297276313756692
8.400000000000784,0.39227167343690356,-0.13720988122616118
8.600000000000673,0.401778026737381,-0.14564708611014301
8.800000000000562,0.4133750885988211,-0.15037041953812672
9.000000000000451,0.4230201428092898,-0.15757123683973082
9.20000000000034,0.43511038764969046,-0.1649215861405206
9.40000000000023,0.44812791117322737,-0.16697581363719516
9.600000000000119,0.4597094555365446,-0.17032044829556298
9.800000000000008,0.4706843712203586,-0.1711859024612129
10.000999999999896,0.47969907958667496,-0.17007289480445364
10.200999999999786,0.4902215990005665,-0.1790824611880083
10.400999999999675,0.5018798891497959,-0.19020067575619423
10.600999999999564,0.51407733958255,-0.19705922703120587
10.800999999999453,0.5203642041107147,-0.20812744765083158
11.000999999999342,0.5289641279427332,-0.2168772181705282
11.200999999999231,0.5404098260137778,-0.22063805355926314
11.40099999999912,0.5545940477045957,-0.2205628989870714
11.60099999999901,0.5637885981795958,-0.22708962678524305
11.800999999998899,0.5746348837672388,-0.23179521317288085
12.000999999998788,0.5889968285528547,-0.2294227792707594
12.200999999998677,0.5984737485899553,-0.2340535828903247
12.400999999998566,0.6100340136519633,-0.24111476355254693
12.600999999998455,0.6217508917867014,-0.2453795771908843
12.800999999998345,0.6331972462916375,-0.249348157102803
13.000999999998234,0.6458004700153062,-0.2573028103784877
13.200999999998123,0.6573850226859874,-0.259990486750147
13.400999999998012,0.6663903291498718,-0.26617484882015763
13.600999999997901,0.6754980638426945,-0.270918313944268
13.80099999999779,0.6862962775241173,-0.2750202885513463
14.00099999999768,0.6981076772646427,-0.2803240358674174
14.200999999997569,0.7092193246515246,-0.28590101745893215
14.400999999997458,0.71465921141785,-0.2959370058310729
14.600999999997347,0.724101065504377,-0.30266874430827984
14.800999999997236,0.7355276757280067,-0.307104123076081
15.000999999997125,0.7465553498966007,-0.30946125949584985
15.200999999997014,0.7562226730539214,-0.31187463579517744
15.400999999996904,0.7666606071572774,-0.3177133616668052
15.600999999996793,0.7781516365246255,-0.3225916162802954
15.800999999996682,0.789276391964709,-0.32532315022155706
16.000999999996573,0.798728945302175,-0.32750046268421074
16.200999999996817,0.8065011019678746,-0.3275819816503932
16.40099999999706,0.816558433212871,-0.3264509739496578
16.600999999997306,0.8299374965067606,-0.3285474144037404
16.80099999999755,0.8380215584958438,-0.3380443816586471
17.000999999997795,0.8483780741216084,-0.34359675379648785
17.20099999999804,0.8616844548950418,-0.3494193079543669
17.400999999998284,0.8762485887147334,-0.34535069701997767
17.60099999999853,0.8859695446750115,-0.34730491011705117
17.800999999998773,0.8996603292561485,-0.3506878518543116
18.000999999999017,0.917524170583615,-0.350019203898314
18.20099999999926,0.9269918445029712,-0.3553226918639329
18.400999999999506,0.9389717335023041,-0.3631512755702096
18.60099999999975,0.9514164475717672,-0.36577993320490726
18.799999999999994,0.9596838257897962,-0.37246172209743994
19.000000000000238,0.9675405857659943,-0.38314588608697064
19.200000000000482,0.977889517297108,-0.39402875798160036
19.400000000000727,0.9848836878109696,-0.40117331599522416
19.60000000000097,0.9974594871502466,-0.40497842745319496
19.800000000001216,1.0091549749841295,-0.4063443001350302
20.00000000000146,1.0245026791303848,-0.40223930083028986
