Time (s),X (m),Y (m)
0.001,-0.00013259955118837574,0.0009689812320744445
0.20000000000000015,0.0008077318062582417,0.0024829831727943537
0.4000000000000003,0.004024100104002724,0.003179055735852455
0.6000000000000004,0.006591367818973197,0.004578204421244409
0.8000000000000006,0.01298240584183632,0.008335898506035867
1.0000000000000007,0.015901732262710504,0.006723377249377662
1.2009999999999785,0.024331334330296175,-2.5235839441096663e-05
1.4009999999999565,0.03017162599330676,0.0024517206063995214
1.6009999999999345,0.03536740503222848,0.0013617212330902903
1.8009999999999124,0.043094990597817295,-0.0028997955964176684
2.0009999999998906,0.05051624198023722,-0.013755834004357138
2.2009999999998686,0.06269989706081444,-0.0034417668302813274
2.4009999999998466,0.07400475671215967,-0.0018030852200066293
2.6009999999998246,0.0768080421069233,-0.012038002936096621
2.8009999999998025,0.08123695150392239,-0.02986668634365722
3.0009999999997805,0.08694193724489095,-0.021485543124976577
3.2009999999997585,0.09775415612000353,-0.029271957968168314
3.4009999999997365,0.10719751959707347,-0.02401217877784075
3.6009999999997144,0.1167585231159451,-0.03134843321426052
3.8009999999996924,0.1262551056821826,-0.03812598492804619
4.000999999999671,0.13441544919851495,-0.043590555558134396
4.200999999999738,0.14468907743255333,-0.04630559420799947
4.400999999999804,0.15337023235298824,-0.05009505154673103
4.600999999999871,0.1618593997410501,-0.0487045097460863
4.800999999999938,0.17038180554705273,-0.054532924006127435
5.000000000000004,0.17599229268677916,-0.060649723773524435
5.200000000000071,0.1810032729689678,-0.07346883122842543
5.400000000000138,0.18633041100869058,-0.08287695826557068
5.600000000000205,0.19049000390229942,-0.09103855228118653
5.800000000000272,0.19644365959022492,-0.10331202749515193
6.000000000000338,0.200592155681208,-0.11182610856980077
6.200000000000405,0.20682205864318357,-0.12330255648828897
6.400000000000472,0.21472796766763946,-0.11617807890590424
6.600000000000539,0.21989311752180926,-0.11909250871767306
6.800000000000606,0.2214860874093364,-0.1323389603489418
7.000000000000672,0.22675683500124125,-0.13687461393382344
7.200000000000739,0.231295975493338,-0.14129108470592083
7.400000000000806,0.23631880808092864,-0.14904050595207974
7.600000000000873,0.2432990860686783,-0.159598231046489
7.8000000000009395,0.2503876289072728,-0.16853844812697985
8.000000000001005,0.25953694336222144,-0.17583263011543288
8.200000000000895,0.2666450399180343,-0.1809042844390376
8.400000000000784,0.27266912694445783,-0.18611440396329157
8.600000000000673,0.27696068262900336,-0.1975050406179052
8.800000000000562,0.28242610933841006,-0.2088158942418331
9.000000000000451,0.2890891970561023,-0.2184075109837449
9.20000000000034,0.29127645398983293,-0.22770022442361257
9.40000000000023,0.29724367516067873,-0.23827275699239403
9.600000000000119,0.3051020800916406,-0.24605329421726424
9.800000000000008,0.31325068077562823,-0.25851913490995027
10.000999999999896,0.3210498441814293,-0.2684168861966321
10.200999999999786,0.3268946317567636,-0.2739876450743045
10.400999999999675,0.33625475419001494,-0.28206413165501404
10.600999999999564,0.3428298390089599,-0.2901231256405961
10.800999999999453,0.34921637574244974,-0.30135713724202096
11.000999999999342,0.3519545947642518,-0.31119560249041267
11.200999999999231,0.35550482116090615,-0.3220961897762176
11.40099999999912,0.35938703958071433,-0.33147267320926377
11.60099999999901,0.3665945241968306,-0.33896739470384374
11.800999999998899,0.3728511201211877,-0.34969358309131005
12.000999999998788,0.38324658838789494,-0.3450014229924228
12.200999999998677,0.3936471635517817,-0.3493040376250454
12.400999999998566,0.4034556115417088,-0.3535070674670562
12.600999999998455,0.40786567564413206,-0.3671551883116888
12.800999999998345,0.4136526283684475,-0.3775090887638893
13.000999999998234,0.41361037769437153,-0.38464175901524433
13.200999999998123,0.41966255364232674,-0.3926045964499391
13.400999999998012,0.4254114862218259,-0.40383908978985517
13.600999999997901,0.4331730093830837,-0.4065435854723171
13.80099999999779,0.4415276276642284,-0.4166630523863607
14.00099999999768,0.4498539895962425,-0.42628977653753297
14.200999999997569,0.46015735125572566,-0.4279153345632125
14.400999999997458,0.4660343662966048,-0.4387872083562573
14.600999999997347,0.4694586694253024,-0.4494693260844359
14.800999999997236,0.47513895632480374,-0.462134567832455
15.000999999997125,0.47768735175700244,-0.47480793744627114
15.200999999997014,0.4870172952706973,-0.473889104219896
15.400999999996904,0.49265855684407356,-0.4845648284834139
15.600999999996793,0.49747730230829523,-0.49352409999694735
15.800999999996682,0.504386116147559,-0.4910605549109377
16.000999999996573,0.5089464292181445,-0.5013048096392904
16.200999999996817,0.5142713238185169,-0.5158229903421051
16.40099999999706,0.5169644678222223,-0.5266605909278445
16.600999999997306,0.520997097463702,-0.5399543720087845
16.80099999999755,0.5264859410450349,-0.5510193453388509
17.000999999997795,0.5311635234935255,-0.5598462037548683
17.20099999999804,0.537001441430919,-0.5709022205046727
17.400999999998284,0.5421321885367725,-0.5809163685459899
17.60099999999853,0.5405811502301828,-0.5936870506996398
17.800999999998773,0.544781225672937,-0.6053782241210413
18.000999999999017,0.5515997403523676,-0.6135069559292201
18.20099999999926,0.5609996946505004,-0.6147296118573293
18.400999999999506,0.5650080216209756,-0.6273038065047982
18.60099999999975,0.5696565498182499,-0.6364991367292049
18.799999999999994,0.5728734024879267,-0.6442303400606404
19.000000000000238,0.5750639462887055,-0.6540909814368095
19.200000000000482,0.5845722633995386,-0.658730534496078
19.400000000000727,0.5933171115770399,-0.6706225033890437
19.60000000000097,0.5983549128039845,-0.6752237897753098
19.800000000001216,0.606572075531924,-0.6805774431237039
20.00000000000146,0.6136997933283541,-0.686945970815312
