Time (s),X (m),Y (m)
0.001,-0.0005090653149319316,0.0007291460897812449
0.20000000000000015,0.0089255851617057,-0.004378204205770229
0.4000000000000003,0.024285932549860206,-0.004913722168665202
0.6000000000000004,0.04952341304426087,-0.003216795532614016
0.8000000000000006,0.083855176745374,-0.007338981861973871
1.0000000000000007,0.11665620802798288,-0.041778106639908524
1.2009999999999785,0.14456653507891548,-0.08462602375699523
1.4009999999999565,0.17060002718428446,-0.1254267495384232
1.6009999999999345,0.17771015677358987,-0.16485087755312422
1.8009999999999124,0.16765129791612057,-0.21029343971515493
2.0009999999998906,0.14306688885413457,-0.2498349809031645
2.2009999999998686,0.09361680151110091,-0.2774397065661512
2.4009999999998466,0.03448869610716262,-0.29597400178224786
2.6009999999998246,-0.024932176788764925,-0.3032194356811317
2.8009999999998025,-0.08031952487937928,-0.3003612794021767
3.0009999999997805,-0.13390169863007392,-0.29607457038942314
3.2009999999997585,-0.17535420903780563,-0.27670247391589864
3.4009999999997365,-0.19131925969762018,-0.2302576597558774
3.6009999999997144,-0.18168350430439095,-0.17937693923720172
3.8009999999996924,-0.15165499300318283,-0.13340688459484848
4.000999999999671,-0.10454512332617562,-0.1026965648253972
4.200999999999738,-0.04702658176727336,-0.08192998914529565
4.400999999999804,0.011683860617392587,-0.06888278736629869
4.600999999999871,0.059878158350109005,-0.06629184667414728
4.800999999999938,0.09120813016758197,-0.09097535845613322
5.000000000000004,0.10891588368290292,-0.13229252168715536
5.200000000000071,0.11568271500396102,-0.18716995857341417
5.400000000000138,0.11278567094176678,-0.23899442444205887
5.600000000000205,0.09897667497058882,-0.29464973469436795
5.800000000000272,0.0813510836509466,-0.35335734577487365
6.000000000000338,0.06523668402051001,-0.4048085405932563
6.200000000000405,0.031182528843780866,-0.44181891504683407
6.400000000000472,-0.01265988904169233,-0.4652576328843673
6.600000000000539,-0.05391010122511157,-0.4472726958751226
6.800000000000606,-0.08500894399572928,-0.4008495712016231
7.000000000000672,-0.09483456329190103,-0.33918988629436775
7.200000000000739,-0.09949504562543986,-0.2764706460640207
7.400000000000806,-0.08774739737938497,-0.21693392979291004
7.600000000000873,-0.042996173941152155,-0.15917569152280714
7.8000000000009395,0.012454104607772255,-0.11392514516501998
8.000000000001005,0.0639112456235033,-0.08667850802536953
8.200000000000895,0.11041472305737861,-0.07825394316374405
8.400000000000784,0.1432700837167902,-0.10017630381422944
8.600000000000673,0.15694445414440486,-0.13839579949472214
8.800000000000562,0.15760455271459786,-0.18137617158655697
9.000000000000451,0.1531871311832341,-0.24006482674668028
9.20000000000034,0.14869192858945784,-0.3013455912220289
9.40000000000023,0.14043657161642917,-0.37027885203155486
9.600000000000119,0.11950609346482546,-0.4355596494677404
9.800000000000008,0.07838931646543856,-0.4768438069534254
10.000999999999896,0.02356703949033531,-0.49512489036785723
10.200999999999786,-0.04043130593413378,-0.49623178641587185
10.400999999999675,-0.10707768372160763,-0.5016024113214422
10.600999999999564,-0.17812098280272845,-0.5002786203226883
10.800999999999453,-0.24797534392457152,-0.49149543825205577
11.000999999999342,-0.30020108041887184,-0.4700452816250816
11.200999999999231,-0.33819250350738134,-0.43637212402256464
11.40099999999912,-0.33447278165900124,-0.3950539468739394
11.60099999999901,-0.3041550853828851,-0.3630691687188573
11.800999999998899,-0.25959007527009026,-0.36876343791550625
12.000999999998788,-0.2233021932846749,-0.40118781536106457
12.200999999998677,-0.1980928379127131,-0.4500866542773129
12.400999999998566,-0.17936868189630134,-0.4923745963646772
12.600999999998455,-0.17401491785977738,-0.5359905188924007
12.800999999998345,-0.18547545203047164,-0.5730672279314183
13.000999999998234,-0.22378988690545076,-0.5974354865907181
13.200999999998123,-0.27382402430796776,-0.5883149591863888
13.400999999998012,-0.3188671362038457,-0.561156174277735
13.600999999997901,-0.34701194846667194,-0.513298306746872
13.80099999999779,-0.359705011487969,-0.45953095218582185
14.00099999999768,-0.3656861778948878,-0.40019735331501843
14.200999999997569,-0.35316346612899424,-0.3435115146967628
14.400999999997458,-0.3267858531762052,-0.29716387109486936
14.600999999997347,-0.29192102501097855,-0.2846334304596344
14.800999999997236,-0.2529929922535728,-0.31134320926374215
15.000999999997125,-0.21287112290032983,-0.3538841679936086
15.200999999997014,-0.18222036952415294,-0.4200032408257101
15.400999999996904,-0.17164907844706329,-0.49124871030287004
15.600999999996793,-0.1913997006161363,-0.5584550101260416
15.800999999996682,-0.2343977972962299,-0.6109229526773001
16.000999999996573,-0.2906520896250924,-0.6450564532632296
16.200999999996817,-0.3494833896873534,-0.6736794787726735
16.40099999999706,-0.41389525433825575,-0.6938834703577459
16.600999999997306,-0.4865501567371226,-0.6871600322146899
16.80099999999755,-0.5567202280623803,-0.6540227551216306
17.000999999997795,-0.6112254128303023,-0.6044230347534592
17.20099999999804,-0.6232947344503571,-0.5494215541063227
17.400999999998284,-0.6054118789308647,-0.5051985261269543
17.60099999999853,-0.5694638747315136,-0.4823531444253878
17.800999999998773,-0.5287713016422471,-0.4775118572005851
18.000999999999017,-0.4802445900832628,-0.5003854393615969
18.20099999999926,-0.43455997595426943,-0.5432901456654912
18.400999999999506,-0.40426447603587234,-0.5953689383262729
18.60099999999975,-0.38556404452821075,-0.6484848166605884
18.799999999999994,-0.38570244201175197,-0.7136067213753207
19.000000000000238,-0.3942448627399172,-0.7810411291191204
19.200000000000482,-0.41055379674353243,-0.8506138466680753
19.400000000000727,-0.4176960484692934,-0.9289365214153026
19.60000000000097,-0.42216807042311266,-1.007914670634855
19.800000000001216,-0.4338593319432987,-1.0855951136600077
20.00000000000146,-0.4580736407894266,-1.1581750414833885
