Time (s),X (m),Y (m)
0.001,0.00048696676677933824,-0.0009960320817112695
0.20000000000000015,0.00018921134523078152,0.006654840540007699
0.4000000000000003,0.00511498630431116,0.00010166309426976668
0.6000000000000004,0.019267688948862497,-0.015127418613797811
0.8000000000000006,0.03900867211852595,-0.03945890808805847
1.0000000000000007,0.059621313807073854,-0.0695534053662308
1.2009999999999785,0.05895677298383142,-0.106598112538096
1.4009999999999565,0.040341823340266224,-0.14784703477002123
1.6009999999999345,0.01182979847335377,-0.16460018996245876
1.8009999999999124,-0.02468542415248657,-0.1573719650552941
2.0009999999998906,-0.06574113468051143,-0.13811849933380965
2.2009999999998686,-0.10638919190005937,-0.08971252637009107
2.4009999999998466,-0.13528872014840082,-0.028436993887645326
2.6009999999998246,-0.15278649562424523,0.02826228999139415
2.8009999999998025,-0.19644468490357647,0.06972312761927386
3.0009999999997805,-0.23152859746996934,0.11148250111624468
3.2009999999997585,-0.2508171400707542,0.15659429928160065
3.4009999999997365,-0.24036547924217297,0.20486458810575142
3.6009999999997144,-0.2103328414313709,0.25224584589645277
3.8009999999996924,-0.1755982756855306,0.3075512332313733
4.000999999999671,-0.13522378528001824,0.35846478059060144
4.200999999999738,-0.09119205304237155,0.4069712666288547
4.400999999999804,-0.05545852120282747,0.4755920832687549
4.600999999999871,-0.014808569328211044,0.5394915787751208
4.800999999999938,0.024797563159934803,0.5990548882008053
5.000000000000004,0.07094044714442613,0.6479257254294297
5.200000000000071,0.13087394226839547,0.6883537336735526
5.400000000000138,0.19701154851726635,0.7079628545100497
5.600000000000205,0.2661131624609448,0.6859834875030837
5.800000000000272,0.3430740791533191,0.6626118556384706
6.000000000000338,0.4096278711163824,0.6206341303061422
6.200000000000405,0.47013877484397765,0.5658020408814157
6.400000000000472,0.5387290041335385,0.5143772781460298
6.600000000000539,0.5926497462562862,0.45872907400045854
6.800000000000606,0.6091845256441354,0.3985067640240211
7.000000000000672,0.5990880534755523,0.3320588198795956
7.200000000000739,0.55741273410782,0.2726654777237506
7.400000000000806,0.5000490732562949,0.22496759935993316
7.600000000000873,0.433426843478696,0.18522110417380952
7.8000000000009395,0.3693468831920478,0.13694009565524504
8.000000000001005,0.30817183172206747,0.08605481272765317
8.200000000000895,0.2467083179824689,0.03490964001453269
8.400000000000784,0.18430299813982634,-0.007340555443721229
8.600000000000673,0.12058130088126381,-0.04231761267643228
8.800000000000562,0.053633993316707276,-0.051439846405945275
9.000000000000451,-0.014559328246437847,-0.037600115520283674
9.20000000000034,-0.07311761038331299,-0.005229168086708048
9.40000000000023,-0.1226867999030361,0.04220188363518616
9.600000000000119,-0.16393980707538516,0.0959369434398254
9.800000000000008,-0.1976598599363415,0.1534654654812631
10.000999999999896,-0.20374062458934786,0.21248259683218787
10.200999999999786,-0.17925567197637118,0.2700175285256518
10.400999999999675,-0.13865650408204977,0.32428196951280447
10.600999999999564,-0.08849186666836813,0.37935382938417006
10.800999999999453,-0.037000103307228714,0.4401110234677024
11.000999999999342,0.01717090989088425,0.4853409288680946
11.200999999999231,0.07885490247822645,0.5135435544894602
11.40099999999912,0.15330373123566757,0.5340164482333267
11.60099999999901,0.22844718099497252,0.5386119501831753
11.800999999998899,0.28933315303023993,0.5157590083572213
12.000999999998788,0.3532217304148782,0.4830612772279877
12.200999999998677,0.42154672696340295,0.4602657300814191
12.400999999998566,0.4730801953383658,0.40693670895186984
12.600999999998455,0.5241291465009479,0.3506000519445846
12.800999999998345,0.5738991087623028,0.29826495899687216
13.000999999998234,0.6125030362962296,0.2467290554707793
13.200999999998123,0.6113326499153803,0.18975521251220667
13.400999999998012,0.5637144287837474,0.13343702161884327
13.600999999997901,0.5154477815123091,0.0755247931661351
13.80099999999779,0.45235049770398317,0.026792879434458454
14.00099999999768,0.387712000917272,-0.004669632135937533
14.200999999997569,0.3155815511160937,-0.04339831055812514
14.400999999997458,0.23812390121643046,-0.05231347652149725
14.600999999997347,0.1728422210742724,-0.03439002352810879
14.800999999997236,0.12837140774931768,-0.00015840864143316973
15.000999999997125,0.11145144875060956,0.044502693982578445
15.200999999997014,0.1124578471137736,0.10046240159823434
15.400999999996904,0.13213041936055311,0.1598150169403682
15.600999999996793,0.16970428402262003,0.21241376158709324
15.800999999996682,0.21583471299015655,0.2552709452478581
16.000999999996573,0.2685312667872868,0.28713497049730596
16.200999999996817,0.3269290352499838,0.29875107231669457
16.40099999999706,0.38106590028660375,0.28290771276252885
16.600999999997306,0.42960389274850286,0.24218425013936257
16.80099999999755,0.48180651139637437,0.18864898650285242
17.000999999997795,0.5209298883060899,0.13017586059502972
17.20099999999804,0.5516577458926882,0.061502513567345866
17.400999999998284,0.5615022247301762,-0.003892512715560516
17.60099999999853,0.5531632786926154,-0.06923256478745674
17.800999999998773,0.5253870613747994,-0.1382206215259948
18.000999999999017,0.4930061843113273,-0.20478545613717766
18.20099999999926,0.43728894281864783,-0.2522678751097266
18.400999999999506,0.3821495863526902,-0.2970607836210091
18.60099999999975,0.3169249392181488,-0.33463202864086306
18.799999999999994,0.24590802788637217,-0.3452057190418376
19.000000000000238,0.17096460332056937,-0.33059998546189096
19.200000000000482,0.10597773528510109,-0.29674766944036207
19.400000000000727,0.0551555415348334,-0.25474093625640254
19.60000000000097,0.01676807274119988,-0.20323663025641933
19.800000000001216,0.008583132695840502,-0.14695098910371543
20.00000000000146,0.02232528690436186,-0.08196385361708654
