Time (s),X (m),Y (m)
0.001,0.0012355833006349717,-0.00017906049427360483
0.20000000000000015,-0.0017758373053033804,0.001213414982322076
0.4000000000000003,-0.001547389274144574,0.0004085484771051924
0.6000000000000004,-0.0034105362012869928,0.002630098073440403
0.8000000000000006,0.001336208315661603,0.0016271200838694924
1.0000000000000007,0.00802000766492711,0.0004858861949196954
1.2009999999999785,0.01366887292647828,-0.00129034285974951
1.4009999999999565,0.018459382722353306,-0.0031790964814198196
1.6009999999999345,0.023413475334239,-0.003403640813348221
1.8009999999999124,0.02747214800652981,-0.0028802644210500403
2.0009999999998906,0.03199287542066312,-0.0034551569475235397
2.2009999999998686,0.03616509633353424,-0.003583963035184012
2.4009999999998466,0.04055538580809617,-0.0031000148438115305
2.6009999999998246,0.04355364225636535,-0.002506046249333406
2.8009999999998025,0.04749120145795594,-0.001804371837372531
3.0009999999997805,0.0497478158428873,-0.0007955205416442418
3.2009999999997585,0.05159358708010452,0.0004947494785591683
3.4009999999997365,0.05308547116779538,0.0012857785063228313
3.6009999999997144,0.0553500857255555,0.002377014902264512
3.8009999999996924,0.05701249972846089,0.0033092264716186866
4.000999999999671,0.058534028029813154,0.004505735786175481
4.200999999999738,0.060681919674975174,0.005714905564492076
4.400999999999804,0.06219222176906474,0.007024502426292751
4.600999999999871,0.06413152987341653,0.007904285961865402
4.800999999999938,0.0664967826894996,0.009175566701319275
5.000000000000004,0.06869906762351026,0.01058446013473897
5.200000000000071,0.07096954653502155,0.01232576007164502
5.400000000000138,0.0725813399553704,0.013891450508644336
5.600000000000205,0.07518806372334141,0.015126556450502347
5.800000000000272,0.07754856354702186,0.01682776540352866
6.000000000000338,0.07948568081918034,0.01887221015074454
6.200000000000405,0.0813165184835469,0.020448884427733932
6.400000000000472,0.08371170044791629,0.021659912993567537
6.600000000000539,0.08592827400769942,0.023375018487474565
6.800000000000606,0.08810469355002275,0.025034553203540574
7.000000000000672,0.09004617246898333,0.026320647091013047
7.200000000000739,0.09207737592505333,0.02773547385756117
7.400000000000806,0.09440827249968001,0.029378353020279406
7.600000000000873,0.09685791956118397,0.03152583607241112
7.8000000000009395,0.09932349699956206,0.033241852672251195
8.000000000001005,0.10220591034175343,0.03488470632108726
8.200000000000895,0.10565974557750235,0.03699310448362849
8.400000000000784,0.10794570775538166,0.038815802382604514
8.600000000000673,0.11031239173336241,0.04130657476022511
8.800000000000562,0.11296584908014425,0.0433995426489332
9.000000000000451,0.1154834962005289,0.04547944781166618
9.20000000000034,0.11810956491996351,0.04760822630010852
9.40000000000023,0.1206090269801546,0.049776105526412144
9.600000000000119,0.12318738642289093,0.05210593553952337
9.800000000000008,0.1260550035191045,0.05464983933938537
10.000999999999896,0.12911619874848373,0.057201654411460766
10.200999999999786,0.13218454167998928,0.059739515939982835
10.400999999999675,0.13500378796476697,0.062275658917688194
10.600999999999564,0.13770280859509007,0.06507022700304588
10.800999999999453,0.14104564918879012,0.0678997370638099
11.000999999999342,0.14378130594929106,0.07080629336286234
11.200999999999231,0.14663728930529657,0.07371639260278495
11.40099999999912,0.14962799177211608,0.07678844217016671
11.60099999999901,0.1527862930359523,0.07990433317528864
11.800999999998899,0.15572330176617732,0.08304602524894242
12.000999999998788,0.15858723894333715,0.08618522089576115
12.200999999998677,0.16150327916282234,0.08944277234909268
12.400999999998566,0.16434620737838587,0.09262327957227316
12.600999999998455,0.1672152481995659,0.0959032874356477
12.800999999998345,0.17019733453716285,0.09915997547268204
13.000999999998234,0.17344010995729522,0.10249704116285092
13.200999999998123,0.17629766398424407,0.10646934516538768
13.400999999998012,0.17990959805969947,0.10996446733883572
13.600999999997901,0.1829841965856316,0.11361892994579662
13.80099999999779,0.18609845935369063,0.11724011456159085
14.00099999999768,0.189379523584785,0.12138830331436364
14.200999999997569,0.1926273369502641,0.12503357165031248
14.400999999997458,0.1959880905987797,0.12860249054513462
14.600999999997347,0.1987772889222626,0.13216231144411036
14.800999999997236,0.2020845888108928,0.13596261687396413
15.000999999997125,0.20538552775973482,0.14012660538144828
15.200999999997014,0.2087781628199584,0.14435330328102705
15.400999999996904,0.2118559954071843,0.14833524554531796
15.600999999996793,0.21544742305492817,0.152742491724354
15.800999999996682,0.2190265447314872,0.156743845755703
16.000999999996573,0.2223248498151767,0.16066290365919897
16.200999999996817,0.2254623728765103,0.16461360228126232
16.40099999999706,0.22867901396269147,0.16900405726084233
16.600999999997306,0.23191042544554336,0.17329421101861578
16.80099999999755,0.23513661808488073,0.17798402034810074
17.000999999997795,0.2385808657304928,0.18229121477589824
17.20099999999804,0.2419386179569892,0.1871736230460167
17.400999999998284,0.24517999787012087,0.1917130420980101
17.60099999999853,0.24871688163522562,0.19640157608676156
17.800999999998773,0.252104911402197,0.20041836516702746
18.000999999999017,0.25525308914234235,0.20522471189961125
18.20099999999926,0.25838859696979405,0.21023540322736262
18.400999999999506,0.2618461595354157,0.21480808589681308
18.60099999999975,0.2655375390087249,0.21960324823593347
18.799999999999994,0.2684944967659107,0.22434014897071958
19.000000000000238,0.27173534256061205,0.22955226540601975
19.200000000000482,0.27569827246123657,0.23517803959093234
19.400000000000727,0.279071560910477,0.23981742012901525
19.60000000000097,0.2824209677018696,0.24462555137380243
19.800000000001216,0.28540388077114154,0.25027005114582285
20.00000000000146,0.288842034241838,0.2555596629989604
