Time (s),X (m),Y (m)
0.001,0.0011130987088041246,0.0005155841445599734
0.20000000000000015,-0.0006059279577581351,-0.0013492639186704263
0.4000000000000003,0.006596488512770504,0.0045065842693091385
0.6000000000000004,0.01096981882495095,0.0033662599541285257
0.8000000000000006,0.009155094722152686,0.0028428689879153985
1.0000000000000007,0.004341097400156773,0.005748616073571017
1.2009999999999785,0.02188727162464596,0.014067008764265676
1.4009999999999565,0.025464519905274548,0.013203188582866971
1.6009999999999345,0.030914486660052278,0.012246369320914273
1.8009999999999124,0.03934904948428672,0.01186406952072552
2.0009999999998906,0.04818480384142737,0.01077241434875245
2.2009999999998686,0.05809807481701056,0.01038835840454041
2.4009999999998466,0.07121411030630088,0.013936179140893287
2.6009999999998246,0.07990524648466846,0.01240182082870899
2.8009999999998025,0.09172406503669235,0.008896805266546279
3.0009999999997805,0.10530640781203075,0.007885056470368666
3.2009999999997585,0.11457807033450446,0.007434974443968387
3.4009999999997365,0.12661919662791155,0.00403542356255112
3.6009999999997144,0.13528677160441546,0.0036958382149572264
3.8009999999996924,0.1521305217147348,0.0073245910714612806
4.000999999999671,0.17069263344372831,0.010249688760385288
4.200999999999738,0.181892700498231,0.0089128216132281
4.400999999999804,0.19856399724243498,0.0071140646533677555
4.600999999999871,0.2008441285200512,0.0006209507709546183
4.800999999999938,0.21136806505942518,-0.007008744806070456
5.000000000000004,0.23033646453204631,-0.01465158084395919
5.200000000000071,0.2504875546981992,-0.02623913769124585
5.400000000000138,0.2701991631910432,-0.031648420970494286
5.600000000000205,0.28979183738894154,-0.037776522485043276
5.800000000000272,0.3048325109207912,-0.04637759484321996
6.000000000000338,0.3222782328831938,-0.05616499640265981
6.200000000000405,0.33884742363795944,-0.06370208689638944
6.400000000000472,0.3494957876752389,-0.0667487574179315
6.600000000000539,0.3636110374457733,-0.07164943302450243
6.800000000000606,0.3740064171225503,-0.08161603991902085
7.000000000000672,0.3906331639343089,-0.09388009280559442
7.200000000000739,0.40293199329225976,-0.10060208036635891
7.400000000000806,0.41571223862118,-0.1124790604759642
7.600000000000873,0.43067378810028306,-0.12663927985455606
7.8000000000009395,0.4483651862986421,-0.13807468859352148
8.000000000001005,0.46228315834498185,-0.14920229681973737
8.200000000000895,0.4920033803581785,-0.1592188889236728
8.400000000000784,0.5174498937904133,-0.16996261302448554
8.600000000000673,0.5327837949497005,-0.18117901841713946
8.800000000000562,0.5440575704781773,-0.19593639063480608
9.000000000000451,0.5569297399858384,-0.21168896485883565
9.20000000000034,0.5717431972410268,-0.22324764325140156
9.40000000000023,0.5936912551565324,-0.23198870006809175
9.600000000000119,0.6012372931561291,-0.23620548652014536
9.800000000000008,0.6101286200218214,-0.24090489504177923
10.000999999999896,0.623415112978764,-0.24720790715772395
10.200999999999786,0.6442252858986174,-0.25214811140731713
10.400999999999675,0.6552886115204433,-0.2619225696402205
10.600999999999564,0.670631580852636,-0.26994256108634074
10.800999999999453,0.6953102137895303,-0.2770185640237397
11.000999999999342,0.714865085406064,-0.283707886907919
11.200999999999231,0.7255776426538706,-0.2943390311094739
11.40099999999912,0.7375588390621111,-0.29983694087066937
11.60099999999901,0.7575765073594841,-0.3051955628920677
11.800999999998899,0.7832442055527337,-0.3121831063183697
12.000999999998788,0.795392504957053,-0.3181620543155047
12.200999999998677,0.8085194038580847,-0.31711238598208324
12.400999999998566,0.8264482455121719,-0.31827804815133565
12.600999999998455,0.8367851917717823,-0.32427261968926374
12.800999999998345,0.8466951170972256,-0.3311086999688207
13.000999999998234,0.8617460348706304,-0.33680583331197395
13.200999999998123,0.8821478734496182,-0.35048239854067353
13.400999999998012,0.8983493728368689,-0.3625961426716932
13.600999999997901,0.9076191171226863,-0.37086148512703765
13.80099999999779,0.9290814517489884,-0.37408352769734865
14.00099999999768,0.9416497755878526,-0.39083288665373433
14.200999999997569,0.958837490725204,-0.4011616446441085
14.400999999997458,0.973362747761269,-0.4083856548732968
14.600999999997347,0.9958991622686121,-0.4087824849692405
14.800999999997236,1.0218436067102075,-0.41429612326119925
15.000999999997125,1.0378412664398315,-0.4144949343940693
15.200999999997014,1.0526922857222352,-0.41689185292333175
15.400999999996904,1.076666392835667,-0.42088201912196826
15.600999999996793,1.0952507774386673,-0.42469484506282107
15.800999999996682,1.1159815503401205,-0.43122165981516564
16.000999999996573,1.13155809714986,-0.4315373973859729
16.200999999996817,1.1441166526791393,-0.4423420523749282
16.40099999999706,1.1533930458794195,-0.44848498650862884
16.600999999997306,1.1677623354356035,-0.45653794143942844
16.80099999999755,1.1835477113405108,-0.4696305008426605
17.000999999997795,1.1922998355962284,-0.4829710115325185
17.20099999999804,1.2092996482351184,-0.49268043849345516
17.400999999998284,1.2217413546269282,-0.49354221298960443
17.60099999999853,1.237859216548757,-0.49359529910731426
17.800999999998773,1.2544475913173905,-0.4999714244074905
18.000999999999017,1.270332513754833,-0.4993419318085147
18.20099999999926,1.288795268510245,-0.4991954681459486
18.400999999999506,1.310217777398922,-0.4926552889603689
18.60099999999975,1.323821212555745,-0.4847053076593842
18.799999999999994,1.3438944664017582,-0.4793506782632156
19.000000000000238,1.3623972470820402,-0.4836541659609914
19.200000000000482,1.380421176367518,-0.4858339982790628
19.400000000000727,1.3977760037308458,-0.4902597669386339
19.60000000000097,1.4145013852639645,-0.49391506369702987
19.800000000001216,1.4336845190921317,-0.4949579698555124
20.00000000000146,1.4478649523772587,-0.49490804087422857
