Time (s),X (m),Y (m)
0.001,-0.0007144750753253542,0.00043579054991000265
0.20000000000000015,0.0003081014054884831,0.0007722249805500869
0.4000000000000003,-0.00595105188051996,0.0035661941559057488
0.6000000000000004,-0.004257282228755297,0.0031576147206176866
0.8000000000000006,-0.0016041470200622286,0.002547989283485104
1.0000000000000007,0.0017021465524550158,0.0017780236718071332
1.2009999999999785,0.0035791697138197447,0.0012792488498014182
1.4009999999999565,0.005354823863153184,0.0004960096370939519
1.6009999999999345,0.006946456286351556,-0.00024112842013011542
1.8009999999999124,0.00845354472010361,-0.0009846440018703607
2.0009999999998906,0.009925944117849578,-0.001666099055452074
2.2009999999998686,0.011102285067040028,-0.0021981849277582823
2.4009999999998466,0.01239509269462475,-0.002791492605726279
2.6009999999998246,0.013781339576201644,-0.003473943669316254
2.8009999999998025,0.015359499969883386,-0.004130325072089932
3.0009999999997805,0.017032597460235357,-0.004897455164938208
3.2009999999997585,0.018488482005305854,-0.00544935098830319
3.4009999999997365,0.020250491764475773,-0.006230652576433117
3.6009999999997144,0.02205719141618433,-0.006885655619325352
3.8009999999996924,0.023869332139240428,-0.007553913286488897
4.000999999999671,0.02573049892705312,-0.008242656180369106
4.200999999999738,0.02761452497933343,-0.008931936626913531
4.400999999999804,0.029531938814389456,-0.009628330045656653
4.600999999999871,0.03128770255175152,-0.010309184586000456
4.800999999999938,0.03329344274655823,-0.011042455086058483
5.000000000000004,0.03532595972839215,-0.011734327123284248
5.200000000000071,0.0374667048262206,-0.01243187079367225
5.400000000000138,0.03962522976883704,-0.01310952364783996
5.600000000000205,0.041793478949341545,-0.013774205157951913
5.800000000000272,0.04396676704392055,-0.014424886132391304
6.000000000000338,0.046160443113800874,-0.015066317101970345
6.200000000000405,0.04838524182883713,-0.015692345977850474
6.400000000000472,0.0507031264893856,-0.016316126630225605
6.600000000000539,0.05299371141120802,-0.016907332534136312
6.800000000000606,0.0552872834585099,-0.017467231374314586
7.000000000000672,0.057642429367840226,-0.018032852573038542
7.200000000000739,0.06002838857743133,-0.018612406872932218
7.400000000000806,0.06251907464805935,-0.019189040980539182
7.600000000000873,0.0649551841858657,-0.019715193118564345
7.8000000000009395,0.06741085128625082,-0.02024144851784715
8.000000000001005,0.0700193623323314,-0.020774105276256394
8.200000000000895,0.07262947921265477,-0.02128783608677783
8.400000000000784,0.07510273125565536,-0.021732838890811127
8.600000000000673,0.07791021848477882,-0.022249811751896307
8.800000000000562,0.08061341080408727,-0.02272001830627681
9.000000000000451,0.08335625015242737,-0.023110300220329616
9.20000000000034,0.08610578260385578,-0.023542979043040518
9.40000000000023,0.08894788502704064,-0.023946520354209026
9.600000000000119,0.09163428548743609,-0.024253091424795734
9.800000000000008,0.09454365031157105,-0.02456820847042612
10.000999999999896,0.09734126964697865,-0.024807954901516622
10.200999999999786,0.10013412135169525,-0.025049000162216294
10.400999999999675,0.10293309823331136,-0.025260905831179643
10.600999999999564,0.10573470761215391,-0.02547715284914906
10.800999999999453,0.10833855405286091,-0.025614951204276787
11.000999999999342,0.11116613685693924,-0.025702688062510717
11.200999999999231,0.11434839765892069,-0.025818730655771834
11.40099999999912,0.11736257918720275,-0.025834584718063117
11.60099999999901,0.1200987416478777,-0.025787528616916848
11.800999999998899,0.12302726403343746,-0.025711123308508544
12.000999999998788,0.125862674687413,-0.025575771370306526
12.200999999998677,0.12875227254863683,-0.02536109802668605
12.400999999998566,0.13186455557317564,-0.02507901121310176
12.600999999998455,0.13502010187055882,-0.024748065931221325
12.800999999998345,0.13816782203780656,-0.024304479021957186
13.000999999998234,0.14134665937228444,-0.023801994980881837
13.200999999998123,0.1445880254161732,-0.023196058520115408
13.400999999998012,0.14777016717884664,-0.022488132385207537
13.600999999997901,0.15095270909322747,-0.02171146626258172
13.80099999999779,0.15396149079594265,-0.02084853274426916
14.00099999999768,0.15726722831470052,-0.019864136062406335
14.200999999997569,0.16022204699573442,-0.018863352708992785
14.400999999997458,0.16320630344180517,-0.01767911549626076
14.600999999997347,0.16618230037722537,-0.01648733325379523
14.800999999997236,0.169349888989981,-0.014968744760798975
15.000999999997125,0.1724494150440452,-0.01334263340958764
15.200999999997014,0.17578377917864024,-0.011481202944521617
15.400999999996904,0.17885284501230939,-0.009562944202166778
15.600999999996793,0.1825390532150629,-0.007251265347839253
15.800999999996682,0.18552307895941356,-0.005075331785530916
16.000999999996573,0.18921157738755898,-0.002570309840516336
16.200999999996817,0.19216361860746667,-0.00024909835661955345
16.40099999999706,0.19543892317438288,0.004322020970019088
16.600999999997306,0.19917881485572742,0.012436405058818276
16.80099999999755,0.20346038570074385,0.019138777002808048
17.000999999997795,0.20764124663714909,0.027100095757724613
17.20099999999804,0.21112200534926923,0.03575131140554747
17.400999999998284,0.2149159701013726,0.04159068040050751
17.60099999999853,0.2186638564707025,0.050338572779846984
17.800999999998773,0.22217702947797285,0.05741592136242124
18.000999999999017,0.22531692773799183,0.06393860703721063
18.20099999999926,0.2285348006083276,0.0730158939182127
18.400999999999506,0.23205647003838403,0.08029808086184642
18.60099999999975,0.2358725939421905,0.08674460075975764
18.799999999999994,0.23925412660372017,0.0923125416707184
19.000000000000238,0.24227220282014267,0.09773897913454305
19.200000000000482,0.24535530614503656,0.1033265667179899
19.400000000000727,0.24813047783116704,0.10860616966881813
19.60000000000097,0.250456081160173,0.11363880767975378
19.800000000001216,0.25289391632996183,0.11886376988277204
20.00000000000146,0.2549947145018313,0.12385679974136177
