Time (s),X (m),Y (m)
0.001,-0.0004427414248986554,-0.0007899207378008392
0.20000000000000015,0.004109624282379595,0.0024286111673767615
0.4000000000000003,0.011940355027012323,0.006565335787751568
0.6000000000000004,0.016602174124151485,8.838799300390673e-05
0.8000000000000006,0.029369349671050093,0.0014934020438862362
1.0000000000000007,0.0442306984268124,0.005235300966896453
1.2009999999999785,0.054860947465812,0.007534407021001943
1.4009999999999565,0.06743379143792469,0.016049929961937486
1.6009999999999345,0.08371025536870567,0.015531222241588098
1.8009999999999124,0.0996086817848943,0.020398340581726442
2.0009999999998906,0.11417818987170623,0.025986822714260227
2.2009999999998686,0.13514495602110488,0.036090823474815556
2.4009999999998466,0.15227585054827092,0.040702454943664895
2.6009999999998246,0.16338942740792137,0.050716060522929526
2.8009999999998025,0.17728242882440332,0.049701585927136395
3.0009999999997805,0.19484171608380302,0.05043677666701244
3.2009999999997585,0.20577963343863886,0.06129727324744387
3.4009999999997365,0.22725207162306793,0.07331518320329485
3.6009999999997144,0.24672134659631675,0.09505427163791326
3.8009999999996924,0.26216824115441684,0.11280407456522878
4.000999999999671,0.2747440357152525,0.1359888866930068
4.200999999999738,0.2910569933538672,0.15262868484606332
4.400999999999804,0.30633282588533206,0.15813696891986884
4.600999999999871,0.3196762621263659,0.1671040873734884
4.800999999999938,0.33685214478518155,0.172034312334385
5.000000000000004,0.35007186995333917,0.17709278846245385
5.200000000000071,0.36130799845574624,0.17564435029430459
5.400000000000138,0.37414210837914197,0.18272599874758108
5.600000000000205,0.3916613540998013,0.1935226526305164
5.800000000000272,0.40729287063787983,0.2070039932865216
6.000000000000338,0.42619377377714357,0.2118091756407093
6.200000000000405,0.4441737001523983,0.22104345464132502
6.400000000000472,0.46006074263009417,0.22682118266752854
6.600000000000539,0.47678766978115045,0.23750402347079205
6.800000000000606,0.4949157213335949,0.25564459837429704
7.000000000000672,0.5213777610654846,0.2726009092362925
7.200000000000739,0.5378546716119237,0.2958724822830476
7.400000000000806,0.5526841853091292,0.31194786535286106
7.600000000000873,0.5616528910047536,0.32909307330817716
7.8000000000009395,0.5758143852155035,0.3429526369969754
8.000000000001005,0.5926780004162845,0.3543017846308062
8.200000000000895,0.6058044473273054,0.3737806911767774
8.400000000000784,0.6116333548278449,0.3937654701602043
8.600000000000673,0.6214602287173046,0.4042367708627458
8.800000000000562,0.6372867659348272,0.41783083409497207
9.000000000000451,0.6552381633168621,0.43140536184985756
9.20000000000034,0.6585273754045636,0.4559951572342901
9.40000000000023,0.6618622800729305,0.47171578673610265
9.600000000000119,0.6615234803513853,0.49176057317063016
9.800000000000008,0.6673257360936047,0.5046677305334825
10.000999999999896,0.6796230108044093,0.5154262573659015
10.200999999999786,0.6847303741968066,0.5369907103146929
10.400999999999675,0.6873614704643177,0.5615137882902229
10.600999999999564,0.6947806861401513,0.5784755707385996
10.800999999999453,0.6999164678853248,0.5912191335516982
11.000999999999342,0.7010799133719638,0.608863802525895
11.200999999999231,0.7033880648839538,0.6311248292212136
11.40099999999912,0.7059484975190276,0.6538395430305423
11.60099999999901,0.7062894826542906,0.6728804534054703
11.800999999998899,0.7089341869979058,0.6947497350145821
12.000999999998788,0.7155257412658617,0.7102288162933177
12.200999999998677,0.7304280535286226,0.7324192906722425
12.400999999998566,0.7402604445168264,0.7572441518404881
12.600999999998455,0.7395687223998105,0.7766997385829031
12.800999999998345,0.7390870698838214,0.8043916058465339
13.000999999998234,0.741692739319683,0.8347964732291105
13.200999999998123,0.7500612051607486,0.8521898825314425
13.400999999998012,0.7531861913254267,0.8745234006492532
13.600999999997901,0.7553276323623808,0.8977596334330946
13.80099999999779,0.7575575731958039,0.9179827574835592
14.00099999999768,0.7667146127008688,0.9360159711783244
14.200999999997569,0.7737224087051691,0.9508352916594953
14.400999999997458,0.7793122500686636,0.9718830195512146
14.600999999997347,0.7826801819982525,0.9985068187020834
14.800999999997236,0.7895803035571549,1.0254537998293887
15.000999999997125,0.7970998878389394,1.0455855104933904
15.200999999997014,0.8012905596381192,1.0694403063070095
15.400999999996904,0.8032237639097742,1.0971498647181253
15.600999999996793,0.8075023591396501,1.1165957023397632
15.800999999996682,0.8055497069338806,1.1430523901149001
16.000999999996573,0.8043438314714628,1.1691784458345595
16.200999999996817,0.8145587564539517,1.188791642573116
16.40099999999706,0.8089692380849501,1.2150753754841346
16.600999999997306,0.8074240366451094,1.246392922354788
16.80099999999755,0.8072468439967144,1.2729352668399383
17.000999999997795,0.8097189192855071,1.303298345994992
17.20099999999804,0.8060670381780286,1.334409445489756
17.400999999998284,0.7952648621842101,1.3644571350690733
17.60099999999853,0.7843511307401572,1.3893990108776817
17.800999999998773,0.77845645570731,1.412934686886909
18.000999999999017,0.774199530575291,1.4348901179259774
18.20099999999926,0.7697725844583383,1.4535804438516433
18.400999999999506,0.770239774470609,1.4732019507790457
18.60099999999975,0.7610410601741037,1.4907506359224658
18.799999999999994,0.7511657197430933,1.51298654906304
19.000000000000238,0.728198219081838,1.5373040633390447
19.200000000000482,0.7072940745474824,1.5610039787261865
19.400000000000727,0.6835595781683298,1.5857100115144043
19.60000000000097,0.6561971508002039,1.6094059159156915
19.800000000001216,0.6325046433176371,1.6330036323564845
20.00000000000146,0.6125668664989359,1.6531868478683083
