Time (s),X (m),Y (m)
0.001,0.0012355833006349724,0.00017906049427360518
0.20000000000000015,-0.0007822336491193001,-0.0006856342578251899
0.4000000000000003,0.005671218415497158,-0.002018649377077794
0.6000000000000004,0.008903490243400314,0.0013096890543912393
0.8000000000000006,0.021044873238505336,0.006467537703966807
1.0000000000000007,0.030943389429635926,0.004678594552649796
1.2009999999999785,0.06486977303640581,-0.0006403845727133539
1.4009999999999565,0.08386008491564365,-0.006841575407195968
1.6009999999999345,0.10980202265396222,-0.007623058849675639
1.8009999999999124,0.12466882583675219,-0.008770624943485905
2.0009999999998906,0.12830349055373233,-0.014012489090468053
2.2009999999998686,0.1300860999175008,-0.01874666556309585
2.4009999999998466,0.1483053271341089,-0.022235895334742777
2.6009999999998246,0.16722949270154505,-0.03374515126955578
2.8009999999998025,0.17707263767165787,-0.044824171411289235
3.0009999999997805,0.20372911623016998,-0.05393384867332233
3.2009999999997585,0.23090595882362222,-0.06894683606816064
3.4009999999997365,0.2565640639532189,-0.08881300279576215
3.6009999999997144,0.2694538672705284,-0.10315710926507875
3.8009999999996924,0.29970218520618325,-0.11895748689999083
4.000999999999671,0.32924003408492547,-0.1355257136148305
4.200999999999738,0.3622044389200445,-0.15472372210168894
4.400999999999804,0.39989179980613576,-0.17030989011121533
4.600999999999871,0.43512831539914587,-0.1903790491501614
4.800999999999938,0.47308014603975473,-0.2071554461400376
5.000000000000004,0.5037469240790213,-0.2231049320034895
5.200000000000071,0.5466504626899076,-0.24822603174226274
5.400000000000138,0.5827636341997188,-0.27427753452943904
5.600000000000205,0.6212187851859604,-0.31291589153314975
5.800000000000272,0.6618786038680519,-0.3510247670375611
6.000000000000338,0.6891943754009351,-0.39862450290704915
6.200000000000405,0.6930261444523536,-0.43823048010335675
6.400000000000472,0.6856560116705802,-0.4686263277347445
6.600000000000539,0.6748089357512572,-0.5006745325823906
6.800000000000606,0.6590869387466908,-0.5384627503469067
7.000000000000672,0.6414994834732759,-0.5801614210848632
7.200000000000739,0.6218252363581591,-0.6163993529100287
7.400000000000806,0.6013499961591184,-0.6520055402897962
7.600000000000873,0.5791382987413165,-0.6889652835477068
7.8000000000009395,0.5542230736702638,-0.7203719729170974
8.000000000001005,0.525123696283009,-0.7618992157087237
8.200000000000895,0.49473237395296876,-0.8147686304818061
8.400000000000784,0.4695870055637641,-0.860140890530528
8.600000000000673,0.44548173587652545,-0.9049692184323767
8.800000000000562,0.41426606677187916,-0.9487046014109071
9.000000000000451,0.37457010762976073,-0.9954054201121086
9.20000000000034,0.33478242289752785,-1.0450715787642664
9.40000000000023,0.2952304539097173,-1.0924233865366095
9.600000000000119,0.2502565662357768,-1.1460896653292787
9.800000000000008,0.20725091467594514,-1.1982157368225572
10.000999999999896,0.17559229581706384,-1.2424711053788957
10.200999999999786,0.13967736418219923,-1.2759348105047967
10.400999999999675,0.09524337337185275,-1.2933731138939308
10.600999999999564,0.05472939871565727,-1.30011481874295
10.800999999999453,0.006358426663004856,-1.300984796555956
11.000999999999342,-0.050527822046980995,-1.2869249795271875
11.200999999999231,-0.09861784467668253,-1.2646198337256824
11.40099999999912,-0.15068660785890414,-1.2377976765084941
11.60099999999901,-0.2036272767994367,-1.2126713526495532
11.800999999998899,-0.25770650639010384,-1.1854734994248264
12.000999999998788,-0.30533006831168885,-1.1542763703165166
12.200999999998677,-0.35356647954336706,-1.117555466645057
12.400999999998566,-0.4007791998658703,-1.078580089008335
12.600999999998455,-0.44943781862362686,-1.033441086330073
12.800999999998345,-0.48532678414618524,-0.9880510244078232
13.000999999998234,-0.49605567673827583,-0.9430172321357994
13.200999999998123,-0.4804059357231407,-0.897258351616308
13.400999999998012,-0.4544571165970143,-0.8492359559268818
13.600999999997901,-0.4333185384620448,-0.7997114139063375
13.80099999999779,-0.40667715363918844,-0.748308385897711
14.00099999999768,-0.3827740553293369,-0.710441570848258
14.200999999997569,-0.3609189385554849,-0.6792893939428092
14.400999999997458,-0.3372673582591859,-0.6452642690571513
14.600999999997347,-0.3067944554438485,-0.5903812065752508
14.800999999997236,-0.27742617180588347,-0.5451940844685634
15.000999999997125,-0.24697563339505463,-0.4984524382838016
15.200999999997014,-0.21053697939370314,-0.4379230305319246
15.400999999996904,-0.17091661567742666,-0.38054282229925684
15.600999999996793,-0.13041546331993542,-0.32459579706110153
15.800999999996682,-0.08963749221572256,-0.2706609609040396
16.000999999996573,-0.06002411275562112,-0.2334731658428441
16.200999999996817,-0.024785264604900194,-0.1809201720463272
16.40099999999706,0.010589114508265917,-0.13076561499978356
16.600999999997306,0.049991263453068695,-0.08638542031868446
16.80099999999755,0.09150576303651818,-0.03522713326850859
17.000999999997795,0.13881686543652422,0.014817129190461334
17.20099999999804,0.19152531048685928,0.055201420837356956
17.400999999998284,0.24707511690740516,0.08283270161598795
17.60099999999853,0.29565899945156415,0.0932433420517968
17.800999999998773,0.3512923542295207,0.09135672125962195
18.000999999999017,0.40147405913240014,0.08187124154641749
18.20099999999926,0.44346523391890513,0.06161465877222269
18.400999999999506,0.48302644914005205,0.03998929715530877
18.60099999999975,0.5272012412622975,0.012695209018181592
18.799999999999994,0.5658410410301783,-0.018464627832392503
19.000000000000238,0.6043865260822877,-0.04578318702362285
19.200000000000482,0.6537339691814147,-0.08101435010236291
19.400000000000727,0.7049453524884515,-0.11959129319642688
19.60000000000097,0.755969337472624,-0.1644911996805458
19.800000000001216,0.7981696160618861,-0.20097012637367104
20.00000000000146,0.8327304014160223,-0.2350125507399193
