Time (s),X (m),Y (m)
0.001,-0.0003713730577023104,0.0008446836120385872
0.20000000000000015,0.0020952445598954564,0.0026333436658854893
0.4000000000000003,0.00675048439951285,0.01467275300145087
0.6000000000000004,0.01807993224663275,0.013513324673583191
0.8000000000000006,0.03818882044982587,-0.0023759201691307408
1.0000000000000007,0.0677145791156832,-0.045247980683726305
1.2009999999999785,0.1016895000064251,-0.09796819167350812
1.4009999999999565,0.12898737397373247,-0.14736965009616565
1.6009999999999345,0.15111925476945745,-0.20196119470383453
1.8009999999999124,0.15833860108223424,-0.25786621695263073
2.0009999999998906,0.15361217839319027,-0.3031287786961747
2.2009999999998686,0.13591709194177493,-0.34862410417791334
2.4009999999998466,0.13450257436365318,-0.40100828118545273
2.6009999999998246,0.10509698843266581,-0.4488597833672915
2.8009999999998025,0.06811390540697988,-0.4899107777900782
3.0009999999997805,0.01996832486650553,-0.5227852544943014
3.2009999999997585,-0.03481375305431871,-0.544118866795543
3.4009999999997365,-0.0938625250324712,-0.561923224858767
3.6009999999997144,-0.15328105520923677,-0.5692112942984414
3.8009999999996924,-0.2084804806664312,-0.5535139168040695
4.000999999999671,-0.23823031831217165,-0.503906021976419
4.200999999999738,-0.2519288279679114,-0.4507231464872822
4.400999999999804,-0.23387414350158173,-0.39477869071430743
4.600999999999871,-0.20570233046808659,-0.34137891139515664
4.800999999999938,-0.1631199885474243,-0.2919099791402341
5.000000000000004,-0.11602173813824454,-0.24522507626290033
5.200000000000071,-0.06329455180992338,-0.20840092267056118
5.400000000000138,-0.0018986159822900006,-0.1879845352699396
5.600000000000205,0.06328860931326886,-0.1774154409703901
5.800000000000272,0.12286038561917123,-0.20717368529182179
6.000000000000338,0.16877152990045857,-0.2581422630060999
6.200000000000405,0.2078729188056199,-0.30788931807545994
6.400000000000472,0.22013229277546648,-0.36965589409520316
6.600000000000539,0.22106632556862132,-0.4352048087556457
6.800000000000606,0.1831420119912343,-0.49721684353616497
7.000000000000672,0.13280393528689066,-0.5624094861411354
7.200000000000739,0.06845063234857428,-0.6192983069511249
7.400000000000806,0.008791609683660032,-0.6598311291883079
7.600000000000873,-0.058376302165735805,-0.6844223972026314
7.8000000000009395,-0.12401064765005952,-0.6813594229744785
8.000000000001005,-0.19262332330904597,-0.6593254266468014
8.200000000000895,-0.25076832007349176,-0.6118923730191488
8.400000000000784,-0.29015138138753377,-0.5596095014393849
8.600000000000673,-0.2952733159056124,-0.5007528678740606
8.800000000000562,-0.2663194670794654,-0.4399318150615211
9.000000000000451,-0.2215653162858607,-0.3853480469847717
9.20000000000034,-0.17286536035957945,-0.34176991354562763
9.40000000000023,-0.11369841573733655,-0.30157076848589454
9.600000000000119,-0.034073019378436806,-0.2785154724870545
9.800000000000008,0.05709002634044445,-0.26447070140575557
10.000999999999896,0.14381148069009567,-0.25599738732848326
10.200999999999786,0.23051167238128406,-0.26365429928828926
10.400999999999675,0.32095181931032946,-0.2804560053630004
10.600999999999564,0.40688546431298944,-0.3146610064605389
10.800999999999453,0.4742606061118365,-0.3671944278210742
11.000999999999342,0.5122411112777103,-0.4307773353669454
11.200999999999231,0.5221399816536424,-0.49830225242622994
11.40099999999912,0.5198644516610637,-0.5691429949950516
11.60099999999901,0.49358469396233595,-0.6376994422287392
11.800999999998899,0.4409582724555452,-0.700783892604818
12.000999999998788,0.3868802840323885,-0.7451867952209165
12.200999999998677,0.3263728164828734,-0.7587424430196503
12.400999999998566,0.2743256286789065,-0.736450873693118
12.600999999998455,0.2385339678014754,-0.6872881144655828
12.800999999998345,0.2357654469936744,-0.629492656982871
13.000999999998234,0.2699688937745553,-0.5769921595851812
13.200999999998123,0.3228274689171136,-0.5422584602159486
13.400999999998012,0.39278907065404056,-0.5200225401636472
13.600999999997901,0.4694553162418421,-0.5007484771226894
13.80099999999779,0.534553191898105,-0.47215713993740993
14.00099999999768,0.6020360412105822,-0.45187092174477567
14.200999999997569,0.6747509981871272,-0.45932853171594107
14.400999999997458,0.735694568803649,-0.5002708629934167
14.600999999997347,0.7676597084907718,-0.5574719617451184
14.800999999997236,0.7750905877740087,-0.6218602711258686
15.000999999997125,0.7553771066578965,-0.6830960613882279
15.200999999997014,0.7078281753569444,-0.7399954516703976
15.400999999996904,0.6484279111198739,-0.784803465594668
15.600999999996793,0.5834891099668699,-0.819068570591627
15.800999999996682,0.5186816911172071,-0.8503748658306164
16.000999999996573,0.4603465129716557,-0.8490655584180009
16.200999999996817,0.41145025320355394,-0.8220459010413974
16.40099999999706,0.37165499110646094,-0.7834385905400039
16.600999999997306,0.350799659074222,-0.7288426689576745
16.80099999999755,0.3535592154350502,-0.6678188100800392
17.000999999997795,0.35988555901020897,-0.6016111081142652
17.20099999999804,0.37213499386392396,-0.5400365130131519
17.400999999998284,0.3993250586567859,-0.4894455331572828
17.60099999999853,0.4454082275629384,-0.46723252703297163
17.800999999998773,0.5040099753718318,-0.4681836655985996
18.000999999999017,0.5610566693182847,-0.4930816529574858
18.20099999999926,0.612894365294096,-0.5292355957339022
18.400999999999506,0.6594724635157538,-0.5800374951565298
18.60099999999975,0.6902982660428324,-0.6432189760882696
18.799999999999994,0.7059282092824981,-0.7096490233304776
19.000000000000238,0.7015423077017631,-0.7807714887728382
19.200000000000482,0.7034425570917452,-0.8579036384625575
19.400000000000727,0.6836838662140324,-0.9348181461322217
19.60000000000097,0.6652821963035637,-1.0072925486266688
19.800000000001216,0.6180856252245442,-1.0697317399727395
20.00000000000146,0.5648687146465694,-1.1109951929900053
