Time (s),X (m),Y (m)
0.001,0.0011890620069237587,0.00035268032603768894
0.20000000000000015,-0.0035436828323406467,-0.0008759837451684621
0.4000000000000003,0.005096811564682757,0.00144752661506552
0.6000000000000004,0.008734394175632848,0.0005348764087953514
0.8000000000000006,0.02678153861411216,-0.002585071722861284
1.0000000000000007,0.041308754427344364,-0.003220967384675272
1.2009999999999785,0.0647451927305226,0.0013516967264401787
1.4009999999999565,0.08413710375527526,0.002705124229835892
1.6009999999999345,0.09347202163068362,0.0019412599715706003
1.8009999999999124,0.09186057790511556,-0.003251945638442969
2.0009999999998906,0.09691169376022796,-0.002175859736384972
2.2009999999998686,0.1030756788048541,0.006751908113345596
2.4009999999998466,0.11221885970781104,0.0135279177260991
2.6009999999998246,0.12044050142093135,0.004733437329522684
2.8009999999998025,0.14119192205899816,-0.009298541388149284
3.0009999999997805,0.1671705616929421,-0.026233379119459294
3.2009999999997585,0.18490114603969762,-0.039142742087692445
3.4009999999997365,0.19180881137607825,-0.0524826230400461
3.6009999999997144,0.2097392069367216,-0.06884820971182584
3.8009999999996924,0.22673957228848035,-0.0855420206165656
4.000999999999671,0.24624498029227906,-0.10995888627084653
4.200999999999738,0.26173004869161076,-0.13303587631610317
4.400999999999804,0.28191462998233024,-0.15406423536660474
4.600999999999871,0.31661928943935547,-0.17226421990178184
4.800999999999938,0.3341868117178397,-0.18791527970172456
5.000000000000004,0.3686943782716996,-0.19704769071931763
5.200000000000071,0.39650775766892654,-0.20667284923902995
5.400000000000138,0.413521193768407,-0.22266084612272452
5.600000000000205,0.4364245234633624,-0.24278406637134467
5.800000000000272,0.47288284804786934,-0.2647216276734943
6.000000000000338,0.4994520768079659,-0.2872269089283276
6.200000000000405,0.5198882203770097,-0.30993838856493056
6.400000000000472,0.5437128981984923,-0.32710946305333527
6.600000000000539,0.5683566705939076,-0.34662364641270943
6.800000000000606,0.6022872086980403,-0.36971397329778943
7.000000000000672,0.6276050598710032,-0.39376589741606005
7.200000000000739,0.6555219062343672,-0.42037827524608
7.400000000000806,0.6901910486974161,-0.45512251519453195
7.600000000000873,0.7217815720199745,-0.48719410234505406
7.8000000000009395,0.7418641404569645,-0.5167380092548631
8.000000000001005,0.7618604436139118,-0.540359382543969
8.200000000000895,0.7986942330543229,-0.5633160318193335
8.400000000000784,0.8262450517585236,-0.5834177687386681
8.600000000000673,0.8398219789000162,-0.5958767063767493
8.800000000000562,0.8623997077729358,-0.6176363779477761
9.000000000000451,0.9063407881658795,-0.6457377330198883
9.20000000000034,0.9513056599560408,-0.6721323884720846
9.40000000000023,0.9824784568452545,-0.6984907660997123
9.600000000000119,1.025350421584564,-0.721246888895605
9.800000000000008,1.0691649984004965,-0.7445432221379771
10.000999999999896,1.1043654221344623,-0.7694079331613862
10.200999999999786,1.139968376624192,-0.7930200098588798
10.400999999999675,1.1777278023913853,-0.8236054383409802
10.600999999999564,1.2167947175627618,-0.8588470278251834
10.800999999999453,1.2539101266181143,-0.8872808504065145
11.000999999999342,1.2857885369816435,-0.9168245318309789
11.200999999999231,1.321543318127628,-0.9450870436354893
11.40099999999912,1.3597208353666368,-0.9799963900678648
11.60099999999901,1.402135937355585,-1.0132064732813473
11.800999999998899,1.43992575933841,-1.0400863892564511
12.000999999998788,1.468061368178362,-1.0634128136241112
12.200999999998677,1.500370194507353,-1.0831972303616266
12.400999999998566,1.519960767953649,-1.1037521487862194
12.600999999998455,1.5435644964172077,-1.1245396379169135
12.800999999998345,1.5654524803656478,-1.1448525539568442
13.000999999998234,1.5986732577080611,-1.1563485583440463
13.200999999998123,1.6544688604183266,-1.162609853043618
13.400999999998012,1.7096212505674542,-1.1715082209949452
13.600999999997901,1.746933771163673,-1.1770325635497425
13.80099999999779,1.7782423293349203,-1.1817026975679152
14.00099999999768,1.8035843403208296,-1.1898873355412247
14.200999999997569,1.8442252180680532,-1.2033499799353788
14.400999999997458,1.8807547598630132,-1.2215960356932558
14.600999999997347,1.9179192812348551,-1.2361574188976485
14.800999999997236,1.9568461493838305,-1.2556469801484638
15.000999999997125,1.993032408848872,-1.278631980217429
15.200999999997014,2.0283794634319947,-1.3064240811120935
15.400999999996904,2.0737157652091076,-1.3309278143080998
15.600999999996793,2.117905318593047,-1.3548844058124263
15.800999999996682,2.1581391272894694,-1.3771989374376739
16.000999999996573,2.185974798262363,-1.3981636961667099
16.200999999996817,2.216766446694875,-1.4235519568852169
16.40099999999706,2.260727764705581,-1.4521470951667463
16.600999999997306,2.29460675591199,-1.478184878233597
16.80099999999755,2.3303836996630736,-1.5070345734538244
17.000999999997795,2.3683902055913775,-1.5331336140525664
17.20099999999804,2.4123472287204057,-1.5601072220542551
17.400999999998284,2.456742816894532,-1.5916939855118533
17.60099999999853,2.495818626617585,-1.6286130015761235
17.800999999998773,2.5302440897569123,-1.6626789707361591
18.000999999999017,2.565599384548691,-1.698635386620219
18.20099999999926,2.605967253862565,-1.739436186875029
18.400999999999506,2.65721847522783,-1.781731352575779
18.60099999999975,2.712128489308174,-1.825010669045324
18.799999999999994,2.748555407123567,-1.8569964143532212
19.000000000000238,2.78120472369377,-1.8934963936493165
19.200000000000482,2.8221313998945075,-1.934389912538695
19.400000000000727,2.867973473439042,-1.9689763405249419
19.60000000000097,2.9085118035921393,-1.9994528620661125
19.800000000001216,2.9462045192974786,-2.025989873241553
20.00000000000146,2.9844650022213677,-2.0587436209475403
