Time (s),X (m),Y (m)
0.001,0.0007356649194092869,-0.0008930179339548115
0.20000000000000015,0.0018838072991539151,-7.170234243053784e-05
0.4000000000000003,0.00350481583910128,0.003643911046013217
0.6000000000000004,0.007829222098259665,0.00315021189880356
0.8000000000000006,0.016296814965487922,0.003968841793798365
1.0000000000000007,0.020435334221855582,0.016916187869949292
1.2009999999999785,0.030292622138199932,0.02945145625290283
1.4009999999999565,0.03541609745175284,0.038902806136866364
1.6009999999999345,0.044579170104297884,0.037194629314322165
1.8009999999999124,0.060798497484503194,0.03279767521804472
2.0009999999998906,0.0786945707767087,0.034057717554603906
2.2009999999998686,0.09492075106032358,0.036811969353423464
2.4009999999998466,0.10874850082720507,0.034330138481599846
2.6009999999998246,0.1258828633564182,0.03027472154148092
2.8009999999998025,0.1401708911841214,0.022908184641882094
3.0009999999997805,0.14966808658253283,0.014508658164128673
3.2009999999997585,0.15673478476779446,0.013835076968682018
3.4009999999997365,0.1699092230085698,0.008648833843253463
3.6009999999997144,0.18381886583992496,0.004699377503511789
3.8009999999996924,0.1930821898208769,-0.007163292314467559
4.000999999999671,0.20346643058713046,-0.012325038286176123
4.200999999999738,0.21776967039151057,-0.02050546943921842
4.400999999999804,0.22983146829599538,-0.033383776938666704
4.600999999999871,0.2380060698127299,-0.0413249780208738
4.800999999999938,0.25080630634165235,-0.045603905213043756
5.000000000000004,0.2601401802472362,-0.04897440874506245
5.200000000000071,0.2669762558971752,-0.06278808230435404
5.400000000000138,0.27227024169136627,-0.07650308554320222
5.600000000000205,0.2856102038396131,-0.0811833146981395
5.800000000000272,0.29733010427062995,-0.09148526514185366
6.000000000000338,0.302581508106359,-0.1004192957649113
6.200000000000405,0.3160659834748054,-0.10034014791010921
6.400000000000472,0.3305981794737603,-0.0984725701509857
6.600000000000539,0.3474002387595853,-0.10356270794557215
6.800000000000606,0.35361720792062895,-0.10968164037530827
7.000000000000672,0.367884589026468,-0.12327715934673814
7.200000000000739,0.38093789152056384,-0.13255908326771984
7.400000000000806,0.3808082703832391,-0.1505961649747056
7.600000000000873,0.3941848310058693,-0.16117453095396578
7.8000000000009395,0.4086929042764157,-0.17529765720357487
8.000000000001005,0.4151564985313104,-0.19177722596507282
8.200000000000895,0.4222079487144227,-0.21365800135883709
8.400000000000784,0.4268518999397577,-0.23124366889518322
8.600000000000673,0.4411592258427886,-0.2378181431980506
8.800000000000562,0.4474789188081179,-0.24775430561578024
9.000000000000451,0.45808087330730696,-0.2551637592887481
9.20000000000034,0.46527811852440104,-0.27029195173879356
9.40000000000023,0.4722646869731862,-0.2787597379847376
9.600000000000119,0.4884960771991736,-0.2853615238855563
9.800000000000008,0.49229742454905356,-0.30784048387181534
10.000999999999896,0.5022343128542249,-0.31952096564038435
10.200999999999786,0.5075487714165906,-0.33480240091699937
10.400999999999675,0.5172332516207494,-0.34645673228383805
10.600999999999564,0.5234714607691582,-0.3519278266822492
10.800999999999453,0.5274446356953572,-0.3675731142354444
11.000999999999342,0.5347930855808207,-0.38260718497729823
11.200999999999231,0.5415340881888653,-0.3988147645035708
11.40099999999912,0.55164542981762,-0.4116989920025302
11.60099999999901,0.5617276931195303,-0.42479908658884646
11.800999999998899,0.5710481280955905,-0.4407917470956248
12.000999999998788,0.5816265385539737,-0.454764573173223
12.200999999998677,0.5883073972549809,-0.4699651082367927
12.400999999998566,0.599497378055302,-0.48393480962574614
12.600999999998455,0.6110527897641015,-0.49598927072145
12.800999999998345,0.6259909492527057,-0.5098287700285666
13.000999999998234,0.6348511328843011,-0.5207277764411082
13.200999999998123,0.6506504100084923,-0.5291227761770414
13.400999999998012,0.6595381676514425,-0.5472378640092098
13.600999999997901,0.6681582328096278,-0.5702119343128138
13.80099999999779,0.6764897604695552,-0.5812850165763973
14.00099999999768,0.6788014561954471,-0.6023043801285668
14.200999999997569,0.6806398505944311,-0.6162236863315479
14.400999999997458,0.6840011453282246,-0.6242604743189959
14.600999999997347,0.6995981473710876,-0.6294905009084512
14.800999999997236,0.7149570192862738,-0.6337091248293315
15.000999999997125,0.7248475887843165,-0.6410706915396713
15.200999999997014,0.7440465101052407,-0.6497817855388657
15.400999999996904,0.7502078813826579,-0.6682352679162283
15.600999999996793,0.7612971634908762,-0.6693156258308208
15.800999999996682,0.7676266608098813,-0.6803830100712117
16.000999999996573,0.7790741756758446,-0.6870668065190492
16.200999999996817,0.7897326451349896,-0.6951190750511966
16.40099999999706,0.7998518576482351,-0.7009175064097657
16.600999999997306,0.8027410860925649,-0.713063528457209
16.80099999999755,0.8085721092659285,-0.7247319669258419
17.000999999997795,0.8164951160192196,-0.7375368851589637
17.20099999999804,0.828920477483734,-0.7484700160707743
17.400999999998284,0.8416092766847468,-0.762963141575825
17.60099999999853,0.8478838524990732,-0.7779388206375464
17.800999999998773,0.851789342842367,-0.7965366979321805
18.000999999999017,0.8568048625169683,-0.8131570896648552
18.20099999999926,0.8680176747230871,-0.8199141754062363
18.400999999999506,0.8772357091817536,-0.8340552045486304
18.60099999999975,0.8815903464770201,-0.8516970908641589
18.799999999999994,0.891174478461755,-0.854351135547841
19.000000000000238,0.8992246787670979,-0.8625521083087164
19.200000000000482,0.9009904965677593,-0.8721769139019023
19.400000000000727,0.910176913366138,-0.8826506394899993
19.60000000000097,0.9292520975211944,-0.8937592027735989
19.800000000001216,0.9310687505189418,-0.9148816263345083
20.00000000000146,0.9384230737990935,-0.926006680120153
