Time (s),X (m),Y (m)
0.001,-0.00021570977506068912,-0.0009345558501746678
0.20000000000000015,0.0033883426299585536,0.003151598806080718
0.4000000000000003,0.009015290346100109,0.007616767058960212
0.6000000000000004,0.023464544789278372,0.012000054579205497
0.8000000000000006,0.04006784250531085,0.014498161855023168
1.0000000000000007,0.05367429107374551,0.01250461699089138
1.2009999999999785,0.06594744617347896,0.008121407576537329
1.4009999999999565,0.07722466950615624,0.0018935924653272593
1.6009999999999345,0.087953533942164,0.01369353213026495
1.8009999999999124,0.1083735195487088,0.009633235275562053
2.0009999999998906,0.12952909400538434,0.019508549794678098
2.2009999999998686,0.14845618414769857,0.024008887340270384
2.4009999999998466,0.1702143875099887,0.033921098452351854
2.6009999999998246,0.1958865103551031,0.05387241649811346
2.8009999999998025,0.21769959351403528,0.058409828336085656
3.0009999999997805,0.237394540427967,0.06588880243460114
3.2009999999997585,0.25969178569481455,0.07785179213261217
3.4009999999997365,0.28119266822940503,0.08973943832198311
3.6009999999997144,0.3078862130818198,0.0907486049335792
3.8009999999996924,0.33116989054421864,0.09070406884053071
4.000999999999671,0.3549766107706185,0.0871079593678102
4.200999999999738,0.3769554530463464,0.08514271145737305
4.400999999999804,0.4023206735919726,0.09593481867669848
4.600999999999871,0.4200141581238343,0.09947474965537813
4.800999999999938,0.442945835081787,0.10000310755958444
5.000000000000004,0.4684068904820278,0.09343474318099833
5.200000000000071,0.4960859506295866,0.09827894992944107
5.400000000000138,0.529009176827438,0.11819175885552018
5.600000000000205,0.5537630506396771,0.12015657988377679
5.800000000000272,0.5757492783980909,0.12034991591054202
6.000000000000338,0.5984437331661461,0.12897591055847665
6.200000000000405,0.631075572213567,0.13374539083811604
6.400000000000472,0.6611963278011859,0.14275990573627678
6.600000000000539,0.6907860300583858,0.15192541965472559
6.800000000000606,0.7218678947062598,0.15646986881598718
7.000000000000672,0.746755522048261,0.17189831271822628
7.200000000000739,0.7702896008163542,0.182491699777907
7.400000000000806,0.7986953839023514,0.18735133702031997
7.600000000000873,0.8226205580561003,0.20370161371665338
7.8000000000009395,0.8440664496168685,0.21332470946727108
8.000000000001005,0.8660082454357272,0.23801214048670022
8.200000000000895,0.8883420439778187,0.2569265881872076
8.400000000000784,0.9103243817319273,0.2765787526615949
8.600000000000673,0.9363929890456238,0.2993325755439905
8.800000000000562,0.9621230951997067,0.3238367164290665
9.000000000000451,0.981034776151174,0.35087379849671946
9.20000000000034,1.0015613654306743,0.37025338097885174
9.40000000000023,1.0257629288077879,0.3961983360771623
9.600000000000119,1.0443586784977228,0.4105514346142435
9.800000000000008,1.0634419345576742,0.4280338205339121
10.000999999999896,1.0841343695122703,0.45362628702096786
10.200999999999786,1.1037538153243185,0.46108149687334143
10.400999999999675,1.1247881277026173,0.47351941321539026
10.600999999999564,1.1446637451221413,0.4916681050237343
10.800999999999453,1.1668818518142228,0.5060960778233374
11.000999999999342,1.1916508415284919,0.5195248389501116
11.200999999999231,1.2209751937720745,0.532920502344951
11.40099999999912,1.2444135928969464,0.5583168574969106
11.60099999999901,1.2713487027406765,0.573520679168615
11.800999999998899,1.2944783916935065,0.5855153386508329
12.000999999998788,1.3197666302693836,0.5885763616423704
12.200999999998677,1.3452094684021885,0.6122261620450181
12.400999999998566,1.3681116972131104,0.6316436902251221
12.600999999998455,1.3890085168598378,0.6596464875772029
12.800999999998345,1.4071928945424663,0.6804856638183069
13.000999999998234,1.4279766939326743,0.7030105131820081
13.200999999998123,1.445029764215825,0.7223632050110467
13.400999999998012,1.4659913379018172,0.7417646559608224
13.600999999997901,1.4888736416534174,0.7632364789439208
13.80099999999779,1.5136786927026202,0.7877556438354069
14.00099999999768,1.5363677381337466,0.8136301716718206
14.200999999997569,1.557006871295025,0.830684066163973
14.400999999997458,1.5747844747286173,0.853691486820035
14.600999999997347,1.5930465973074561,0.8764779534933271
14.800999999997236,1.6117439424635478,0.9120024723522878
15.000999999997125,1.6297447977863597,0.9447957584384505
15.200999999997014,1.6468305580316964,0.9784854634327989
15.400999999996904,1.6654200628838016,1.0143258186337623
15.600999999996793,1.6812926205031193,1.0365442472518154
15.800999999996682,1.6982050663039427,1.0502826351415468
16.000999999996573,1.7129089049058779,1.0536230555805182
16.200999999996817,1.7272283069921823,1.06920449388394
16.40099999999706,1.7450465118791028,1.0905857942326977
16.600999999997306,1.76407443383653,1.1144257369870167
16.80099999999755,1.7823707388441121,1.1384390122505679
17.000999999997795,1.7938801299729,1.1715226971470325
17.20099999999804,1.8131948836283855,1.1930460471640134
17.400999999998284,1.8279889061273509,1.2134772277652244
17.60099999999853,1.8395083507494043,1.248932957265713
17.800999999998773,1.8557576058215248,1.277334455877089
18.000999999999017,1.8661571377633517,1.303152621589994
18.20099999999926,1.8766956054786272,1.3367021633775704
18.400999999999506,1.882577493497854,1.3632971764007908
18.60099999999975,1.8848110446859236,1.3995023376402993
18.799999999999994,1.8960419814658709,1.4209147420456183
19.000000000000238,1.904829915288576,1.4496726433872482
19.200000000000482,1.912015645797399,1.4795244377982864
19.400000000000727,1.917046246520559,1.51471539751704
19.60000000000097,1.9178093216817487,1.5504338701367548
19.800000000001216,1.9199136937070533,1.5758982693160373
20.00000000000146,1.926314194412631,1.6062245493307106
