Time (s),X (m),Y (m)
0.001,0.0003991412691229187,0.0010155025257856582
0.20000000000000015,-0.0006217613629385772,-0.004783117120213852
0.4000000000000003,0.004313354354328972,-0.014168043435833798
0.6000000000000004,0.023283685911211268,-0.0055758778865648085
0.8000000000000006,0.04201249451501885,-0.00952815758377301
1.0000000000000007,0.06021742496989203,-0.01419634923549573
1.2009999999999785,0.07789869389880967,-0.01711886550502441
1.4009999999999565,0.09600851681390725,-0.02384661903059617
1.6009999999999345,0.1304315168762071,-0.02034319712231888
1.8009999999999124,0.17097405372857372,-0.014445677004490993
2.0009999999998906,0.2055447019135333,-0.02193599951587332
2.2009999999998686,0.23755839601880174,-0.0344354386785555
2.4009999999998466,0.2776106635054079,-0.031031191860988128
2.6009999999998246,0.3177377992109184,-0.03931878656572076
2.8009999999998025,0.3596511430997256,-0.03781021355380791
3.0009999999997805,0.40273895665329706,-0.041471144654483476
3.2009999999997585,0.43993819613382024,-0.04643340120427697
3.4009999999997365,0.4835732426598434,-0.04825257062506765
3.6009999999997144,0.5244384860070159,-0.05280450477274619
3.8009999999996924,0.5604094430052647,-0.07017146957592435
4.000999999999671,0.5956706701221671,-0.0900636785567797
4.200999999999738,0.6267582804136227,-0.0991849444260423
4.400999999999804,0.6523235685762926,-0.11491421339955141
4.600999999999871,0.6968546896954823,-0.12569787970762897
4.800999999999938,0.7198557596369628,-0.14569189610326258
5.000000000000004,0.7505114242616276,-0.15970656538949818
5.200000000000071,0.7754979966104368,-0.1867888967254552
5.400000000000138,0.8039002712790365,-0.2180494390163619
5.600000000000205,0.822614732516891,-0.2538636830635458
5.800000000000272,0.8363142803333141,-0.2927567094448421
6.000000000000338,0.8666164210228029,-0.334210886785816
6.200000000000405,0.8891351432734168,-0.3795041661685061
6.400000000000472,0.9139887325638839,-0.42851612157046687
6.600000000000539,0.9314675706663463,-0.4748998700224452
6.800000000000606,0.9295803678399163,-0.5147034871499289
7.000000000000672,0.9359309902007172,-0.5601600926559238
7.200000000000739,0.933130963702751,-0.6032637897569225
7.400000000000806,0.918255749123571,-0.6425017484127927
7.600000000000873,0.9117166045719686,-0.6822595978957441
7.8000000000009395,0.9051239728415331,-0.7202539410613334
8.000000000001005,0.8892514344005478,-0.7631725194916774
8.200000000000895,0.8703533100401953,-0.8036503188869971
8.400000000000784,0.8510992333118796,-0.8392287529024635
8.600000000000673,0.8281354086085819,-0.8773420886391816
8.800000000000562,0.8179290188519523,-0.9217675300651915
9.000000000000451,0.810017105980215,-0.9710258477139162
9.20000000000034,0.7980199109045383,-1.019388992462679
9.40000000000023,0.7777149989120421,-1.0667114608832708
9.600000000000119,0.751220173677545,-1.1034594352102696
9.800000000000008,0.7290907929899173,-1.1504039489245954
10.000999999999896,0.7069120659622553,-1.1941436266312353
10.200999999999786,0.6791368925713536,-1.2302057554373966
10.400999999999675,0.650526526745559,-1.2679617417542572
10.600999999999564,0.6262290913278197,-1.318113671923264
10.800999999999453,0.6023544725956456,-1.3537687869179142
11.000999999999342,0.5883255413062413,-1.3931421002578501
11.200999999999231,0.5675487775737431,-1.4061960185079951
11.40099999999912,0.536460674968046,-1.424440691387365
11.60099999999901,0.4918360983255583,-1.4328405619176725
11.800999999998899,0.4471068454186161,-1.4507710273700885
12.000999999998788,0.3966888011557003,-1.459632422237055
12.200999999998677,0.3451519927624959,-1.4678283489110382
12.400999999998566,0.29447958547856284,-1.4666195351291043
12.600999999998455,0.24711052557216975,-1.4787559681093685
12.800999999998345,0.20320390599401103,-1.4835797136841926
13.000999999998234,0.14806616332090677,-1.501054379328044
13.200999999998123,0.10386133836720605,-1.4964382839620107
13.400999999998012,0.05487842177613452,-1.4953232127175895
13.600999999997901,0.002863272793833015,-1.5004737081805406
13.80099999999779,-0.04263354106800154,-1.4992136900760693
14.00099999999768,-0.09386685266349393,-1.5057397592181263
14.200999999997569,-0.1476381978449157,-1.4973264595072893
14.400999999997458,-0.2029823449566417,-1.4909730137503316
14.600999999997347,-0.2611152831583074,-1.4927011896060811
14.800999999997236,-0.3160454013741958,-1.495617130818095
15.000999999997125,-0.36693247201031115,-1.4885013422040332
15.200999999997014,-0.4117256897969099,-1.476661924489835
15.400999999996904,-0.46220951151024176,-1.4596006584802417
15.600999999996793,-0.4866412404085704,-1.4267607972327228
15.800999999996682,-0.4910177530118242,-1.3911389945675048
16.000999999996573,-0.4848166048146436,-1.3658076474828074
16.200999999996817,-0.4690882374115859,-1.3597453581783465
16.40099999999706,-0.4445437005003557,-1.3549365493042436
16.600999999997306,-0.4160206254834653,-1.3570099612454107
16.80099999999755,-0.3816271326611347,-1.3573127928221533
17.000999999997795,-0.342128928213708,-1.3472325638033886
17.20099999999804,-0.29624318915257386,-1.340900816152545
17.400999999998284,-0.25034089414072175,-1.3415622614105336
17.60099999999853,-0.20350943030539584,-1.345711207851715
17.800999999998773,-0.15537478662247645,-1.3357027420716092
18.000999999999017,-0.09933034812078895,-1.3203663919674986
18.20099999999926,-0.046331358920871334,-1.3291906160047233
18.400999999999506,0.0024955121554494043,-1.3312116291965128
18.60099999999975,0.05034054932948582,-1.3384576185680588
18.799999999999994,0.0879032091261549,-1.3538735093096095
19.000000000000238,0.1346052691071908,-1.3482012990959724
19.200000000000482,0.18476005241172913,-1.354967619994376
19.400000000000727,0.23714706134834876,-1.354843530138636
19.60000000000097,0.294143822888524,-1.3470929487644643
19.800000000001216,0.3356320321793311,-1.350441058997735
20.00000000000146,0.37867608823375,-1.3631194040232144
