Time (s),X (m),Y (m)
0.001,-0.00013259955118837574,-0.0009689812320744441
0.20000000000000015,0.00397099966644667,0.004280220083087911
0.4000000000000003,0.007279887679737057,0.00030770983118502714
0.6000000000000004,0.01552495345564515,0.007265064530897988
0.8000000000000006,0.0349794452558221,0.007216552581163688
1.0000000000000007,0.05678868410679036,0.014553950905399904
1.2009999999999785,0.0762283050969276,0.02220481143846899
1.4009999999999565,0.10549244079746156,0.036924992875097734
1.6009999999999345,0.12702433025532156,0.032834410725546784
1.8009999999999124,0.15225377856973848,0.01702243162304759
2.0009999999998906,0.181225396529156,0.011495645651256445
2.2009999999998686,0.20384336788473847,0.00801616055179835
2.4009999999998466,0.2304998367455869,0.011628331908217143
2.6009999999998246,0.25528668906923313,0.00115459075615395
2.8009999999998025,0.2850109259130572,-0.00627357342712699
3.0009999999997805,0.3180753821737858,-0.0077710490516139435
3.2009999999997585,0.33997599470546047,-0.01520083665024018
3.4009999999997365,0.3619011851859968,-0.025356225976284952
3.6009999999997144,0.3939823909735187,-0.028939894247609607
3.8009999999996924,0.4224365027351621,-0.042782095942438036
4.000999999999671,0.45742092855794164,-0.05031870893049734
4.200999999999738,0.4972159882491665,-0.048883164980449395
4.400999999999804,0.539201404642917,-0.03881514586459791
4.600999999999871,0.5794790121304843,-0.03430506136528497
4.800999999999938,0.6139623794926762,-0.04734761809952017
5.000000000000004,0.6372256416849496,-0.06589296918813316
5.200000000000071,0.6722707927692861,-0.07641359835281836
5.400000000000138,0.7272144762244649,-0.07968658919139707
5.600000000000205,0.7688349612706529,-0.08488492318120547
5.800000000000272,0.7935493881721616,-0.09553639023625649
6.000000000000338,0.8260091835905011,-0.10523497277132388
6.200000000000405,0.8727212458024732,-0.11833876375845025
6.400000000000472,0.9116000560408418,-0.13638514272932709
6.600000000000539,0.9415056001779407,-0.16000579741177545
6.800000000000606,0.9689983122053316,-0.1927171321069679
7.000000000000672,0.9959544337982764,-0.22969845653527549
7.200000000000739,1.011988921950102,-0.26749787415663046
7.400000000000806,1.0267768334264495,-0.3035538076398293
7.600000000000873,1.043342463647905,-0.3377632777981807
7.8000000000009395,1.0547166025940562,-0.3698275749722398
8.000000000001005,1.0649760302498534,-0.40581363386901337
8.200000000000895,1.0731841663769648,-0.4354972608924664
8.400000000000784,1.100382858539149,-0.4593022716852877
8.600000000000673,1.123904664506263,-0.487596011144426
8.800000000000562,1.14126429813958,-0.5201107310733071
9.000000000000451,1.156986993299885,-0.5579493344055421
9.20000000000034,1.1603644904964074,-0.592958375552332
9.40000000000023,1.1937688381378218,-0.6180501286428155
9.600000000000119,1.2259632740886255,-0.6483000534441608
9.800000000000008,1.2578406642151807,-0.6796156210348013
10.000999999999896,1.2762874491235723,-0.7106890395921556
10.200999999999786,1.2983787872496564,-0.747175342518626
10.400999999999675,1.3266557041843532,-0.7875343800530313
10.600999999999564,1.3519897071576286,-0.8250268363155887
10.800999999999453,1.3568039102561336,-0.8610231243591875
11.000999999999342,1.3622965630710302,-0.8919458615521901
11.200999999999231,1.3820325839530114,-0.9319493165691786
11.40099999999912,1.3908366338759073,-0.968967818825323
11.60099999999901,1.4087147382492902,-1.007046361776658
11.800999999998899,1.4297015876709758,-1.0492296469523594
12.000999999998788,1.451477976666884,-1.0898743510404216
12.200999999998677,1.4738293045517983,-1.1341268308620296
12.400999999998566,1.4889038070171754,-1.1738578097948087
12.600999999998455,1.4951652527612591,-1.2185695768592126
12.800999999998345,1.4992500902518706,-1.2631716368304609
13.000999999998234,1.4993968015529053,-1.300461627636468
13.200999999998123,1.4925389989794855,-1.3283501072458288
13.400999999998012,1.4985576199924855,-1.3578077337296484
13.600999999997901,1.5163836774443238,-1.3901519660605184
13.80099999999779,1.5427371646447217,-1.422168720651089
14.00099999999768,1.5516086520112409,-1.462090830096678
14.200999999997569,1.5645492227759843,-1.4957026595435419
14.400999999997458,1.5709683102100553,-1.5271529605446237
14.600999999997347,1.5970558796032674,-1.5595818527250167
14.800999999997236,1.614497120221993,-1.5939907294963331
15.000999999997125,1.6348299825083106,-1.629292059167135
15.200999999997014,1.643821766649914,-1.6628953643377906
15.400999999996904,1.6595404722286342,-1.699363612077137
15.600999999996793,1.679281087659442,-1.7390131437974021
15.800999999996682,1.6705393100726165,-1.7770742655028193
16.000999999996573,1.6833271226179576,-1.81850833305901
16.200999999996817,1.6959641663995688,-1.8664430036955013
16.40099999999706,1.714186516964877,-1.9140319023279961
16.600999999997306,1.7313561437396048,-1.960215102545571
16.80099999999755,1.7533122258443385,-2.0031778022771096
17.000999999997795,1.7717013045255086,-2.0422017645896724
17.20099999999804,1.7706642474085814,-2.084450583414111
17.400999999998284,1.7745187012780874,-2.1234640674195293
17.60099999999853,1.7859287131779789,-2.157621037967554
17.800999999998773,1.80906249239321,-2.1933837555944895
18.000999999999017,1.8337043068260126,-2.2260694282360896
18.20099999999926,1.8721688496663174,-2.258939424816704
18.400999999999506,1.8997921622891452,-2.293615325619817
18.60099999999975,1.92705692527201,-2.329400564090166
18.799999999999994,1.946792502328367,-2.3662065578676788
19.000000000000238,1.9623519427641434,-2.4036298047313234
19.200000000000482,1.9776121624293868,-2.440349434789437
19.400000000000727,1.998172859078022,-2.471998584943711
19.60000000000097,2.0292020394942742,-2.4997912284006847
19.800000000001216,2.0534200352929814,-2.534136180159718
20.00000000000146,2.0756034139424835,-2.5690599044980393
