Time (s),X (m),Y (m)
0.001,4.1020280575708355e-05,0.0010155025257856582
0.20000000000000015,0.002218538417263943,-0.004071965274337547
0.4000000000000003,0.0067360384735354285,-0.0065172345365977795
0.6000000000000004,0.012451114512024129,-0.006122880246886303
0.8000000000000006,0.019500951379716698,-0.015698957136168926
1.0000000000000007,0.031341703570186695,-0.02446396814551184
1.2009999999999785,0.0507454094802297,-0.041354568614280204
1.4009999999999565,0.06619056199717466,-0.057664838813787186
1.6009999999999345,0.0816725187868285,-0.06306109372050953
1.8009999999999124,0.09975236609338088,-0.07324676621627323
2.0009999999998906,0.12613595514109785,-0.07617719544135029
2.2009999999998686,0.15105535005326515,-0.07405224731120534
2.4009999999998466,0.1758820461705723,-0.08185616091742845
2.6009999999998246,0.2029104456962859,-0.08763554846537783
2.8009999999998025,0.2229514681624285,-0.10741002782644622
3.0009999999997805,0.24747116733689314,-0.12869190408327622
3.2009999999997585,0.27062769906089473,-0.13909235274071358
3.4009999999997365,0.2934364773429634,-0.1464038186211752
3.6009999999997144,0.31008958504880796,-0.1552518581932808
3.8009999999996924,0.33400382797098277,-0.16579011063680948
4.000999999999671,0.35946898382525116,-0.1854885876104373
4.200999999999738,0.3808261842305338,-0.21363292163887315
4.400999999999804,0.40267904902435603,-0.2299798175965559
4.600999999999871,0.42951673736057855,-0.24439185465889543
4.800999999999938,0.46087566336317454,-0.253281892866497
5.000000000000004,0.48079200099986996,-0.2692730078657334
5.200000000000071,0.5019091925560084,-0.2800213897996362
5.400000000000138,0.5204581578706046,-0.29397726667774393
5.600000000000205,0.5514664412660211,-0.3135604664666719
5.800000000000272,0.5726601517426388,-0.33354733858841107
6.000000000000338,0.5858617702787441,-0.3526770269923469
6.200000000000405,0.5952138988721444,-0.37741170451742995
6.400000000000472,0.6216545378534839,-0.3954026792478118
6.600000000000539,0.6501762242197275,-0.4078113063891948
6.800000000000606,0.671902004803948,-0.4256556705183004
7.000000000000672,0.6886342758695209,-0.4432233202597033
7.200000000000739,0.7040522552800467,-0.45778773576516374
7.400000000000806,0.7324159619186367,-0.4771234907130728
7.600000000000873,0.7670268762196586,-0.48675342788633585
7.8000000000009395,0.801158154859023,-0.4891246173827809
8.000000000001005,0.8357913544357142,-0.48470809351870686
8.200000000000895,0.8579799562322372,-0.4944085820980474
8.400000000000784,0.8817067300829916,-0.5021853815021547
8.600000000000673,0.9073654888517232,-0.5027039035103894
8.800000000000562,0.9380816997632062,-0.5127367278241651
9.000000000000451,0.9629014007420846,-0.5190588862347695
9.20000000000034,0.9941412038464013,-0.5169185051425295
9.40000000000023,1.0236364504562607,-0.5239068236625037
9.600000000000119,1.0553298312204609,-0.5247118333320615
9.800000000000008,1.0839251346910332,-0.5288006142661892
10.000999999999896,1.1115662240991782,-0.5401257092403599
10.200999999999786,1.1425293225454536,-0.5487586880823292
10.400999999999675,1.1640765682677683,-0.5659998891038007
10.600999999999564,1.1842158211440983,-0.583915992131985
10.800999999999453,1.2180140191441877,-0.5859191399068344
11.000999999999342,1.247401664922894,-0.600922955313025
11.200999999999231,1.2792457796548706,-0.6088856853072441
11.40099999999912,1.2886502864528537,-0.6345135365054242
11.60099999999901,1.3135342097130818,-0.6412263252649072
11.800999999998899,1.3365371626873963,-0.643987893207196
12.000999999998788,1.349395701611015,-0.6719749195032357
12.200999999998677,1.3654294273375536,-0.6968057847999672
12.400999999998566,1.3847707271807634,-0.7263703085163501
12.600999999998455,1.4171163523048538,-0.7317689528018755
12.800999999998345,1.4480346959076886,-0.7435754183501282
13.000999999998234,1.4765125690618517,-0.7444569788602877
13.200999999998123,1.4956659052435608,-0.7566142003596872
13.400999999998012,1.5125359661592046,-0.7745785726450757
13.600999999997901,1.5320312830219496,-0.7991869014849692
13.80099999999779,1.554608820776247,-0.8170253436768103
14.00099999999768,1.5771186649725424,-0.8422483240963201
14.200999999997569,1.599820671691553,-0.8679545006264855
14.400999999997458,1.6257980880107783,-0.8771784149404652
14.600999999997347,1.6513280449618235,-0.8938027390487587
14.800999999997236,1.6737928217928422,-0.9162354976733238
15.000999999997125,1.6969187272426633,-0.9351099275527469
15.200999999997014,1.7100214239406812,-0.9615817455712556
15.400999999996904,1.715611072606155,-0.9933161790746023
15.600999999996793,1.7167755980832173,-1.0209111909641824
15.800999999996682,1.734900854039777,-1.0401462272263322
16.000999999996573,1.7526041076570922,-1.059093495401104
16.200999999996817,1.7647436315724292,-1.082832104040314
16.40099999999706,1.7807855543576392,-1.1025120491922564
16.600999999997306,1.7894709431665063,-1.1320115356879576
16.80099999999755,1.8047369429301134,-1.1571006084213928
17.000999999997795,1.8161813424707602,-1.1895355956917002
17.20099999999804,1.837145009773587,-1.2198203681540198
17.400999999998284,1.855773607982014,-1.2378879068151982
17.60099999999853,1.8781716278706633,-1.2539546410763096
17.800999999998773,1.9054440289929988,-1.2678319926717692
18.000999999999017,1.920883667532169,-1.2867094801167898
18.20099999999926,1.9455804064062139,-1.2916635172720294
18.400999999999506,1.9695200172452498,-1.3019589069952957
18.60099999999975,1.9834450789724516,-1.3237355801498585
18.799999999999994,2.006327451316691,-1.3335735412396323
19.000000000000238,2.0311706507576943,-1.3528279054217065
19.200000000000482,2.0564399218033187,-1.3694852543361045
19.400000000000727,2.086076833566694,-1.3773087655390042
19.60000000000097,2.11401873567237,-1.3768680162907563
19.800000000001216,2.1434472957802613,-1.3884932664531515
20.00000000000146,2.1671404644827326,-1.4180465551637005
