Time (s),X (m),Y (m)
0.001,0.0008829029745972832,0.0007899207378008392
0.20000000000000015,-0.0036704346719610265,-0.004886386308287578
0.4000000000000003,-0.0014221311363672568,-0.010089434572347284
0.6000000000000004,0.008284030569578283,-0.012020589964820659
0.8000000000000006,0.02335169832676875,-0.007590882224198468
1.0000000000000007,0.04347042562393516,-0.00846104648920692
1.2009999999999785,0.06442131278395943,-0.010225981171427177
1.4009999999999565,0.09126613757685031,-0.005163797928391055
1.6009999999999345,0.11208712326436276,-0.004541255386945448
1.8009999999999124,0.13341086686423148,-0.000928693925604034
2.0009999999998906,0.16268052970561542,0.01433801560455979
2.2009999999998686,0.1924740853951899,0.0221700312502132
2.4009999999998466,0.2214287771059636,0.03485541244930797
2.6009999999998246,0.2479093857762111,0.03837622664090777
2.8009999999998025,0.27152170341084547,0.038150375055530365
3.0009999999997805,0.30140761444650327,0.05593140275322045
3.2009999999997585,0.3258598100525102,0.06265000037645288
3.4009999999997365,0.3511288180280107,0.06563916207641964
3.6009999999997144,0.3743404228156021,0.05901782167152152
3.8009999999996924,0.3991649674976569,0.06792845560066327
4.000999999999671,0.43496052903232957,0.0868809662820532
4.200999999999738,0.47035961241344704,0.10104692000183128
4.400999999999804,0.500946018681147,0.10922612912560016
4.600999999999871,0.5330252883186647,0.11988196514301346
4.800999999999938,0.5656468705979874,0.1304594537597603
5.000000000000004,0.5941630454918951,0.1528119754821761
5.200000000000071,0.6238520679152093,0.17787369548444892
5.400000000000138,0.6525756038773274,0.186755691701537
5.600000000000205,0.6777354016306169,0.19545779185105794
5.800000000000272,0.7085649189903214,0.2234469910739186
6.000000000000338,0.7369726328014793,0.23871903125883953
6.200000000000405,0.7625398610548039,0.25175750298454536
6.400000000000472,0.7866373799275782,0.2639870078813128
6.600000000000539,0.815442766389839,0.28036749537325795
6.800000000000606,0.8453886430843349,0.30765687367736055
7.000000000000672,0.8706958869665237,0.3250252972891301
7.200000000000739,0.8963190180417439,0.3460101584272343
7.400000000000806,0.9235900107880979,0.3776142736255187
7.600000000000873,0.9524507279519983,0.41479221997370336
7.8000000000009395,0.9773722041632459,0.43747746708416363
8.000000000001005,1.0091044934333961,0.46137004987918784
8.200000000000895,1.047438166167445,0.48742302240710567
8.400000000000784,1.0873466844877153,0.5046826080199956
8.600000000000673,1.1220061661470604,0.5252174334181235
8.800000000000562,1.1589837119730857,0.5453951642850295
9.000000000000451,1.1943209025781507,0.5660783612411231
9.20000000000034,1.2300767132988113,0.591173151897595
9.40000000000023,1.2640117669428597,0.6183307777909829
9.600000000000119,1.296364341600198,0.6546942286904979
9.800000000000008,1.3316871119843459,0.6824782762117718
10.000999999999896,1.367004039312925,0.7071376566216357
10.200999999999786,1.3909774179033518,0.7326727306658459
10.400999999999675,1.4141595100060642,0.7721999252522747
10.600999999999564,1.4394102374409572,0.7963257047398296
10.800999999999453,1.462183366711754,0.8258776360004833
11.000999999999342,1.4914131129780406,0.8625837624617998
11.200999999999231,1.521597806066742,0.8928375434293503
11.40099999999912,1.5451947354977973,0.9183966071874555
11.60099999999901,1.5749984328700062,0.9394400152493102
11.800999999998899,1.6043766796922625,0.968693511010855
12.000999999998788,1.6280539901337086,0.9986969932752146
12.200999999998677,1.6533776106484674,1.0357573469357837
12.400999999998566,1.6746731551281455,1.0779333002335685
12.600999999998455,1.6915287877369178,1.1108772053728526
12.800999999998345,1.7083310580298225,1.1335280823946747
13.000999999998234,1.7264083712176737,1.1655468400330784
13.200999999998123,1.749514054590721,1.1907349294315184
13.400999999998012,1.771223656834879,1.2144978292297943
13.600999999997901,1.7868640634180415,1.2408622960828206
13.80099999999779,1.802384981180675,1.2741663800590903
14.00099999999768,1.8150593383739726,1.313702402712899
14.200999999997569,1.8287832149595615,1.3561757244978412
14.400999999997458,1.8375577967278167,1.391239503417392
14.600999999997347,1.8452228277669922,1.413762867097478
14.800999999997236,1.8554311215690757,1.4455809357091098
15.000999999997125,1.8696383766350364,1.4858614275447979
15.200999999997014,1.8896024307244466,1.5247574489919145
15.400999999996904,1.9162676777527272,1.5593391011196296
15.600999999996793,1.9374364757451257,1.6003829753050016
15.800999999996682,1.9591457275513526,1.6332224663411752
16.000999999996573,1.9784543378308923,1.6671637825330219
16.200999999996817,1.998134793039019,1.6996077242396717
16.40099999999706,2.016323191078719,1.7318736079367596
16.600999999997306,2.0323922309559044,1.7636243363098298
16.80099999999755,2.0489692862399664,1.788244099623391
17.000999999997795,2.0717779285433275,1.8233638732404003
17.20099999999804,2.099837586002961,1.8667677210562792
17.400999999998284,2.1223894941666552,1.9174554195673508
17.60099999999853,2.1407801827863007,1.9649243758105133
17.800999999998773,2.153343620707826,2.01105974167492
18.000999999999017,2.1592474286079892,2.0438172394925824
18.20099999999926,2.165942220964052,2.0841205097945275
18.400999999999506,2.173695072506633,2.1326895192104005
18.60099999999975,2.184541847003759,2.1672679402204094
18.799999999999994,2.199749008792743,2.191383458070117
19.000000000000238,2.2130259415102027,2.218792281292572
19.200000000000482,2.2293145340001996,2.2504908715258947
19.400000000000727,2.251615556274995,2.283586439874499
19.60000000000097,2.282065732807924,2.308929893685253
19.800000000001216,2.3136138933272603,2.329417091931778
20.00000000000146,2.339353530531323,2.3541483851815825
