Time (s),X (m),Y (m)
0.001,0.0011890620069237587,-0.00035268032603768894
0.20000000000000015,-0.0022663921557409547,0.0018484501426989097
0.4000000000000003,-0.004460293736886651,0.0021267688384987676
0.6000000000000004,-0.0013792511538925272,0.0028811741602050387
0.8000000000000006,0.002819926410223112,0.0016801136887766035
1.0000000000000007,0.00631310435115434,0.0014812767342697202
1.2009999999999785,0.009352754854893373,0.0014470634470044054
1.4009999999999565,0.015978941368502374,-0.0015894545237054114
1.6009999999999345,0.021399879280197397,-0.0039494945653339684
1.8009999999999124,0.02576233414607014,-0.00302285961623293
2.0009999999998906,0.026661436850822742,-2.537375792059373e-05
2.2009999999998686,0.0258467207046289,0.002678428398386059
2.4009999999998466,0.02440889980745769,0.005489190746955974
2.6009999999998246,0.023005575232642756,0.00832749072032544
2.8009999999998025,0.021385595491986733,0.011045612947123268
3.0009999999997805,0.019750130320718057,0.013839260727406223
3.2009999999997585,0.018581481070853282,0.01661192372847263
3.4009999999997365,0.017372767401644496,0.01920025610502283
3.6009999999997144,0.01621181451012561,0.02153468678085587
3.8009999999996924,0.015469840094222332,0.02417722188073025
4.000999999999671,0.014574112208137218,0.02678619272006791
4.200999999999738,0.013695138032148661,0.029371339741702706
4.400999999999804,0.012909013205132713,0.03186727634522619
4.600999999999871,0.012349910921196678,0.034113779816361836
4.800999999999938,0.011809915369795252,0.036354817288441976
5.000000000000004,0.010960437227608798,0.03908427624773304
5.200000000000071,0.010279897170136035,0.04193218098672989
5.400000000000138,0.009620246640549173,0.04488499717802761
5.600000000000205,0.009033479782535847,0.04742679125160514
5.800000000000272,0.008609704653791484,0.04978330837996102
6.000000000000338,0.008095861959765789,0.05222667713336428
6.200000000000405,0.007460525642786595,0.05484246697300682
6.400000000000472,0.007225342080967393,0.05730322240709121
6.600000000000539,0.007086965334583351,0.06009358671269616
6.800000000000606,0.0068125626581395805,0.063195645897872
7.000000000000672,0.006436928014524591,0.06591201443216003
7.200000000000739,0.006273775118718038,0.06842596863513083
7.400000000000806,0.006225567606480908,0.07092632805862426
7.600000000000873,0.005968380999255325,0.07336692694787386
7.8000000000009395,0.006249838675232633,0.07601530815241925
8.000000000001005,0.006473619915401727,0.07855131134646834
8.200000000000895,0.005991858499092264,0.080909076364737
8.400000000000784,0.005820929428971676,0.08361615121205641
8.600000000000673,0.005735483961818111,0.08632812551937924
8.800000000000562,0.005652546110561273,0.08908323841705051
9.000000000000451,0.005592878660466353,0.09189087528246523
9.20000000000034,0.005581007931546836,0.09476083639961812
9.40000000000023,0.005584537709587303,0.09768100234916902
9.600000000000119,0.005526078478668495,0.10065644834164136
9.800000000000008,0.005258247233189334,0.10336647188867396
10.000999999999896,0.004754362309564281,0.10615948759808339
10.200999999999786,0.004609623856602376,0.10922402762279408
10.400999999999675,0.004718904699054001,0.1124523552878662
10.600999999999564,0.004559271997423126,0.11576708638662367
10.800999999999453,0.004412812482939154,0.11907825963416763
11.000999999999342,0.004234326945805782,0.12238071629892183
11.200999999999231,0.004140198922628045,0.125660522326477
11.40099999999912,0.0040203371115259704,0.1291443133968194
11.60099999999901,0.004044270154762878,0.13267651843214592
11.800999999998899,0.003962993409757792,0.13633363174677748
12.000999999998788,0.003880851474173881,0.14002241089830775
12.200999999998677,0.0037627558516684988,0.1437382511512413
12.400999999998566,0.003817119815318455,0.14751107419932327
12.600999999998455,0.0042616170622402924,0.1514530568428654
12.800999999998345,0.004327684171390296,0.15542880316419377
13.000999999998234,0.004314248477721878,0.15944793318312697
13.200999999998123,0.004357082447451746,0.16354839062650112
13.400999999998012,0.004457396977593201,0.16771538522336574
13.600999999997901,0.004555949996317237,0.17188810647566527
13.80099999999779,0.004661835119775666,0.1760870696821555
14.00099999999768,0.004769609548116569,0.18034186899272325
14.200999999997569,0.0048999778768651255,0.18466294807549208
14.400999999997458,0.0050511653872115266,0.1890412029197055
14.600999999997347,0.0052327039243524505,0.19347395552686358
14.800999999997236,0.00543980150841591,0.19794393704995758
15.000999999997125,0.005664889575078215,0.2024509810899372
15.200999999997014,0.005910700407415485,0.20699674887759123
15.400999999996904,0.006179109279888556,0.211581341270369
15.600999999996793,0.00646942140714655,0.2162024123668125
15.800999999996682,0.006783107952753596,0.22086068424495503
16.000999999996573,0.007112751050775307,0.22555183564092626
16.200999999996817,0.007488875416610931,0.23028868962758023
16.40099999999706,0.007887152401515427,0.23505996159982034
16.600999999997306,0.00829014533167055,0.2398643414579173
16.80099999999755,0.008773250994984171,0.24474251391239107
17.000999999997795,0.009029479324993225,0.2495536738393458
17.20099999999804,0.009810307031141323,0.2551794876716576
17.400999999998284,0.00992245364131763,0.2597863505883856
17.60099999999853,0.010484302267669238,0.2652731915309047
17.800999999998773,0.011080012838014044,0.26969650549276314
18.000999999999017,0.011541804424696385,0.2749522296075645
18.20099999999926,0.011744162340089856,0.27938893984206586
18.400999999999506,0.01188639740480522,0.28385689178145257
18.60099999999975,0.012860136927050006,0.2892097597108743
18.799999999999994,0.01332700419620895,0.29437850182502895
19.000000000000238,0.014843346082482698,0.2996474002987837
19.200000000000482,0.015742063383180054,0.3051537479085793
19.400000000000727,0.01632991600362657,0.31106890979327895
19.60000000000097,0.017297433343661003,0.3162445183697088
19.800000000001216,0.018255954719136536,0.32219196755235924
20.00000000000146,0.01935361265490016,0.3281168681408037
