Time (s),X (m),Y (m)
0.001,-0.00013259955118837574,-0.0009689812320744441
0.20000000000000015,0.0024001784208133145,0.002319593544012116
0.4000000000000003,0.004019592750588609,-0.003797158989485615
0.6000000000000004,0.01610188974504706,-0.0008290357897933023
0.8000000000000006,0.02944956603972303,-0.010715909172808014
1.0000000000000007,0.04882968668181083,-0.009498796868545578
1.2009999999999785,0.07082041541543511,-0.006069004442629968
1.4009999999999565,0.10030149135438593,-0.016248935897665198
1.6009999999999345,0.12828312091273586,-0.011600647622987442
1.8009999999999124,0.15617651247465095,-0.0017138279186873486
2.0009999999998906,0.18922945215683717,-0.007344332870083462
2.2009999999998686,0.21954752480118483,-0.014218772419551835
2.4009999999998466,0.2520186118111039,-0.019757828590202163
2.6009999999998246,0.2829099969210547,-0.016116558608604174
2.8009999999998025,0.3110251279554925,-0.018653297672719244
3.0009999999997805,0.34499049384374025,-0.01317757001925186
3.2009999999997585,0.3727351618226988,-0.016687930816358457
3.4009999999997365,0.40168317300000933,-0.0163644665825981
3.6009999999997144,0.4276709952629519,-0.01857485573886359
3.8009999999996924,0.4567482683661868,-0.01225894804273478
4.000999999999671,0.4800545898579762,-0.014903923331894444
4.200999999999738,0.5055175463634667,-0.009138056156567
4.400999999999804,0.5322011018562405,-0.01657951449807337
4.600999999999871,0.5686375766012032,-0.003573521682529346
4.800999999999938,0.5965109248970515,-0.005426678174789479
5.000000000000004,0.6282448706329932,-0.014973398931405401
5.200000000000071,0.6576775726789006,-0.0048107676841848595
5.400000000000138,0.691013264752021,0.005860766294768323
5.600000000000205,0.7230360235008696,0.0057242140253280305
5.800000000000272,0.7544720863385053,0.0007593942526707024
6.000000000000338,0.776240050640982,-0.009340611799449672
6.200000000000405,0.8071370763130298,-0.004514793438340667
6.400000000000472,0.8363366310838066,0.00331151979516119
6.600000000000539,0.8690121376077319,0.010527847314799
6.800000000000606,0.901010881413673,0.017027050902852957
7.000000000000672,0.9350203712169474,0.014041509856277487
7.200000000000739,0.9703987216310733,0.02238939315422558
7.400000000000806,1.0005249190824728,0.021462453103438767
7.600000000000873,1.0348021157312244,0.029783010045055645
7.8000000000009395,1.0675038687553904,0.02757349790777134
8.000000000001005,1.0989029366821648,0.03260667358819771
8.200000000000895,1.1363960063147645,0.04869247670722595
8.400000000000784,1.1717076211833326,0.05147243945946637
8.600000000000673,1.2037287236614562,0.04884368266692534
8.800000000000562,1.2372889403631906,0.05321449017640886
9.000000000000451,1.2735386118403447,0.05501973612282211
9.20000000000034,1.3119045126345867,0.059719014473054326
9.40000000000023,1.3550150350157353,0.06491160110474775
9.600000000000119,1.3997927867465338,0.07611556301403247
9.800000000000008,1.4336505643959214,0.08308459798332093
10.000999999999896,1.466702801151359,0.08671459973710514
10.200999999999786,1.504052617164095,0.09205501822819397
10.400999999999675,1.5332516675298375,0.09030922168662481
10.600999999999564,1.5607394336755387,0.08939603119292676
10.800999999999453,1.5893326508998495,0.08785353998280339
11.000999999999342,1.6193011212791577,0.09713166867213122
11.200999999999231,1.6541727942843962,0.10590197512852068
11.40099999999912,1.6839814791907517,0.11067153100994671
11.60099999999901,1.7145469571502583,0.12069164398527864
11.800999999998899,1.7500829553588348,0.13943705335080456
12.000999999998788,1.7867356294713588,0.14658293702720415
12.200999999998677,1.8243419932257043,0.16741539193867053
12.400999999998566,1.8638271891362381,0.1759924520767834
12.600999999998455,1.898412961078428,0.18133748239890826
12.800999999998345,1.9296354031862073,0.1898507900271391
13.000999999998234,1.9659940199950605,0.20214830397006261
13.200999999998123,2.0036027905679834,0.22307634948649724
13.400999999998012,2.035650331223896,0.22943887374031258
13.600999999997901,2.06771290785049,0.24309280600667188
13.80099999999779,2.100654388216764,0.2669896763486731
14.00099999999768,2.1312893843576504,0.2857312517699353
14.200999999997569,2.1607370015684055,0.2890663567994595
14.400999999997458,2.1945250194662753,0.29364977285209615
14.600999999997347,2.232946383647921,0.3103414260687112
14.800999999997236,2.2653965093672532,0.33519220943002287
15.000999999997125,2.2955682487788125,0.3668330071869195
15.200999999997014,2.333803022571622,0.38698926332392586
15.400999999996904,2.3659399141220603,0.41249418886708755
15.600999999996793,2.3954650368686856,0.4317734011691993
15.800999999996682,2.428390160121925,0.446129130876168
16.000999999996573,2.4595339304138144,0.4635034028183479
16.200999999996817,2.490258207703884,0.48098080463717674
16.40099999999706,2.523448767449577,0.48639298595035596
16.600999999997306,2.556694540589195,0.5073785938060384
16.80099999999755,2.5917537643171737,0.534882339286189
17.000999999997795,2.627923408773234,0.5532793826050291
17.20099999999804,2.658567076597901,0.5625805721099584
17.400999999998284,2.691676783791452,0.56461346693799
17.60099999999853,2.722457014897978,0.5516921199427812
17.800999999998773,2.7602447221303086,0.5469678164122792
18.000999999999017,2.7932150508426834,0.5631233022141405
18.20099999999926,2.826859303968998,0.5853045464503542
18.400999999999506,2.860714772322827,0.6020687315553125
18.60099999999975,2.89342756258752,0.6139978346175625
18.799999999999994,2.9290040543013416,0.615795814426399
19.000000000000238,2.964615267920905,0.6183938083625751
19.200000000000482,2.998288678466045,0.6200412374714938
19.400000000000727,3.0318963444664986,0.6276341978859421
19.60000000000097,3.065390822025822,0.6434370401390962
19.800000000001216,3.1039225609609193,0.6528226898331018
20.00000000000146,3.1432061347729374,0.6637718217716487
