Time (s),X (m),Y (m)
0.001,-4.680521708071185e-05,0.00099603208171127
0.20000000000000015,0.0009524452844829272,0.001678703636799801
0.4000000000000003,0.0008945375731495023,0.005189154952982481
0.6000000000000004,0.0010682239643751085,0.004459221396576527
0.8000000000000006,0.0022723035866478187,0.003787179545755088
1.0000000000000007,0.0035030084243860976,0.0025206315896946934
1.2009999999999785,0.005307787116670377,0.0006117665849940273
1.4009999999999565,0.007364788159249057,-0.0008234720550607654
1.6009999999999345,0.009411118887613777,-0.0011301968115840322
1.8009999999999124,0.011470544363681149,-0.0012404956378247829
2.0009999999998906,0.012524660796213463,-0.002348184432405563
2.2009999999998686,0.01300968843057301,-0.003733263655894795
2.4009999999998466,0.013329221326125767,-0.00465922925447631
2.6009999999998246,0.013616116588739631,-0.0053002529881952705
2.8009999999998025,0.014096289662663129,-0.00643411192233833
3.0009999999997805,0.014496376069577167,-0.007240935693946276
3.2009999999997585,0.015046161440712896,-0.008368855900643839
3.4009999999997365,0.01565873510642214,-0.009701576130389309
3.6009999999997144,0.016421801500840563,-0.011285923928091137
3.8009999999996924,0.017094303729786774,-0.012588664597718225
4.000999999999671,0.01793847925034705,-0.014235502592202711
4.200999999999738,0.018691071926067192,-0.015587866275502313
4.400999999999804,0.01975699862193652,-0.017481463195619818
4.600999999999871,0.020878003245755297,-0.019429094642246195
4.800999999999938,0.022012632082979655,-0.021354524031461493
5.000000000000004,0.023084088112671326,-0.023174912086434376
5.200000000000071,0.024146371582331794,-0.02496503809894441
5.400000000000138,0.025436301194771103,-0.02689854702858733
5.600000000000205,0.026732377985346105,-0.028808951008870078
5.800000000000272,0.028079550431419884,-0.030719197943334442
6.000000000000338,0.02982519108733148,-0.03263410151795634
6.200000000000405,0.03125092343765015,-0.03461823519676873
6.400000000000472,0.03273518346083373,-0.03656065075423096
6.600000000000539,0.03435028109468599,-0.03864818762264238
6.800000000000606,0.035885339979814565,-0.04060424818329171
7.000000000000672,0.03755919428745227,-0.04265240281897
7.200000000000739,0.03920813411661959,-0.04465060328332664
7.400000000000806,0.04088989130632651,-0.046701431856147224
7.600000000000873,0.04275952004102184,-0.04889822018155216
7.8000000000009395,0.04497637774117822,-0.051007572275350695
8.000000000001005,0.04675092292163533,-0.05295021497481335
8.200000000000895,0.04888209135746651,-0.054856447864626026
8.400000000000784,0.05084016361790858,-0.056950667445417054
8.600000000000673,0.052990149119932335,-0.05881497876713906
8.800000000000562,0.05524400524761257,-0.060673780715220324
9.000000000000451,0.05733379986786302,-0.06284658740220281
9.20000000000034,0.05940345339992341,-0.06451967098760837
9.40000000000023,0.061622697870909966,-0.06618149452395493
9.600000000000119,0.06327444560825596,-0.06782347946604232
9.800000000000008,0.06513316536228332,-0.06968337239193885
10.000999999999896,0.06721154883683574,-0.07122710070045507
10.200999999999786,0.06954822841829203,-0.07294622037757716
10.400999999999675,0.07135633812508166,-0.07459087852741739
10.600999999999564,0.073090644618891,-0.07621707718342459
10.800999999999453,0.07495707396658816,-0.07790360584619982
11.000999999999342,0.07685559918357977,-0.07959925516288392
11.200999999999231,0.07968224497421622,-0.08096901861601627
11.40099999999912,0.08258385274611994,-0.08192964824237774
11.60099999999901,0.08557665752183352,-0.08271072707184267
11.800999999998899,0.0883583029175675,-0.08338296407151849
12.000999999998788,0.09080845315371662,-0.08370581143353381
12.200999999998677,0.09326774304856482,-0.0841742657822959
12.400999999998566,0.09567339882682271,-0.08447150863858612
12.600999999998455,0.09802095365584794,-0.08498881000841446
12.800999999998345,0.09972793565979168,-0.0852390558518512
13.000999999998234,0.10171893422912082,-0.08599669960148124
13.200999999998123,0.10336711810030856,-0.08637503662028714
13.400999999998012,0.10518373015771741,-0.08710100423294354
13.600999999997901,0.10692846594585834,-0.08729230612636586
13.80099999999779,0.1087860846932019,-0.08801252121567534
14.00099999999768,0.11033673589401995,-0.087990282001173
14.200999999997569,0.1121915500878068,-0.08853361693827859
14.400999999997458,0.1139034241097433,-0.08891908487800705
14.600999999997347,0.11548804815394254,-0.08914585620978369
14.800999999997236,0.11730678839750913,-0.08974061853314519
15.000999999997125,0.11889256755917708,-0.09008302123049093
15.200999999997014,0.12059235055842986,-0.09058451357592182
15.400999999996904,0.1222342535215211,-0.09081450735375923
15.600999999996793,0.12379855061047562,-0.09094949226228449
15.800999999996682,0.12554752272179473,-0.09136610703900838
16.000999999996573,0.12694690534103187,-0.0915741439569599
16.200999999996817,0.12847056793694078,-0.09192477048798087
16.40099999999706,0.12996457767291825,-0.09206865231310837
16.600999999997306,0.13139293143428482,-0.09206513251571766
16.80099999999755,0.13316138048646248,-0.09240032231818375
17.000999999997795,0.1345997706522287,-0.09252500740001497
17.20099999999804,0.1362052419759415,-0.09280266908138679
17.400999999998284,0.1376529422376907,-0.09284452389906613
17.60099999999853,0.13908023741834452,-0.09277979663239438
17.800999999998773,0.1407692263199547,-0.09303623460616749
18.000999999999017,0.14216980932157,-0.093121292399486
18.20099999999926,0.14374896323069547,-0.09322119287848395
18.400999999999506,0.14530335101957598,-0.09314986828753992
18.60099999999975,0.14670134852032893,-0.0929369966760016
18.799999999999994,0.14852521893618437,-0.09291581248747764
19.000000000000238,0.15006813479592992,-0.09279465599203494
19.200000000000482,0.1514412107001774,-0.09259478974505234
19.400000000000727,0.15323218186178486,-0.09267317037490266
19.60000000000097,0.1547145490852546,-0.09253295092540031
19.800000000001216,0.15636786190466326,-0.09243252233468752
20.00000000000146,0.15801162841674546,-0.09221975540898827
