Time (s),X (m),Y (m)
0.001,-0.000811087514270633,3.327365771613117e-19
0.20000000000000015,0.006040114280712609,-0.00041191720636591875
0.4000000000000003,0.017773906042742687,0.000511029082243344
0.6000000000000004,0.018479505923512853,0.0021305637188370444
0.8000000000000006,0.023753757829351557,0.0006077851229876623
1.0000000000000007,0.03556647010152482,-0.001339411871739913
1.2009999999999785,0.040552857850890134,-0.0007114525753927937
1.4009999999999565,0.04585586758757682,-0.0014932575997222304
1.6009999999999345,0.05109641566236871,-0.0020507033476268536
1.8009999999999124,0.06753945368005329,-0.005259425351756397
2.0009999999998906,0.08075128180582142,-0.010642432665958072
2.2009999999998686,0.08493528100241234,-0.012919273024576081
2.4009999999998466,0.09989741590822679,-0.011334158807748318
2.6009999999998246,0.12106294337519836,-0.014334841026582487
2.8009999999998025,0.14023838441938105,-0.016886328348841975
3.0009999999997805,0.1602871968187362,-0.024589837587468317
3.2009999999997585,0.17904676096504551,-0.033385551050928046
3.4009999999997365,0.1977040396285082,-0.044889824692378615
3.6009999999997144,0.21556274928099445,-0.051428212823016656
3.8009999999996924,0.2317145155836902,-0.06231830221710227
4.000999999999671,0.2511025997468209,-0.07072506527015714
4.200999999999738,0.27461052388707885,-0.07848480553170514
4.400999999999804,0.2940014523062476,-0.08676225445065174
4.600999999999871,0.31061511050119545,-0.09401804078950807
4.800999999999938,0.33510685082662206,-0.09995195325607646
5.000000000000004,0.35413348109479104,-0.10871779370633997
5.200000000000071,0.3778009006038078,-0.11622187454608696
5.400000000000138,0.3945686329166456,-0.12212497481443349
5.600000000000205,0.4143042423868158,-0.13361537339210178
5.800000000000272,0.43547620621303273,-0.1428507003295429
6.000000000000338,0.45429692200584937,-0.14748106808587735
6.200000000000405,0.4759716291669794,-0.1572082598597504
6.400000000000472,0.4997788799983472,-0.17178975357942963
6.600000000000539,0.5260119013015565,-0.18485644575672386
6.800000000000606,0.5514311052271796,-0.20041135037842053
7.000000000000672,0.5781853924631967,-0.2150256073460342
7.200000000000739,0.6123820649465169,-0.23819179810639288
7.400000000000806,0.6298565238442557,-0.2530196780160463
7.600000000000873,0.646505107675557,-0.26238969650812277
7.8000000000009395,0.6566582953876213,-0.27196412783486135
8.000000000001005,0.6682459722227116,-0.28546496792564297
8.200000000000895,0.6913113103895085,-0.2969056793756519
8.400000000000784,0.7154529862553768,-0.31110535920865506
8.600000000000673,0.730890847943879,-0.3241261820136484
8.800000000000562,0.7526934552103189,-0.33497185078748676
9.000000000000451,0.7678730210882011,-0.3477234717723986
9.20000000000034,0.7861818229946944,-0.36203693562427686
9.40000000000023,0.8139646695274286,-0.3815718078112722
9.600000000000119,0.8416116792395405,-0.4001593769309355
9.800000000000008,0.8708360822299033,-0.4258248103217013
10.000999999999896,0.8949152249752552,-0.44261089749292176
10.200999999999786,0.9227423335643723,-0.47016043713507205
10.400999999999675,0.9511881613130169,-0.49242757643628704
10.600999999999564,0.9865302477249531,-0.5132483715636047
10.800999999999453,1.008454207972048,-0.5303534692152583
11.000999999999342,1.0416192579606882,-0.552093831322596
11.200999999999231,1.0705248703020578,-0.5679362418771879
11.40099999999912,1.098001148719999,-0.5918095574587473
11.60099999999901,1.1273428154128668,-0.6111481360624957
11.800999999998899,1.1488414814802832,-0.6296381530583666
12.000999999998788,1.1664995746162772,-0.6474247208262661
12.200999999998677,1.1812795809992398,-0.6681089596241964
12.400999999998566,1.1964960997070568,-0.7027912791191484
12.600999999998455,1.2078299461832538,-0.7112312640054821
12.800999999998345,1.2165677242161557,-0.7282125347226915
13.000999999998234,1.2290554078990072,-0.7511818434729316
13.200999999998123,1.2364729853001601,-0.7612167961253462
13.400999999998012,1.247774684733664,-0.782885949441124
13.600999999997901,1.2562582886976046,-0.789415919329426
13.80099999999779,1.2660555890040324,-0.8091630794930971
14.00099999999768,1.2721833800996944,-0.8370765791133173
14.200999999997569,1.2747002585294547,-0.8636675224550698
14.400999999997458,1.2803643515693763,-0.884025600585276
14.600999999997347,1.2830893156549656,-0.9036723693620282
14.800999999997236,1.286922163404592,-0.9297295523044427
15.000999999997125,1.2856758841406781,-0.9573951127232974
15.200999999997014,1.2793511019678816,-0.9802171125130515
15.400999999996904,1.27272583148566,-1.008117457717848
15.600999999996793,1.261093027622795,-1.0359673721372733
15.800999999996682,1.2529919050462528,-1.0546929682842434
16.000999999996573,1.2456552036490538,-1.0733760176008407
16.200999999996817,1.2373741744954727,-1.1021773267994288
16.40099999999706,1.2219897978276586,-1.128279739527255
16.600999999997306,1.2124267237798156,-1.1497768210776138
16.80099999999755,1.1972854262713963,-1.1774150891857047
17.000999999997795,1.1854592897755052,-1.203819379028525
17.20099999999804,1.1793440800279893,-1.2245216512430894
17.400999999998284,1.1668738035134891,-1.249555346657112
17.60099999999853,1.1581293826605386,-1.2672036692198094
17.800999999998773,1.1411980140428242,-1.289860796660814
18.000999999999017,1.1246945810725355,-1.3158907901518162
18.20099999999926,1.1120448001469,-1.3382706946156249
18.400999999999506,1.0989912511037663,-1.3618709996070877
18.60099999999975,1.0920276835084815,-1.376487745221895
18.799999999999994,1.0761021506021562,-1.3947776710115278
19.000000000000238,1.0610757743260537,-1.4153612129661737
19.200000000000482,1.0495289205011467,-1.4325037914154377
19.400000000000727,1.0358090162113076,-1.457695404423794
19.60000000000097,1.0248379315872675,-1.4809358839644549
19.800000000001216,1.011825319026616,-1.5009141541190327
20.00000000000146,0.9998334464707155,-1.5306567489937033
