Time (s),X (m),Y (m)
0.001,4.1020280575708355e-05,0.0010155025257856582
0.20000000000000015,0.0014090656166020627,-0.005212858627969814
0.4000000000000003,0.009319334269663103,-0.009436253447213373
0.6000000000000004,0.02040234212489511,-0.021304692440628322
0.8000000000000006,0.03826475868086287,-0.03257260125424465
1.0000000000000007,0.05437480751183215,-0.03783266291045107
1.2009999999999785,0.08081148509533456,-0.03757513214234816
1.4009999999999565,0.11094680151040608,-0.04283225181213393
1.6009999999999345,0.13744694343507877,-0.05771154123057912
1.8009999999999124,0.16821031824067717,-0.07342672220822125
2.0009999999998906,0.19858287252983317,-0.08297733884102462
2.2009999999998686,0.22973283629162417,-0.10826118730365887
2.4009999999998466,0.2586005670586761,-0.1283267236839597
2.6009999999998246,0.2841903575420921,-0.15445387646911463
2.8009999999998025,0.3039518601568252,-0.17847034493242295
3.0009999999997805,0.3160391102473513,-0.20101185244477807
3.2009999999997585,0.33499598222697236,-0.22387986931387094
3.4009999999997365,0.36337771529562174,-0.24239378560247252
3.6009999999997144,0.39243824307095004,-0.2683330943837506
3.8009999999996924,0.4207033511287027,-0.2932302397663909
4.000999999999671,0.4482643389764623,-0.3149745159439258
4.200999999999738,0.47484742759983867,-0.3302328382113921
4.400999999999804,0.5004800873119836,-0.34957435336440057
4.600999999999871,0.5279555686834453,-0.36861828537439756
4.800999999999938,0.5645354137766472,-0.38043425949478366
5.000000000000004,0.5997309348719363,-0.405778474236927
5.200000000000071,0.6307129306540337,-0.42508018391095204
5.400000000000138,0.6692296368799545,-0.4362286065853543
5.600000000000205,0.697623846235275,-0.455904151925063
5.800000000000272,0.7211229729045678,-0.475982439642538
6.000000000000338,0.7519435165120162,-0.49553024680291957
6.200000000000405,0.7812084116331953,-0.5228857103956919
6.400000000000472,0.8094275110552,-0.5543474066392501
6.600000000000539,0.838329622803333,-0.5858179573354788
6.800000000000606,0.865105129960698,-0.6154241639466177
7.000000000000672,0.8937412288858193,-0.6503102066064144
7.200000000000739,0.9200787687012909,-0.6836067249889027
7.400000000000806,0.9380578438514144,-0.7275565760610685
7.600000000000873,0.9551305660180823,-0.7634858192297969
7.8000000000009395,0.9845362652335451,-0.7930916296430522
8.000000000001005,1.0094978179791168,-0.8258366365255139
8.200000000000895,1.0490395062079854,-0.8644324945868844
8.400000000000784,1.083744412841596,-0.9046843704978135
8.600000000000673,1.1215420429678868,-0.9407124656194495
8.800000000000562,1.142079890441191,-0.9726332051121286
9.000000000000451,1.1353989393288761,-1.0083386506903773
9.20000000000034,1.1249483694020066,-1.0484989745426878
9.40000000000023,1.1160411956673155,-1.084764034794391
9.600000000000119,1.1038463364151307,-1.1171327017060197
9.800000000000008,1.0925940738378732,-1.1494004401338809
10.000999999999896,1.0897753366145524,-1.1961667602904331
10.200999999999786,1.0796952094657535,-1.2382669554681045
10.400999999999675,1.047349834886505,-1.272351648887779
10.600999999999564,1.0154472190905632,-1.3045657323028301
10.800999999999453,0.9886456093708168,-1.3359107136287205
11.000999999999342,0.9577946950350307,-1.3656661486400756
11.200999999999231,0.9203860613437834,-1.3830840134774665
11.40099999999912,0.8877135008462578,-1.4028829121515374
11.60099999999901,0.8578101338606691,-1.4301583166468046
11.800999999998899,0.8306214370697202,-1.441393822659316
12.000999999998788,0.8015340895949032,-1.4526458332646701
12.200999999998677,0.7689283251972201,-1.4713404227729543
12.400999999998566,0.7404451535876349,-1.4764036739445177
12.600999999998455,0.7167214463512871,-1.4816021936601211
12.800999999998345,0.6897654154429801,-1.490589091011282
13.000999999998234,0.6580115485644326,-1.490314119987059
13.200999999998123,0.6266251440958258,-1.4740253859203112
13.400999999998012,0.594419946747836,-1.4724103465922729
13.600999999997901,0.5607133766978363,-1.4662066098754156
13.80099999999779,0.5256943908008,-1.4681190514130693
14.00099999999768,0.48392669553589623,-1.4642272784305084
14.200999999997569,0.4398676623568211,-1.4516908311140626
14.400999999997458,0.39919388945236745,-1.4401088572733685
14.600999999997347,0.36113356192685814,-1.4183631911001475
14.800999999997236,0.3203852626036597,-1.4117498705131677
15.000999999997125,0.282078367427335,-1.3932654045812485
15.200999999997014,0.24351020629911788,-1.3574886405167617
15.400999999996904,0.20405824068961462,-1.3197289591722863
15.600999999996793,0.17604474107605492,-1.2791190214139239
15.800999999996682,0.14871670805744178,-1.2368212462608628
16.000999999996573,0.12659883742615682,-1.206216992668486
16.200999999996817,0.09797743561576998,-1.1838214730353795
16.40099999999706,0.06933579665937707,-1.1576208921453388
16.600999999997306,0.045390690898173984,-1.128352370088482
16.80099999999755,0.009547784906364246,-1.108219055859146
17.000999999997795,-0.02659562290539757,-1.0909623215200264
17.20099999999804,-0.058474218709261595,-1.0698175911155172
17.400999999998284,-0.08740099683771357,-1.0446635426210094
17.60099999999853,-0.12700601807917358,-1.0244830550095232
17.800999999998773,-0.15725716576063695,-1.0063172571891978
18.000999999999017,-0.19245704423073276,-0.9972624696885302
18.20099999999926,-0.22480273884457636,-0.9825626129396743
18.400999999999506,-0.2509170032682347,-0.9569776500389546
18.60099999999975,-0.2808948042112287,-0.9262244002552612
18.799999999999994,-0.2996265784643709,-0.8886283771147946
19.000000000000238,-0.323467827498644,-0.8458272310529764
19.200000000000482,-0.3597525031630938,-0.8236026713247109
19.400000000000727,-0.3924883330165179,-0.7922864159763319
19.60000000000097,-0.4268567405450726,-0.7720435904540099
19.800000000001216,-0.45847609605803513,-0.7519256605244714
20.00000000000146,-0.4940301071025362,-0.7283748044472291
