Time (s),X (m),Y (m)
0.001,0.0012161128565605834,0.00026688599193002506
0.20000000000000015,-0.001744131105972876,-0.0006395461937188173
0.4000000000000003,-0.008741903112850337,-0.004596183476777057
0.6000000000000004,0.008445544458338703,-0.010271776546143415
0.8000000000000006,0.024160102269170133,-0.015108531773845281
1.0000000000000007,0.03895435791571572,-0.023262441149958766
1.2009999999999785,0.07946970114419726,-0.03809881928982899
1.4009999999999565,0.11804725604162344,-0.055025029627314724
1.6009999999999345,0.1592746682860429,-0.08589701637293655
1.8009999999999124,0.1946388588560511,-0.11283101877878113
2.0009999999998906,0.21912304647461622,-0.14178597701455364
2.2009999999998686,0.22851354788611267,-0.17717771508749586
2.4009999999998466,0.21598948562589318,-0.22447236938296644
2.6009999999998246,0.19214718507402562,-0.27163845117937024
2.8009999999998025,0.15871255120458558,-0.3169888841442256
3.0009999999997805,0.1279575696347097,-0.35092836124250426
3.2009999999997585,0.10094339799737867,-0.36556300502043826
3.4009999999997365,0.06524415200002882,-0.35464510115636355
3.6009999999997144,0.031144601088603265,-0.3353112320186437
3.8009999999996924,0.004797885199027028,-0.3068850600952568
4.000999999999671,-0.0075590207189768655,-0.2655298850542223
4.200999999999738,0.007980665554631564,-0.21166086084071734
4.400999999999804,0.038302032096559795,-0.16046948045826487
4.600999999999871,0.06306125026620339,-0.12607108076549814
4.800999999999938,0.09062952035264209,-0.10903845638012899
5.000000000000004,0.12272644936172589,-0.1003029439068842
5.200000000000071,0.16995774264816266,-0.09165328917120058
5.400000000000138,0.22913372978826416,-0.10228052478651463
5.600000000000205,0.29480229572510236,-0.14243092268493532
5.800000000000272,0.364705443087811,-0.19975728373846435
6.000000000000338,0.4307630802035811,-0.26237770121076165
6.200000000000405,0.4811415879291988,-0.3106471968684612
6.400000000000472,0.5038015564831871,-0.34862553141465513
6.600000000000539,0.5011559815431401,-0.3913090263943884
6.800000000000606,0.4882608570533274,-0.4325400201705
7.000000000000672,0.46642836849035163,-0.47279370013175714
7.200000000000739,0.4370149880894315,-0.5184537651893889
7.400000000000806,0.39590417598176264,-0.5717365515308506
7.600000000000873,0.34658607778097966,-0.6264214750028926
7.8000000000009395,0.2916538358342806,-0.6786570755055648
8.000000000001005,0.24145231092115343,-0.7187246944541718
8.200000000000895,0.19144403051783132,-0.7333648667075258
8.400000000000784,0.15483768503243217,-0.7304217659828514
8.600000000000673,0.10756477993591763,-0.7046582013119336
8.800000000000562,0.043563467853853045,-0.6550201856067814
9.000000000000451,-0.02253723000687988,-0.5947945963259973
9.20000000000034,-0.08927036207739236,-0.5391577292482186
9.40000000000023,-0.1544624765933408,-0.48522349347717164
9.600000000000119,-0.1912062873159634,-0.42339559009835287
9.800000000000008,-0.19465349318387895,-0.3712815003932679
10.000999999999896,-0.17804064435406253,-0.31570869232522925
10.200999999999786,-0.1597111361953362,-0.2668397883234124
10.400999999999675,-0.13074894362860742,-0.2215504900041367
10.600999999999564,-0.10454393318300265,-0.17803651130135162
10.800999999999453,-0.0748387363912651,-0.1457842150943288
11.000999999999342,-0.04225769745896385,-0.13375149995622773
11.200999999999231,-0.002149806906995051,-0.1427046811106423
11.40099999999912,0.04871597896611856,-0.17763485504474752
11.60099999999901,0.10429652841508619,-0.22732249265672522
11.800999999998899,0.1473468546814505,-0.2744250980058486
12.000999999998788,0.1670218390735429,-0.3235034294736916
12.200999999998677,0.16569662502900143,-0.3802077150144746
12.400999999998566,0.1553275685320017,-0.436487492220844
12.600999999998455,0.13626301301648588,-0.508484299317869
12.800999999998345,0.11244672005758469,-0.5770615645240038
13.000999999998234,0.08187680426567931,-0.6416652594740571
13.200999999998123,0.04264271451486624,-0.706206645014276
13.400999999998012,-0.007406305435820269,-0.777602536702638
13.600999999997901,-0.061573246033047625,-0.8456068533088819
13.80099999999779,-0.12327047574377575,-0.9031337831712778
14.00099999999768,-0.1909786700944835,-0.9367603596595113
14.200999999997569,-0.2616253855501635,-0.943482066730981
14.400999999997458,-0.3285423761436098,-0.9230757835221389
14.600999999997347,-0.39600330351140967,-0.8905048367725048
14.800999999997236,-0.4714995317872728,-0.8442250209085769
15.000999999997125,-0.5459367319051482,-0.7949457253386824
15.200999999997014,-0.6209426779162306,-0.7408128555082276
15.400999999996904,-0.6987386115191346,-0.6755567097748564
15.600999999996793,-0.7643381867507655,-0.6034285513539892
15.800999999996682,-0.7869922219610277,-0.5294990055269967
16.000999999996573,-0.7782672539145491,-0.46067692258292386
16.200999999996817,-0.7415528201535084,-0.41835288705152957
16.40099999999706,-0.6960341105708951,-0.4106494634229716
16.600999999997306,-0.6510571166171923,-0.4234386449651247
16.80099999999755,-0.6073569909548092,-0.44633529520214554
17.000999999997795,-0.5515731453701719,-0.4808133028756539
17.20099999999804,-0.495748646624546,-0.5251132899918987
17.400999999998284,-0.4422377280449644,-0.5752361258529112
17.60099999999853,-0.3912253694245468,-0.6194257232161445
17.800999999998773,-0.3449008787031929,-0.6712750546985631
18.000999999999017,-0.3188185314770164,-0.7249574391948499
18.20099999999926,-0.3186594960223987,-0.7723016551999706
18.400999999999506,-0.3497852425471357,-0.8311091309775108
18.60099999999975,-0.3900441308934722,-0.8918117419059554
18.799999999999994,-0.43169245000198997,-0.9506831379719585
19.000000000000238,-0.4813837953906961,-1.0086826553935726
19.200000000000482,-0.5458999363542624,-1.0736972103695808
19.400000000000727,-0.6149348201197684,-1.1293278363050687
19.60000000000097,-0.6792399423664002,-1.1587785524716008
19.800000000001216,-0.7312188791581398,-1.1604768827897767
20.00000000000146,-0.791279939828034,-1.1522941776893285
