Time (s),X (m),Y (m)
0.001,4.1020280575708355e-05,0.0010155025257856582
0.20000000000000015,0.001492752512803809,0.002846079634755698
0.4000000000000003,0.004423973882610706,0.0021418599038451488
0.6000000000000004,0.007445474660148101,-0.004776968952499252
0.8000000000000006,0.009428291073808267,-0.007443641006198491
1.0000000000000007,0.0131610446502501,-0.007754157033250051
1.2009999999999785,0.020593474002588905,-0.008632720543479853
1.4009999999999565,0.0275552999570679,-0.011074422531443128
1.6009999999999345,0.03451519662470685,-0.012611305967696102
1.8009999999999124,0.040237334142775666,-0.021921990418263974
2.0009999999998906,0.048249296450069,-0.014344914677329785
2.2009999999998686,0.056602989870540375,-0.0120291554893051
2.4009999999998466,0.07026052441936917,-0.0158813483772562
2.6009999999998246,0.07953222379056246,-0.02252422692610875
2.8009999999998025,0.08943852223183234,-0.032658558102352776
3.0009999999997805,0.09670778227059879,-0.035652794955833726
3.2009999999997585,0.10518879233312327,-0.03765808213476072
3.4009999999997365,0.11527377546479774,-0.03282742926795692
3.6009999999997144,0.12310029104844113,-0.036483807584652854
3.8009999999996924,0.13257297712700167,-0.0365826919203043
4.000999999999671,0.14075771198532008,-0.0394408351565372
4.200999999999738,0.15175021404937208,-0.04513538327295934
4.400999999999804,0.16022449567123667,-0.04863038648367425
4.600999999999871,0.16886753647398162,-0.05376226247405337
4.800999999999938,0.1802472202985719,-0.052450754408191025
5.000000000000004,0.18791829813485544,-0.061271054088085565
5.200000000000071,0.1981106632122866,-0.061764830234499066
5.400000000000138,0.20394611081634126,-0.07205255883455429
5.600000000000205,0.21283529808938126,-0.08367211239741135
5.800000000000272,0.2249406779785552,-0.08529116714166055
6.000000000000338,0.2365049349313279,-0.09128679161227875
6.200000000000405,0.24710279451488684,-0.09653252730639492
6.400000000000472,0.25480616075092166,-0.10243638053909422
6.600000000000539,0.2663591458523464,-0.11227514289210945
6.800000000000606,0.2776413011592702,-0.11102697190275268
7.000000000000672,0.28094983197987544,-0.12561815751090397
7.200000000000739,0.28593643147438264,-0.13559193467970065
7.400000000000806,0.29108803815165935,-0.14191022568446648
7.600000000000873,0.2973480767951325,-0.14938262017737544
7.8000000000009395,0.3086712793199949,-0.153661557847052
8.000000000001005,0.3188802847556039,-0.15894361927400105
8.200000000000895,0.32770869469969,-0.16784952940258485
8.400000000000784,0.3368829287118656,-0.16619453385435987
8.600000000000673,0.3462582117915046,-0.1747138796447327
8.800000000000562,0.35585953298839607,-0.1800804449140524
9.000000000000451,0.3669015173639057,-0.1837920993620754
9.20000000000034,0.37649509657064445,-0.18315443086565256
9.40000000000023,0.3849833224379845,-0.18798727864804535
9.600000000000119,0.39494764789218023,-0.19641437619476393
9.800000000000008,0.40157618789637883,-0.20516042465536163
10.000999999999896,0.4123508284875434,-0.20965158849095633
10.200999999999786,0.4205794008908594,-0.2152303920828217
10.400999999999675,0.43352011743669533,-0.22054113309024448
10.600999999999564,0.44326113462404837,-0.23007064387164702
10.800999999999453,0.4488639404343744,-0.24308548697257829
11.000999999999342,0.4587527928666856,-0.24470152584477797
11.200999999999231,0.47084175313543314,-0.2473995797999276
11.40099999999912,0.4818531815229269,-0.25653604509362105
11.60099999999901,0.4897948013866034,-0.26541486064267006
11.800999999998899,0.4958107430209779,-0.26889372072609496
12.000999999998788,0.501694556496511,-0.2793824140157212
12.200999999998677,0.5104693046893178,-0.285380424357152
12.400999999998566,0.5213914195247903,-0.29207902776185884
12.600999999998455,0.5279187007171235,-0.30604100993413375
12.800999999998345,0.5333690265318441,-0.31974666540276053
13.000999999998234,0.5341374301930755,-0.3309779585560947
13.200999999998123,0.5380658224417981,-0.34101913659479804
13.400999999998012,0.5420958111181029,-0.3474672511176693
13.600999999997901,0.5468356193099652,-0.35650953803560254
13.80099999999779,0.5512704957380221,-0.3686503405410338
14.00099999999768,0.5588648675813813,-0.3776692618465514
14.200999999997569,0.5637566541385782,-0.39001983177084937
14.400999999997458,0.5716744429054083,-0.39398901262892977
14.600999999997347,0.5782475914521932,-0.39828689904775766
14.800999999997236,0.5855005904168817,-0.4097890229477726
15.000999999997125,0.5957702089736955,-0.4167261262413468
15.200999999997014,0.6053283464969766,-0.4210086366130864
15.400999999996904,0.6169208138963368,-0.42364050679091786
15.600999999996793,0.6242722682812327,-0.4307388396958655
15.800999999996682,0.6312373024448673,-0.4379444786070098
16.000999999996573,0.6370220231054632,-0.4452003498559136
16.200999999996817,0.645240338743081,-0.4542172166309812
16.40099999999706,0.6518998803118612,-0.46725217203677605
16.600999999997306,0.6613557729361094,-0.47100288570880466
16.80099999999755,0.6703687832825546,-0.4697289440520381
17.000999999997795,0.6767883456441834,-0.47613494117241617
17.20099999999804,0.6843204589673922,-0.4855838861683684
17.400999999998284,0.6925375437720256,-0.4936324001275371
17.60099999999853,0.7027107778758669,-0.5030072279479822
17.800999999998773,0.7066604026019929,-0.5115019502500789
18.000999999999017,0.7134489460888586,-0.5213186358392417
18.20099999999926,0.719530177926852,-0.5322971660567732
18.400999999999506,0.7276476782198034,-0.5421451508326495
18.60099999999975,0.7326248543272438,-0.5537459154523332
18.799999999999994,0.7406577827343493,-0.5576213514853771
19.000000000000238,0.7478755621050925,-0.5672042695533924
19.200000000000482,0.7484936382704156,-0.5818664306949008
19.400000000000727,0.7541002983175971,-0.5915182489234235
19.60000000000097,0.7605993413272916,-0.5986500567302581
19.800000000001216,0.7694460152661375,-0.6086214498403447
20.00000000000146,0.7780648890321115,-0.6122083990536851
