Time (s),X (m),Y (m)
0.001,0.0007356649194092869,-0.0008930179339548115
0.20000000000000015,0.0007109703977264622,0.0014278267058352703
0.4000000000000003,0.008298325562476781,0.0026175187453415126
0.6000000000000004,0.01879429335605688,-0.00015367887363445596
0.8000000000000006,0.033356331954254234,0.014852723464462122
1.0000000000000007,0.053600056552722396,0.019274251198469542
1.2009999999999785,0.06858011500917331,0.02679009754160267
1.4009999999999565,0.08443782394315777,0.03306160183897345
1.6009999999999345,0.10419940111912104,0.024101566548878347
1.8009999999999124,0.12686113543542735,0.021401112531482903
2.0009999999998906,0.14365119741084742,0.020496631055093955
2.2009999999998686,0.15854729668102258,0.01480977552652615
2.4009999999998466,0.17288754416672175,0.017831088369561106
2.6009999999998246,0.1963530694019647,0.03169406784600743
2.8009999999998025,0.22107882755994723,0.02618762996029019
3.0009999999997805,0.239799263953788,0.0002432601997788353
3.2009999999997585,0.26509692816418573,-0.0165486045797359
3.4009999999997365,0.2915064515222715,-0.02972536164050544
3.6009999999997144,0.3208810342318589,-0.043316432843646294
3.8009999999996924,0.3470163420494434,-0.06760257317950448
4.000999999999671,0.37589217046074114,-0.07728376651706888
4.200999999999738,0.40091077247645274,-0.09317846396759548
4.400999999999804,0.4136756785058984,-0.11895265625440646
4.600999999999871,0.42656631832539466,-0.1300344422450596
4.800999999999938,0.4431644471508684,-0.14110544198531969
5.000000000000004,0.4603584931647505,-0.16472993493523985
5.200000000000071,0.47973771629459033,-0.18866201629821341
5.400000000000138,0.498369750436102,-0.2052718630340975
5.600000000000205,0.5100021472447512,-0.22412524834874392
5.800000000000272,0.5159287274168263,-0.2562499498958899
6.000000000000338,0.5252982285999868,-0.2879028998540282
6.200000000000405,0.5363077992125342,-0.32418341298586406
6.400000000000472,0.5418822522179392,-0.3599774001638174
6.600000000000539,0.5543034683665522,-0.38989464551601394
6.800000000000606,0.5671011239322511,-0.4226572796035852
7.000000000000672,0.5771513287785983,-0.44989485154604864
7.200000000000739,0.5895168964144626,-0.4734644885125543
7.400000000000806,0.5957110419013608,-0.5058455405474738
7.600000000000873,0.5975728072393144,-0.5420455760204642
7.8000000000009395,0.5998076491089909,-0.5747670205531601
8.000000000001005,0.603010746420205,-0.6117605326215556
8.200000000000895,0.6043383689752545,-0.6510966438937295
8.400000000000784,0.6144818777339842,-0.6833525546137107
8.600000000000673,0.6128082357865166,-0.7126829998363486
8.800000000000562,0.622157779956039,-0.7389666953667258
9.000000000000451,0.6207036201418711,-0.7693135848417264
9.20000000000034,0.6271256051665498,-0.8003716792895833
9.40000000000023,0.6243691826894466,-0.8260788759916052
9.600000000000119,0.6146635523873859,-0.8487408027097055
9.800000000000008,0.5978268938591722,-0.875543112674424
10.000999999999896,0.5875060093255888,-0.8961768366278005
10.200999999999786,0.5704615327862738,-0.9195730319654841
10.400999999999675,0.5650749851829242,-0.9515055444884825
10.600999999999564,0.5445132981959073,-0.9770707321797614
10.800999999999453,0.5246898772147165,-1.0044275034936612
11.000999999999342,0.49232096135230147,-1.0284043234592506
11.200999999999231,0.4657526879471165,-1.0509501560303334
11.40099999999912,0.4512562740664368,-1.0659443303886842
11.60099999999901,0.4276580291963804,-1.0752275243819829
11.800999999998899,0.41326524348412225,-1.087922685541751
12.000999999998788,0.39015833616160633,-1.1015457813926877
12.200999999998677,0.3648911535168022,-1.1190891902038014
12.400999999998566,0.3425848798279635,-1.1417974460437104
12.600999999998455,0.3123016944974858,-1.1669852420806062
12.800999999998345,0.26929834463747704,-1.186234347585671
13.000999999998234,0.23417880516983497,-1.204404276319729
13.200999999998123,0.2018993475128572,-1.217922665259147
13.400999999998012,0.16188955024752097,-1.220845676402537
13.600999999997901,0.12889438299283668,-1.2258817294741902
13.80099999999779,0.10060334925410533,-1.2357833069033641
14.00099999999768,0.0805861153630545,-1.2535773735709188
14.200999999997569,0.06114392901522603,-1.2658454061280766
14.400999999997458,0.03298955007650925,-1.2830825989295893
14.600999999997347,0.0064323281980724146,-1.2778644531185868
14.800999999997236,-0.01603984018727628,-1.2659069576927446
15.000999999997125,-0.043069428717454554,-1.2684117454815018
15.200999999997014,-0.06671894229260111,-1.2638349220531198
15.400999999996904,-0.09394533233465503,-1.2534832446812274
15.600999999996793,-0.12029388355992193,-1.2457514730423467
15.800999999996682,-0.14797764254712734,-1.2413435809973796
16.000999999996573,-0.17080763784978328,-1.2344373335040801
16.200999999996817,-0.19092223889253873,-1.216176206373304
16.40099999999706,-0.20877929910555895,-1.20526305648776
16.600999999997306,-0.22761554679156193,-1.1823828477044798
16.80099999999755,-0.25025581250014234,-1.157757283766521
17.000999999997795,-0.26935692875081824,-1.137009491275734
17.20099999999804,-0.286567727501452,-1.1119658963710346
17.400999999998284,-0.3012320294312964,-1.0917428629520978
17.60099999999853,-0.3177642198569139,-1.068717415110356
17.800999999998773,-0.3387882622572971,-1.0451100093614982
18.000999999999017,-0.36266626741104746,-1.022222834675035
18.20099999999926,-0.3889916001966473,-1.0055052580693087
18.400999999999506,-0.4148999710640121,-0.9952669314229147
18.60099999999975,-0.4356307314859138,-0.9794201047867988
18.799999999999994,-0.4439377820733077,-0.9569696476193238
19.000000000000238,-0.44964543104972754,-0.9267581653528131
19.200000000000482,-0.4590463338218354,-0.8888913146376255
19.400000000000727,-0.47157205269059166,-0.8445588382830477
19.60000000000097,-0.4921240242706994,-0.8205728222252207
19.800000000001216,-0.5155850812504675,-0.7982918293105012
20.00000000000146,-0.5289388871986129,-0.7809559879954645
