Time (s),X (m),Y (m)
0.001,0.0006558713247593165,0.0009345558501746678
0.20000000000000015,5.1410053371342336e-05,-0.0035348998812908604
0.4000000000000003,0.0014137096027956725,-0.0028104851549990793
0.6000000000000004,0.005955397274111473,0.00023252200916873376
0.8000000000000006,0.009165543883492765,0.0022257220854732876
1.0000000000000007,0.012690011430862682,0.0028905829747803103
1.2009999999999785,0.017188618694318723,0.006152044697870232
1.4009999999999565,0.020685620609109556,0.0069690225112732426
1.6009999999999345,0.02434976978072421,0.008124037793570337
1.8009999999999124,0.028602566351176317,0.01079992146354919
2.0009999999998906,0.03245401557120678,0.012229835539518964
2.2009999999998686,0.03589764828416668,0.014035776812590278
2.4009999999998466,0.03884191466926351,0.014562478905484325
2.6009999999998246,0.04264365966134194,0.01623345502275785
2.8009999999998025,0.04660294087902589,0.01800710629911159
3.0009999999997805,0.04989737225804916,0.019406375076046766
3.2009999999997585,0.05391057726257459,0.02406535417840589
3.4009999999997365,0.05742326149445275,0.026594662724286643
3.6009999999997144,0.0603753573143686,0.029094395751795142
3.8009999999996924,0.06390836049081454,0.03151984551399145
4.000999999999671,0.06765582592643138,0.03423723918467924
4.200999999999738,0.07076307529073365,0.037150134537047436
4.400999999999804,0.0736961013939838,0.04189265792244143
4.600999999999871,0.07658962535034573,0.04582368686093182
4.800999999999938,0.07966808941427189,0.049344560737405556
5.000000000000004,0.08314420924516992,0.053003591677169185
5.200000000000071,0.08695538899135896,0.055800957342558064
5.400000000000138,0.09029537696521882,0.05963915116460291
5.600000000000205,0.09251329912936226,0.06368069213737988
5.800000000000272,0.09512379041495063,0.06756947179449585
6.000000000000338,0.09815930676161068,0.07096229335785284
6.200000000000405,0.10106404477540287,0.0743748871296551
6.400000000000472,0.10366400770011482,0.07839597579865971
6.600000000000539,0.10606635126472963,0.08344816260593317
6.800000000000606,0.10912442287428904,0.0875240580279602
7.000000000000672,0.1117339022594802,0.09212356237002843
7.200000000000739,0.11368537777094867,0.09707722025300877
7.400000000000806,0.11613946936391902,0.10145145553653387
7.600000000000873,0.1171847540267362,0.10661776658324451
7.8000000000009395,0.11924986491191736,0.11030647860406347
8.000000000001005,0.12049434885412866,0.11602694280707523
8.200000000000895,0.12289322893423546,0.1207993224559877
8.400000000000784,0.12437997748630722,0.12596837134030373
8.600000000000673,0.12406864049883527,0.13224816677176635
8.800000000000562,0.12469558086420941,0.1382175278260901
9.000000000000451,0.12604680761912776,0.1434306538426863
9.20000000000034,0.12640802222052788,0.14880236607134223
9.40000000000023,0.12724465755698805,0.15369349737434435
9.600000000000119,0.1277282823156476,0.15975394664459802
9.800000000000008,0.12770599211520967,0.16587438804251728
10.000999999999896,0.12884863944760158,0.17140800709025175
10.200999999999786,0.12876905087051396,0.1770923639718537
10.400999999999675,0.12682752550714171,0.1839216658376941
10.600999999999564,0.12561954583908702,0.1908069945779937
10.800999999999453,0.12331790167246796,0.19798989541649473
11.000999999999342,0.12281303097116986,0.2037869156743212
11.200999999999231,0.12191718361048073,0.20949535432304425
11.40099999999912,0.12046217961947558,0.21526722597584302
11.60099999999901,0.11888616335184816,0.22110336374150463
11.800999999998899,0.11723700283104546,0.2268103386468097
12.000999999998788,0.11609112819897507,0.23305376891057875
12.200999999998677,0.11439708008594437,0.23875122236898091
12.400999999998566,0.11240865106849307,0.24433297360287232
12.600999999998455,0.11035937787488323,0.24937514504302913
12.800999999998345,0.10863692169325148,0.2544342148130892
13.000999999998234,0.10522954162165986,0.2605012317908337
13.200999999998123,0.10319741206700588,0.2658486056766315
13.400999999998012,0.10146323051093294,0.27107966551641727
13.600999999997901,0.0994748456814555,0.27628084282275794
13.80099999999779,0.09682198777470796,0.2814984080607539
14.00099999999768,0.09381297104089566,0.2867630432281918
14.200999999997569,0.09070427967028999,0.2917263980737727
14.400999999997458,0.08631502466088002,0.29668369160502434
14.600999999997347,0.08386297248789555,0.30180184884078465
14.800999999997236,0.08001423706707451,0.3070630525643097
15.000999999997125,0.076086492128796,0.3123379056160898
15.200999999997014,0.07244737736738407,0.31743882179899385
15.400999999996904,0.06892227600361367,0.3223835055575806
15.600999999996793,0.06484207420145904,0.32626656854181557
15.800999999996682,0.05967456675759883,0.33056205872520006
16.000999999996573,0.0551669764125135,0.33458222755676587
16.200999999996817,0.051882026571737135,0.33871250847471707
16.40099999999706,0.04819902350813373,0.3423287992315301
16.600999999997306,0.04395757543977648,0.34630774763946026
16.80099999999755,0.03863297547795603,0.3500328692283225
17.000999999997795,0.033187547956429635,0.353389033871444
17.20099999999804,0.02759514790360432,0.3563492704532804
17.400999999998284,0.022762792961259697,0.3588655847519716
17.60099999999853,0.018620665717771837,0.36247344889989597
17.800999999998773,0.013393131913448453,0.3649872122745906
18.000999999999017,0.00925050379195119,0.3677139037029939
18.20099999999926,0.003068511721872966,0.3690052260694601
18.400999999999506,-0.0011801078278944003,0.3722132526954599
18.60099999999975,-0.005973805956769855,0.37478549743136325
18.799999999999994,-0.010800470616369181,0.37671174547807945
19.000000000000238,-0.01606391599475275,0.37865705334306154
19.200000000000482,-0.021188966609899683,0.38029817047427034
19.400000000000727,-0.02663599034778299,0.38164063429388867
19.60000000000097,-0.03268333004701644,0.38241516798800035
19.800000000001216,-0.03876169388804421,0.3836005004746646
20.00000000000146,-0.044764494408954754,0.38453192676494385
