Time (s),X (m),Y (m)
0.001,4.1020280575708355e-05,-0.0010155025257856578
0.20000000000000015,0.0034412925099170668,0.004678471272615287
0.4000000000000003,0.01326492264638779,0.0036973317849161285
0.6000000000000004,0.03185752642017629,-0.014596655643084181
0.8000000000000006,0.07386590073865672,-0.035500327221572106
1.0000000000000007,0.11489768398561243,-0.057246140915622495
1.2009999999999785,0.16083152056757993,-0.08746653523007018
1.4009999999999565,0.2087745054350754,-0.13041517896144514
1.6009999999999345,0.26323904635472056,-0.17868139391042276
1.8009999999999124,0.3329084348942744,-0.21884883613418632
2.0009999999998906,0.3976398485147634,-0.25261675430690533
2.2009999999998686,0.46677484843564027,-0.29185803238297964
2.4009999999998466,0.552139112782494,-0.3405642043502721
2.6009999999998246,0.6315152098835062,-0.3957977873868125
2.8009999999998025,0.684421407746241,-0.4571342292122018
3.0009999999997805,0.7104336956925786,-0.5239104348906962
3.2009999999997585,0.7469862324183869,-0.5922033763529839
3.4009999999997365,0.7950739878374977,-0.6548751714405362
3.6009999999997144,0.8398093244597916,-0.723474631812491
3.8009999999996924,0.8674030228187947,-0.7964312490537411
4.000999999999671,0.8870140368926402,-0.8710014158874088
4.200999999999738,0.882562678740412,-0.9306465155541687
4.400999999999804,0.8511184344261102,-0.9665570154389117
4.600999999999871,0.8038403324704778,-0.9930804752571796
4.800999999999938,0.7358007821330756,-1.0211343727246136
5.000000000000004,0.6628151364199191,-1.0436363790445635
5.200000000000071,0.586205416386008,-1.042796692316831
5.400000000000138,0.51857832557554,-1.0279628596599897
5.600000000000205,0.480455021543406,-1.0015522016609146
5.800000000000272,0.4097008803415827,-0.964680306625205
6.000000000000338,0.3297630956228502,-0.9377757287994729
6.200000000000405,0.25391768360350636,-0.9075878682821262
6.400000000000472,0.1934569052804735,-0.8552792239760363
6.600000000000539,0.14710518899984362,-0.785846213021227
6.800000000000606,0.11115583874875257,-0.7064632670135843
7.000000000000672,0.1038804199542715,-0.6429555006864547
7.200000000000739,0.12015056094916421,-0.6019153784774526
7.400000000000806,0.14345875405548,-0.5681458643750655
7.600000000000873,0.18544113392756356,-0.5457192346322457
7.8000000000009395,0.23025308605449918,-0.5394318996032728
8.000000000001005,0.2908749058175899,-0.555365382869311
8.200000000000895,0.34089494699880596,-0.5902301846307513
8.400000000000784,0.3769937117720758,-0.6489733173689151
8.600000000000673,0.3984140396113145,-0.716352808196923
8.800000000000562,0.43947271196852494,-0.7892060961656004
9.000000000000451,0.5120007689697684,-0.8517984214139049
9.20000000000034,0.5760011483805663,-0.9126575517584931
9.40000000000023,0.6571351554723863,-0.9710475194265882
9.600000000000119,0.7586902467212691,-0.9999828273918364
9.800000000000008,0.8538197746691945,-1.010569881365219
10.000999999999896,0.9357351279674188,-1.0226982764625354
10.200999999999786,1.0113131095494876,-1.0420332238875964
10.400999999999675,1.09177466469867,-1.0598244064712212
10.600999999999564,1.159357008278409,-1.087827641046658
10.800999999999453,1.2156404772431089,-1.132490123261959
11.000999999999342,1.2530888173555061,-1.1975050191836207
11.200999999999231,1.2811550785085046,-1.2722349211520867
11.40099999999912,1.324874156349982,-1.348204997405529
11.60099999999901,1.363181407662079,-1.4333618546670113
11.800999999998899,1.3939919086239676,-1.525178660211773
12.000999999998788,1.4283238825629894,-1.6226901025211469
12.200999999998677,1.4622076685254706,-1.7229654774320573
12.400999999998566,1.488484212598567,-1.8225375197209268
12.600999999998455,1.51318750817434,-1.9220541012778083
12.800999999998345,1.5430504596259254,-2.021905853303813
13.000999999998234,1.6033357649948747,-2.1213466452022898
13.200999999998123,1.671755198661768,-2.2257124297711326
13.400999999998012,1.7342781336984225,-2.3352405932745426
13.600999999997901,1.7978768010533337,-2.4420870377496313
13.80099999999779,1.8903192548513854,-2.547126837165715
14.00099999999768,1.9765274987602302,-2.6600993483430035
14.200999999997569,2.0457723668656596,-2.78576096917002
14.400999999997458,2.095921041127927,-2.921374797200024
14.600999999997347,2.1257240419369876,-3.0648825139241542
14.800999999997236,2.154170086554022,-3.208594599427588
15.000999999997125,2.1753468977978923,-3.34288547082047
15.200999999997014,2.1658749967845625,-3.45149002716557
15.400999999996904,2.120001704752233,-3.5392402067383255
15.600999999996793,2.0464057789515215,-3.6171020501626057
15.800999999996682,1.9528474534402909,-3.670710151469375
16.000999999996573,1.8667687005772335,-3.692805298703133
16.200999999996817,1.7949178524394744,-3.6741341580784437
16.40099999999706,1.7347540835276867,-3.6319507874683876
16.600999999997306,1.6990934290151767,-3.5762920104838125
16.80099999999755,1.6747084858493129,-3.5131795452444305
17.000999999997795,1.6561233571872778,-3.4308765215802954
17.20099999999804,1.6572570500272354,-3.3406877526843
17.400999999998284,1.6807900644369758,-3.273371778693795
17.60099999999853,1.7275718393465538,-3.218764164160319
17.800999999998773,1.8064101331314986,-3.1608040700411015
18.000999999999017,1.8910083866967973,-3.11504196551097
18.20099999999926,1.972890794113624,-3.085138730278915
18.400999999999506,2.0325092095087585,-3.066611623820919
18.60099999999975,2.0828230632723925,-3.075679653357062
18.799999999999994,2.1315982849029944,-3.120466978672024
19.000000000000238,2.19295667632952,-3.1904293537799298
19.200000000000482,2.2631401019046273,-3.271017195809425
19.400000000000727,2.3246466988102985,-3.3546159194547696
19.60000000000097,2.3796080992884305,-3.455350865065339
19.800000000001216,2.4115193391541334,-3.5709436861720585
20.00000000000146,2.42311988221853,-3.6747505826557303
