Time (s),X (m),Y (m)
0.001,0.0008829029745972832,0.0007899207378008392
0.20000000000000015,0.0016958059356655846,-2.3222426901046884e-05
0.4000000000000003,0.0037418883833000892,-0.0017789513695158196
0.6000000000000004,0.007615023453187683,5.970397346190776e-05
0.8000000000000006,0.016118080792403587,0.0016512222443385736
1.0000000000000007,0.03262334240671241,0.009199590670092088
1.2009999999999785,0.04450675263111626,0.009366283951633875
1.4009999999999565,0.05409045888111079,0.018087216391024133
1.6009999999999345,0.06366636586418771,0.02223056385607251
1.8009999999999124,0.07258659367990673,0.02225630389291551
2.0009999999998906,0.08574019515620881,0.02259993141704391
2.2009999999998686,0.09409851283806484,0.019931192044282318
2.4009999999998466,0.10379486898444955,0.0286963123899384
2.6009999999998246,0.11734918607478667,0.028421519062190755
2.8009999999998025,0.1297408165563635,0.03085095426974307
3.0009999999997805,0.13951555430569745,0.03948853896008989
3.2009999999997585,0.1527357228672195,0.04229047300891281
3.4009999999997365,0.16038043619246048,0.05074578696843333
3.6009999999997144,0.1670601999299724,0.05526598029031024
3.8009999999996924,0.17489314708908396,0.06108702111776047
4.000999999999671,0.18628610343831034,0.06718722686633925
4.200999999999738,0.19981923701056378,0.07779613382714869
4.400999999999804,0.2133325124192024,0.0812529266093602
4.600999999999871,0.22953665905092163,0.08834720682412862
4.800999999999938,0.2449233314477585,0.10462096888080669
5.000000000000004,0.2588659437523622,0.11299921348934193
5.200000000000071,0.2707800214942232,0.1238013491306851
5.400000000000138,0.28279725444314013,0.13174997902159233
5.600000000000205,0.30234248188137663,0.13485644141902126
5.800000000000272,0.31792964533495777,0.14587237081668744
6.000000000000338,0.32945335462109293,0.15418769198356755
6.200000000000405,0.341461399743764,0.16569412591863378
6.400000000000472,0.35623271874106865,0.18338355154651648
6.600000000000539,0.3670840013496018,0.1972286544418201
6.800000000000606,0.3756761540166831,0.20979995935609608
7.000000000000672,0.3838973538159441,0.21778374604397338
7.200000000000739,0.3921965118197843,0.22118877940348003
7.400000000000806,0.40156777906113267,0.2296676462368228
7.600000000000873,0.4129256803947581,0.24004063181206095
7.8000000000009395,0.4194028341230053,0.2536603723891017
8.000000000001005,0.425307840709829,0.27093902326441943
8.200000000000895,0.4367559313192574,0.2754478329824322
8.400000000000784,0.4482627553239246,0.2785282529694551
8.600000000000673,0.4586901074354874,0.2985298906619355
8.800000000000562,0.4730272613960083,0.31126716981498365
9.000000000000451,0.485732533305651,0.31988189097374875
9.20000000000034,0.49614826798644224,0.33349292415963283
9.40000000000023,0.5055056360155493,0.34445770417159677
9.600000000000119,0.5134862017823889,0.3582324988043841
9.800000000000008,0.5281670367680631,0.3711379891810329
10.000999999999896,0.5381738843539139,0.3795229983280053
10.200999999999786,0.5511612402307271,0.39727991660189893
10.400999999999675,0.5616510424078361,0.407060995696754
10.600999999999564,0.5740943019246594,0.41705609714384967
10.800999999999453,0.5855697889431741,0.4287250753046865
11.000999999999342,0.5909188036912415,0.4460271735879856
11.200999999999231,0.6017963898697272,0.46570136642545973
11.40099999999912,0.6134907399629954,0.48130631599708307
11.60099999999901,0.6224530139913781,0.49556568191609207
11.800999999998899,0.6352693955441463,0.5094752380038748
12.000999999998788,0.6473100969454706,0.5196216231103489
12.200999999998677,0.6572310442001897,0.5338931057955093
12.400999999998566,0.6673683729569686,0.5400064908390562
12.600999999998455,0.6753412696455957,0.5517283903530542
12.800999999998345,0.6857735745366658,0.561832761940992
13.000999999998234,0.6953343556376764,0.5751550079421216
13.200999999998123,0.7034331991527771,0.5993616210108627
13.400999999998012,0.7134717790623112,0.6193761610976104
13.600999999997901,0.7232822040837363,0.6387378708138959
13.80099999999779,0.730595239008771,0.654386337842535
14.00099999999768,0.7406106367301896,0.6735472620293352
14.200999999997569,0.7528272471697797,0.6816708664343948
14.400999999997458,0.7581444731585213,0.697411608759699
14.600999999997347,0.7666948397462502,0.7070502047654811
14.800999999997236,0.7753700494410508,0.7170626012005428
15.000999999997125,0.7824793334855483,0.7378399616040409
15.200999999997014,0.7896478141477306,0.7466529923906938
15.400999999996904,0.8000727258625743,0.7518515256005714
15.600999999996793,0.8085681127928092,0.7682947427195091
15.800999999996682,0.8131164510957163,0.7926741147780623
16.000999999996573,0.8169397800497185,0.8050018505025793
16.200999999996817,0.8208621950884791,0.8205903132855311
16.40099999999706,0.82244744734205,0.8323717903111051
16.600999999997306,0.8261420542370318,0.8450689081728465
16.80099999999755,0.8248654398126375,0.8639872113707391
17.000999999997795,0.8271487439989256,0.8744977602170405
17.20099999999804,0.828495201533194,0.8941235228237283
17.400999999998284,0.8317532735381666,0.9096305986038282
17.60099999999853,0.8341970352455971,0.9185064133637674
17.800999999998773,0.837197370878066,0.9307360637267864
18.000999999999017,0.8375940921479404,0.9415077390912099
18.20099999999926,0.8453323983729769,0.958251765452633
18.400999999999506,0.8533952762921663,0.9737087557359919
18.60099999999975,0.8519504256109091,0.9858786270846499
18.799999999999994,0.8533987364431679,1.0026693962839222
19.000000000000238,0.8599431328080726,1.016559709973116
19.200000000000482,0.8607940351384189,1.0302259147644344
19.400000000000727,0.8547180550883456,1.0507078305997035
19.60000000000097,0.8491260122693306,1.074007425000959
19.800000000001216,0.8466111909417262,1.089516267795958
20.00000000000146,0.8488233648142566,1.1062894597095965
