Time (s),X (m),Y (m)
0.001,0.0011130987088041246,-0.000515584144559974
0.20000000000000015,0.00019872660874067422,0.0008298793418220268
0.4000000000000003,0.00548334029012661,0.003336047301192785
0.6000000000000004,0.00628838820057071,0.008269659733882839
0.8000000000000006,0.015794720976110687,0.002924800260635393
1.0000000000000007,0.03129756974831538,-0.0014551929302758075
1.2009999999999785,0.049020743144856396,0.0027839531204527234
1.4009999999999565,0.05455119056163395,0.004862221178437229
1.6009999999999345,0.06648815320309749,0.0017017373807389654
1.8009999999999124,0.08167938653697095,0.0027518189319401458
2.0009999999998906,0.10218835852580045,-0.004061597305440483
2.2009999999998686,0.1271407229796544,-0.008998344500487927
2.4009999999998466,0.1529568432068582,-0.014845799987144657
2.6009999999998246,0.17720672879145427,-0.018691715910333737
2.8009999999998025,0.2009240294712559,-0.026721118516993964
3.0009999999997805,0.21992014174014687,-0.02299760432990191
3.2009999999997585,0.230078516531135,-0.02342443611638985
3.4009999999997365,0.2398728747812492,-0.028627420759362043
3.6009999999997144,0.257820695793648,-0.03773079809001288
3.8009999999996924,0.27630855101195223,-0.043952782517287674
4.000999999999671,0.3026365085839186,-0.05096507028948965
4.200999999999738,0.3271752704766293,-0.06474499367052967
4.400999999999804,0.35052997071400827,-0.07278541364726264
4.600999999999871,0.37406336896540615,-0.07951988721340159
4.800999999999938,0.397743749772984,-0.08433361322960434
5.000000000000004,0.42020708691007197,-0.10035459952738117
5.200000000000071,0.44587311906312665,-0.12331736206250564
5.400000000000138,0.4701571895533765,-0.13573740316441973
5.600000000000205,0.4906565773250026,-0.14450108970334216
5.800000000000272,0.5086037163900814,-0.1613894328685307
6.000000000000338,0.5235457674487586,-0.17716983807664952
6.200000000000405,0.5350695507883133,-0.1886005876728008
6.400000000000472,0.540220284468321,-0.2128559706670404
6.600000000000539,0.540640409127444,-0.22897884525533674
6.800000000000606,0.5432970719638547,-0.24369484065582936
7.000000000000672,0.5468460305478906,-0.2624399924688187
7.200000000000739,0.5446560038247575,-0.28235800002829925
7.400000000000806,0.5348250994049183,-0.31126273393631604
7.600000000000873,0.5265699066893151,-0.34526542825780526
7.8000000000009395,0.5204843013953765,-0.37920959297435386
8.000000000001005,0.5128695907607783,-0.41067892971199776
8.200000000000895,0.5033031370851745,-0.43935281429655265
8.400000000000784,0.493838798670378,-0.47445539748606386
8.600000000000673,0.4891618168975686,-0.5032768944402096
8.800000000000562,0.47805874285411326,-0.5300966835986796
9.000000000000451,0.4667854426509586,-0.5575378848358846
9.20000000000034,0.45322296407139306,-0.5829240456115283
9.40000000000023,0.43373897585942556,-0.6074013908254342
9.600000000000119,0.4233451738296865,-0.6320531113708885
9.800000000000008,0.41009982262421013,-0.6541778133005247
10.000999999999896,0.3982657952401491,-0.6721375033853756
10.200999999999786,0.3818628666692601,-0.6940098400263852
10.400999999999675,0.36268000252940125,-0.7140128157653854
10.600999999999564,0.34347464260181226,-0.732999942294234
10.800999999999453,0.31732801753066625,-0.7475485097251896
11.000999999999342,0.2938855911511019,-0.7545059137173703
11.200999999999231,0.26276949492762364,-0.7480918594018734
11.40099999999912,0.2366500078946406,-0.7444574405601592
11.60099999999901,0.21077114271651942,-0.7439174987412539
11.800999999998899,0.183036961573755,-0.7393235920064006
12.000999999998788,0.15667801774608148,-0.7323804517118732
12.200999999998677,0.1291491161226758,-0.7271180703687632
12.400999999998566,0.10036034081008621,-0.7188779672790219
12.600999999998455,0.0744096127652771,-0.7130032620571883
12.800999999998345,0.040847030787709925,-0.6986527131007316
13.000999999998234,0.003990293939296698,-0.6738439922033658
13.200999999998123,-0.024150163060639572,-0.6708617493294418
13.400999999998012,-0.04987400262496196,-0.6574585822957351
13.600999999997901,-0.06830204342992818,-0.6473545226267671
13.80099999999779,-0.09095311026611774,-0.6325022341782381
14.00099999999768,-0.11695776705380144,-0.6168498568647947
14.200999999997569,-0.13907902590007998,-0.6001713955912157
14.400999999997458,-0.15634933990373426,-0.583162105637888
14.600999999997347,-0.17532135979810642,-0.557566211889228
14.800999999997236,-0.1907003114013102,-0.531481231384556
15.000999999997125,-0.1965031485936368,-0.5042537032005208
15.200999999997014,-0.18891715181235372,-0.47644245281921305
15.400999999996904,-0.18013521954512607,-0.44381952289050236
15.600999999996793,-0.16426351468106692,-0.4110693469280626
15.800999999996682,-0.159265125492271,-0.39010174478847526
16.000999999996573,-0.15043995028311127,-0.3626468322396883
16.200999999996817,-0.13705605385929354,-0.33077814453931453
16.40099999999706,-0.12679898501402506,-0.30111308874853365
16.600999999997306,-0.1199294727968516,-0.2718896867947709
16.80099999999755,-0.10917087246473609,-0.24354011813333118
17.000999999997795,-0.09377941484797378,-0.21759704258854204
17.20099999999804,-0.081180815426724,-0.1918448871287055
17.400999999998284,-0.0679743826544617,-0.16124354673822944
17.60099999999853,-0.05586410269894093,-0.14234501923794146
17.800999999998773,-0.035572734417180805,-0.11642058428071025
18.000999999999017,-0.012843821214283934,-0.09925923645329912
18.20099999999926,0.008515724187817642,-0.08980844378920756
18.400999999999506,0.03557069249552294,-0.08462565907330952
18.60099999999975,0.05350523574414425,-0.07807013309722419
18.799999999999994,0.07399137944528632,-0.07411277265645655
19.000000000000238,0.09875036425603967,-0.07355808049560691
19.200000000000482,0.12717980764459086,-0.07719713725111722
19.400000000000727,0.16249590631228586,-0.09229256924204172
19.60000000000097,0.18842329531814275,-0.10316460166059624
19.800000000001216,0.22608102562756854,-0.11659088930483127
20.00000000000146,0.2628299258601306,-0.13021867147964614
