Time (s),X (m),Y (m)
0.001,-0.0007489004572251305,0.00035268032603768894
0.20000000000000015,0.007109723255453127,-0.0030866651133442625
0.4000000000000003,0.00982444599578168,-0.0007654064695461917
0.6000000000000004,0.010149781536953248,0.003863034893242554
0.8000000000000006,0.02889482439342884,0.0027446557860094207
1.0000000000000007,0.0383346605348428,-0.0007727155967382726
1.2009999999999785,0.0573269552225403,-0.012131985375994367
1.4009999999999565,0.07882016018185119,-0.019927648431773404
1.6009999999999345,0.10032044408386072,-0.024454037393851765
1.8009999999999124,0.11187827842663078,-0.02681385896525654
2.0009999999998906,0.13065767384769097,-0.02886815501658696
2.2009999999998686,0.14485500811628177,-0.026147324691338812
2.4009999999998466,0.1626705407401389,-0.03079167334623182
2.6009999999998246,0.17798503192172405,-0.034703517140136454
2.8009999999998025,0.20220022498710585,-0.044408466428523176
3.0009999999997805,0.2281556244004251,-0.05903048120667004
3.2009999999997585,0.2539123243001696,-0.07089444157470359
3.4009999999997365,0.27646709743497877,-0.07238315159953859
3.6009999999997144,0.31019527518436985,-0.09352423804418311
3.8009999999996924,0.34289499436201204,-0.11096519674830331
4.000999999999671,0.3716050836623229,-0.13006042670986592
4.200999999999738,0.4005291483967724,-0.14717666706868518
4.400999999999804,0.42259607035948205,-0.18026463083337496
4.600999999999871,0.43545975400123493,-0.20257886201151465
4.800999999999938,0.4361688708046054,-0.22315589287496215
5.000000000000004,0.4204971123035494,-0.24910576926206346
5.200000000000071,0.3914925049739282,-0.2803725118059039
5.400000000000138,0.35741548157465686,-0.30144569940004035
5.600000000000205,0.33388451841137523,-0.3111953192680683
5.800000000000272,0.3002343244508915,-0.3109346152699276
6.000000000000338,0.267232566805517,-0.30925258243552894
6.200000000000405,0.23922786717053107,-0.30417444583821257
6.400000000000472,0.20575194248544235,-0.28918358342288253
6.600000000000539,0.16969110404056817,-0.2774588692598673
6.800000000000606,0.1386148223262276,-0.2630172084606821
7.000000000000672,0.10465352873890751,-0.24681295513684973
7.200000000000739,0.06234499617006728,-0.22809741017317886
7.400000000000806,0.015913513277052947,-0.2105544981538096
7.600000000000873,-0.027341072812677437,-0.1946220894914195
7.8000000000009395,-0.06430509134681447,-0.18156027182900378
8.000000000001005,-0.09502109599760124,-0.16934133753343109
8.200000000000895,-0.13241518341989522,-0.15208354256345574
8.400000000000784,-0.1721613852310964,-0.1290694780028322
8.600000000000673,-0.20733776025050807,-0.10834388050526893
8.800000000000562,-0.24145676565900062,-0.09191782279565769
9.000000000000451,-0.27669620276550627,-0.07058682629238473
9.20000000000034,-0.3105255120069087,-0.052189377362397066
9.40000000000023,-0.3368348688508041,-0.03719424856742723
9.600000000000119,-0.3588021064622891,-0.017122820760892537
9.800000000000008,-0.38064527509332746,0.0010006046280495017
10.000999999999896,-0.39923252319399094,0.024331469109290047
10.200999999999786,-0.4074065514140114,0.06361902411405351
10.400999999999675,-0.4133459291013825,0.09484893005056062
10.600999999999564,-0.4167082636551137,0.1232752187305884
10.800999999999453,-0.4171503571798966,0.15403670072074374
11.000999999999342,-0.4001107836905681,0.19583678629466755
11.200999999999231,-0.3699335543701838,0.24668075264640296
11.40099999999912,-0.3493979591198216,0.29616357072066074
11.60099999999901,-0.34147472016522,0.3344686552816617
11.800999999998899,-0.32641489158903636,0.37208492184208364
12.000999999998788,-0.2916947942298742,0.41807299007787346
12.200999999998677,-0.25639858412449756,0.46342453045569887
12.400999999998566,-0.23488481503184305,0.4999409436565878
12.600999999998455,-0.21710524110004792,0.5350128001458411
12.800999999998345,-0.19419661767393542,0.5670582148543435
13.000999999998234,-0.1696904486121905,0.5978535426620435
13.200999999998123,-0.1359903704314572,0.6281068558846064
13.400999999998012,-0.08811886798282204,0.6551752125094443
13.600999999997901,-0.05672507491168522,0.6722385721500717
13.80099999999779,-0.016609619457989094,0.6755146066097094
14.00099999999768,0.024408930162418154,0.6698758559616226
14.200999999997569,0.06547788973133932,0.6617695032005463
14.400999999997458,0.10199574649661484,0.653959938413214
14.600999999997347,0.13785919394674848,0.6468762650889276
14.800999999997236,0.17743318765425695,0.6264944201404375
15.000999999997125,0.21358910226567543,0.6048669903714489
15.200999999997014,0.2515421260604018,0.5810800783085981
15.400999999996904,0.28404789306883915,0.5615561273111858
15.600999999996793,0.30978438652925755,0.550961388629647
15.800999999996682,0.3298670913509518,0.525509443479145
16.000999999996573,0.3514687320450613,0.49369174480274647
16.200999999996817,0.35869389810501484,0.4549705332613332
16.40099999999706,0.35824334618001286,0.4081561712149203
16.600999999997306,0.3529638053962894,0.37679361518344173
16.80099999999755,0.3536625972482986,0.3472373300716829
17.000999999997795,0.3502050330978777,0.3216722198009204
17.20099999999804,0.34423570275120474,0.2918412763788368
17.400999999998284,0.33590898903628735,0.2514144018943404
17.60099999999853,0.3288224831998695,0.2110531536242117
17.800999999998773,0.3149755747495256,0.16723419046129168
18.000999999999017,0.30615801703936346,0.13212500565682314
18.20099999999926,0.29559216815781897,0.10022964929229618
18.400999999999506,0.2841381588848665,0.060524027467799724
18.60099999999975,0.2707060980485248,0.02031284703886605
18.799999999999994,0.24579915947337486,-0.019244630996637084
19.000000000000238,0.22674429336942165,-0.053618032487923316
19.200000000000482,0.21063680357293135,-0.08428898252281287
19.400000000000727,0.18760054900818843,-0.09981452884078315
19.60000000000097,0.1516385468415887,-0.10235604261138787
19.800000000001216,0.11448449626939719,-0.09747038511284575
20.00000000000146,0.08019252345524615,-0.08771725929217543
