Time (s),X (m),Y (m)
0.001,0.0003099530129853942,0.0010272443824616275
0.20000000000000015,0.0008810466309844806,-0.0038725388208429457
0.4000000000000003,0.00471568925361239,-0.0015524648565108513
0.6000000000000004,0.01555956479112496,0.009429530901417259
0.8000000000000006,0.028534268124473416,0.018776458066085352
1.0000000000000007,0.04841334435959791,0.015208242821746975
1.2009999999999785,0.06379499208875637,-0.0008127526187506061
1.4009999999999565,0.08321379664148969,-0.003710219008376851
1.6009999999999345,0.10980482198274688,0.005176003304481353
1.8009999999999124,0.13472613152805646,0.010406202320815983
2.0009999999998906,0.14900639070863378,-0.005959400696858452
2.2009999999998686,0.16801323858661793,-0.032873734589920156
2.4009999999998466,0.18459370486813942,-0.04698464799523906
2.6009999999998246,0.2032963322653295,-0.04962129048068848
2.8009999999998025,0.22415969270726113,-0.04788921343110902
3.0009999999997805,0.2431504689978396,-0.05187494243764861
3.2009999999997585,0.26707181013783826,-0.049952897218018225
3.4009999999997365,0.280792282899894,-0.05624289594127729
3.6009999999997144,0.2987134229501029,-0.06405494646816173
3.8009999999996924,0.32107101958664525,-0.08352957896035695
4.000999999999671,0.35499454969958905,-0.0940223110645548
4.200999999999738,0.3868392900862623,-0.09679580998110635
4.400999999999804,0.4146337252257028,-0.10074304688538174
4.600999999999871,0.44593626350806226,-0.10425331627064614
4.800999999999938,0.47271456547340135,-0.12147923018255209
5.000000000000004,0.4879387276766708,-0.14310171776832284
5.200000000000071,0.5068535961200052,-0.16510113760925546
5.400000000000138,0.5295481668046417,-0.1840609104376493
5.600000000000205,0.5515301455530585,-0.19860782404159658
5.800000000000272,0.5776889089758375,-0.20790531651594746
6.000000000000338,0.6023881425696752,-0.213428491791569
6.200000000000405,0.6245512732795558,-0.22461988032008226
6.400000000000472,0.6564506540268819,-0.23198539097548088
6.600000000000539,0.6839810372394141,-0.2506669240237879
6.800000000000606,0.718065643463465,-0.2530740883338879
7.000000000000672,0.7534230092816866,-0.2557575755809665
7.200000000000739,0.7755261711067095,-0.2770261678376713
7.400000000000806,0.7907903640689482,-0.29376790835420347
7.600000000000873,0.8054897704044601,-0.31171673432559
7.8000000000009395,0.8413615417329241,-0.3164844351534983
8.000000000001005,0.8648102573605901,-0.332220487740482
8.200000000000895,0.8869308358290404,-0.3537132259933499
8.400000000000784,0.912894740099258,-0.36989220888501406
8.600000000000673,0.9371716087821821,-0.3851752862430339
8.800000000000562,0.9578542870204102,-0.39229205192220057
9.000000000000451,0.972548635961317,-0.4104332300927976
9.20000000000034,1.0031339313152607,-0.4228954290675599
9.40000000000023,1.0394220071675053,-0.42225854722196027
9.600000000000119,1.0654795934152708,-0.4252724358694188
9.800000000000008,1.092669957706798,-0.42870184939746453
10.000999999999896,1.1211010004495818,-0.43075061161811873
10.200999999999786,1.142653524009864,-0.43963192857946837
10.400999999999675,1.1711057698019356,-0.4557838360003388
10.600999999999564,1.1989761000824801,-0.474463010538217
10.800999999999453,1.228851120960755,-0.4762396597829157
11.000999999999342,1.260038519209396,-0.48039948196284876
11.200999999999231,1.2892781871929506,-0.4819180558484636
11.40099999999912,1.3198425842240586,-0.48148620409121384
11.60099999999901,1.3506913875200597,-0.47812288198523445
11.800999999998899,1.3767211416507754,-0.48326473852100116
12.000999999998788,1.4051957027203434,-0.4856930955154724
12.200999999998677,1.4315266683086476,-0.49232000926662584
12.400999999998566,1.4657583488594295,-0.4860298816279579
12.600999999998455,1.5015501962707534,-0.47797385701421685
12.800999999998345,1.5367673175651595,-0.46904233452930644
13.000999999998234,1.5700181569751,-0.47998645205838303
13.200999999998123,1.5987437116389691,-0.486586931760412
13.400999999998012,1.6279700351829027,-0.49103059963511037
13.600999999997901,1.6607339083303578,-0.49191970761468623
13.80099999999779,1.6899767687221519,-0.50476906055835
14.00099999999768,1.7189676661462225,-0.4972067757131094
14.200999999997569,1.7504695508390855,-0.5013456026251076
14.400999999997458,1.7763010452027292,-0.5038943155042966
14.600999999997347,1.8066885724871,-0.5114873481991303
14.800999999997236,1.8325516687261645,-0.5154500334226353
15.000999999997125,1.860365677499328,-0.5214753750694994
15.200999999997014,1.8944626139474994,-0.5263253104888986
15.400999999996904,1.9321624757792486,-0.5330734887688199
15.600999999996793,1.9599026575894802,-0.5460254308268416
15.800999999996682,1.985400291803938,-0.5436030550450236
16.000999999996573,2.005020079843691,-0.5588509158931485
16.200999999996817,2.0292349900318483,-0.5749360545724341
16.40099999999706,2.046280617430281,-0.5917162877578843
16.600999999997306,2.065172826975937,-0.6105370899516482
16.80099999999755,2.0851069801407696,-0.6253976796297218
17.000999999997795,2.1085731857172303,-0.6452132905134881
17.20099999999804,2.1338961911977887,-0.6560241823829429
17.400999999998284,2.158718975519807,-0.6666148185468865
17.60099999999853,2.185180088900642,-0.6812469649591127
17.800999999998773,2.2198050898388093,-0.691708860087525
18.000999999999017,2.249759470792656,-0.7002011313842244
18.20099999999926,2.2717391603823787,-0.7101964964427161
18.400999999999506,2.301007841428912,-0.705957846758794
18.60099999999975,2.3250791585852317,-0.7293579853223587
18.799999999999994,2.350646789827195,-0.7394522141880103
19.000000000000238,2.38206699162583,-0.7361898618679716
19.200000000000482,2.4142245284934294,-0.7347812431511299
19.400000000000727,2.4410878970764243,-0.7306229800017571
19.60000000000097,2.4751465258782663,-0.7258257022367107
19.800000000001216,2.5099552080141057,-0.7095352915357099
20.00000000000146,2.541178403552283,-0.7026795661579314
