Time (s),X (m),Y (m)
0.001,0.0011130987088041246,0.0005155841445599734
0.20000000000000015,-0.003953274191834705,-0.0031328727945494914
0.4000000000000003,0.000453398932324336,-0.008539356714782724
0.6000000000000004,0.010266352939061377,-0.013660043257573213
0.8000000000000006,0.029981713583945954,-0.013213055456301104
1.0000000000000007,0.05183558840801103,-0.008945687850703076
1.2009999999999785,0.06384115679182559,-0.00556590885183338
1.4009999999999565,0.07089143643342066,-0.007924907271055631
1.6009999999999345,0.0715237511907554,-0.014262392426172792
1.8009999999999124,0.08300403872784108,-0.020736408016453697
2.0009999999998906,0.1085570373391579,-0.030915787491644035
2.2009999999998686,0.1415063423225269,-0.042727846716113564
2.4009999999998466,0.18775066598105247,-0.0638180624180412
2.6009999999998246,0.22261700918811325,-0.08968540130610851
2.8009999999998025,0.2540615719372362,-0.11679446026750699
3.0009999999997805,0.28974473361831093,-0.13538527133797942
3.2009999999997585,0.32844481600911485,-0.15936110403705642
3.4009999999997365,0.3595112308391278,-0.18518471113866106
3.6009999999997144,0.40196746998604965,-0.2151434281525348
3.8009999999996924,0.43661238294249466,-0.24835605035918043
4.000999999999671,0.47217711394701267,-0.28556623859344854
4.200999999999738,0.5162882973780404,-0.32210229488127085
4.400999999999804,0.5532404552666682,-0.3598991627857126
4.600999999999871,0.6003794304992406,-0.3983918374162831
4.800999999999938,0.6537982589065672,-0.43720790951210714
5.000000000000004,0.7065219659223055,-0.46776399891508236
5.200000000000071,0.7482633094684771,-0.4995356959000563
5.400000000000138,0.781413245065633,-0.5354151884314564
5.600000000000205,0.8178062275929223,-0.5773395634924594
5.800000000000272,0.8552843530010746,-0.6207230273790685
6.000000000000338,0.9118120643097207,-0.6759942042473043
6.200000000000405,0.972957111950011,-0.7330235170206743
6.400000000000472,1.032173415368296,-0.7895105750625973
6.600000000000539,1.0866480802458682,-0.8437985248405139
6.800000000000606,1.1461223951898896,-0.9000669560113405
7.000000000000672,1.1994252706979105,-0.9532247265367181
7.200000000000739,1.2595063795920696,-0.9902479195426045
7.400000000000806,1.3136332811619873,-1.0265072100956756
7.600000000000873,1.3578555104489067,-1.0667869864309836
7.8000000000009395,1.3978068432404291,-1.1092248785731675
8.000000000001005,1.44432545163372,-1.1593894121453876
8.200000000000895,1.497654919535923,-1.2140455586527559
8.400000000000784,1.5495937050054513,-1.2675499802555859
8.600000000000673,1.6013658923298177,-1.3205825682505015
8.800000000000562,1.6657419129604856,-1.3787179068587732
9.000000000000451,1.7183055297416385,-1.4340380538748037
9.20000000000034,1.770922885325503,-1.4874269985308604
9.40000000000023,1.826788012831716,-1.5437478322417513
9.600000000000119,1.8828394850406287,-1.6010102697189859
9.800000000000008,1.9405609280672256,-1.6544759646498957
10.000999999999896,2.0095849149356515,-1.7149088344653174
10.200999999999786,2.0845137721359484,-1.7815713134201476
10.400999999999675,2.154633057010914,-1.8478973630482178
10.600999999999564,2.210422395659113,-1.9148842455864121
10.800999999999453,2.2668235904197624,-1.9795435683893472
11.000999999999342,2.3299477398028596,-2.046926712250353
11.200999999999231,2.397655808694102,-2.1188263533748875
11.40099999999912,2.460004836294528,-2.190156428139967
11.60099999999901,2.5088982791463796,-2.2464923663419016
11.800999999998899,2.562315065931902,-2.305017831512753
12.000999999998788,2.6122680596389123,-2.3689895148600044
12.200999999998677,2.6651077690729004,-2.4372329874553063
12.400999999998566,2.7213856618791796,-2.511178511163992
12.600999999998455,2.7857782781368527,-2.589254618595921
12.800999999998345,2.8514734395359738,-2.664707663241407
13.000999999998234,2.9067440004224263,-2.734041707237547
13.200999999998123,2.969404489280539,-2.8115065181637884
13.400999999998012,3.0321511930564626,-2.890916443702393
13.600999999997901,3.0929058487126224,-2.9667290137086986
13.80099999999779,3.1575176559010973,-3.0414978174227207
14.00099999999768,3.217524815388203,-3.1140934317894238
14.200999999997569,3.2792289821790206,-3.186459975079376
14.400999999997458,3.344582574013687,-3.258366210243911
14.600999999997347,3.4057767875490605,-3.331722039611034
14.800999999997236,3.4714432284359047,-3.4125781434509004
15.000999999997125,3.5419281655739745,-3.49875727127697
15.200999999997014,3.613615262816455,-3.593131001944603
15.400999999996904,3.6829678504811487,-3.6886996944985704
15.600999999996793,3.7401477024079735,-3.7695680919413155
15.800999999996682,3.7681560740826625,-3.829950240075106
16.000999999996573,3.7667516797586726,-3.8792301939331204
16.200999999996817,3.7518128104082376,-3.9189581047598527
16.40099999999706,3.7283567732928944,-3.94132142817196
16.600999999997306,3.7085727747674797,-3.9641574833756685
16.80099999999755,3.6813423254419813,-4.002919703156181
17.000999999997795,3.649395070542762,-4.05379294139562
17.20099999999804,3.614982673581316,-4.107255433074562
17.400999999998284,3.58871419596688,-4.159180960276516
17.60099999999853,3.560632213268581,-4.212195672682297
17.800999999998773,3.5182975569010293,-4.271006545702689
18.000999999999017,3.4694603007434948,-4.328304223837811
18.20099999999926,3.415642344865768,-4.386323013220193
18.400999999999506,3.35669615713814,-4.461812518955062
18.60099999999975,3.291188733926389,-4.53793460540084
18.799999999999994,3.2261236933824393,-4.614337125760642
19.000000000000238,3.17312877340942,-4.674836744782897
19.200000000000482,3.118198263878384,-4.731427118153889
19.400000000000727,3.06277201472106,-4.789812093919776
19.60000000000097,3.0091685486185327,-4.844468848611991
19.800000000001216,2.955655146730919,-4.905391787183057
20.00000000000146,2.9096907399994296,-4.970000102305245
