Time (s),X (m),Y (m)
0.001,0.0012355833006349717,-0.00017906049427360483
0.20000000000000015,-0.0012718158467034165,0.0004219846008873409
0.4000000000000003,0.006612631257432861,-0.00061235734685935
0.6000000000000004,0.015175688570794075,-0.0010401791039900121
0.8000000000000006,0.02757915927931371,-0.006419827704388361
1.0000000000000007,0.029554808260389035,-0.009560901161846682
1.2009999999999785,0.024562592081824215,-0.009773927150499679
1.4009999999999565,0.027882892987591883,-0.007264118152442869
1.6009999999999345,0.0391723195512976,-0.011693481860101624
1.8009999999999124,0.04367115789466968,-0.011467130889382145
2.0009999999998906,0.055444765838839866,-0.00999345589037725
2.2009999999998686,0.07163372351709954,-0.01249359669916822
2.4009999999998466,0.09265168143927546,-0.01746745529014285
2.6009999999998246,0.10777344062323112,-0.023251074013499917
2.8009999999998025,0.11776550187726016,-0.029923479406594396
3.0009999999997805,0.12980390121301894,-0.03776936418208388
3.2009999999997585,0.15326131822039546,-0.049026582913233335
3.4009999999997365,0.16979973318125577,-0.05278389784696238
3.6009999999997144,0.18787908717166713,-0.05795953168719673
3.8009999999996924,0.21116679547205316,-0.06599314634515563
4.000999999999671,0.2350399894441982,-0.08027586599294564
4.200999999999738,0.2568795722461273,-0.09859050158738905
4.400999999999804,0.27642249203094726,-0.11195933850513512
4.600999999999871,0.28839364459433836,-0.11909389604557305
4.800999999999938,0.30504779505044666,-0.12759147775000845
5.000000000000004,0.3316822618025493,-0.13931382939127915
5.200000000000071,0.36019030011873826,-0.159047041281699
5.400000000000138,0.38370062879045463,-0.172984699784707
5.600000000000205,0.4086786299989522,-0.1945003079969032
5.800000000000272,0.43095634537063476,-0.21450274506210332
6.000000000000338,0.4488072222842881,-0.2200617032004359
6.200000000000405,0.4696544505638061,-0.23721366127838528
6.400000000000472,0.4864702131910967,-0.2416944038794955
6.600000000000539,0.5098720593353584,-0.2563747820159791
6.800000000000606,0.5324968612897488,-0.26542352752030846
7.000000000000672,0.5520128247184976,-0.28392669583194136
7.200000000000739,0.5743333619487102,-0.2986546611326713
7.400000000000806,0.5952103438165438,-0.31395515897278564
7.600000000000873,0.6212143704698018,-0.3276253048316121
7.8000000000009395,0.643769295580541,-0.35165555239690705
8.000000000001005,0.6660049644644301,-0.377391594539258
8.200000000000895,0.6840571229351132,-0.3972556005863838
8.400000000000784,0.6995255920695816,-0.421978519648126
8.600000000000673,0.7094151984444291,-0.4429368367566507
8.800000000000562,0.7151899276340209,-0.4567269002120087
9.000000000000451,0.721458553766451,-0.4764982105448073
9.20000000000034,0.7222015947000258,-0.4981468720935192
9.40000000000023,0.7155140454529113,-0.5344172651958992
9.600000000000119,0.710467156263773,-0.5682736357293635
9.800000000000008,0.7057338003888123,-0.5975881134646316
10.000999999999896,0.6963014622172927,-0.6249195559448607
10.200999999999786,0.6867542806226099,-0.6509804278107649
10.400999999999675,0.6759284961455388,-0.6805250902944907
10.600999999999564,0.6600695229867882,-0.7128680086671086
10.800999999999453,0.648807177875577,-0.7481319469456387
11.000999999999342,0.6350977060100119,-0.7820407114674311
11.200999999999231,0.621082738872865,-0.8091478535699995
11.40099999999912,0.6066970821190508,-0.8424570661599521
11.60099999999901,0.5917337874193276,-0.8673819260894647
11.800999999998899,0.5757951568453799,-0.8951571457102577
12.000999999998788,0.5571149447107165,-0.9191004564950697
12.200999999998677,0.5351722387052432,-0.9392720732019398
12.400999999998566,0.5105244083565458,-0.9592088035019655
12.600999999998455,0.4810643593722365,-0.9777046039128803
12.800999999998345,0.4517458957800085,-0.9896016365552086
13.000999999998234,0.4376924291476834,-0.9922174034635239
13.200999999998123,0.408819959670457,-0.9932996525097602
13.400999999998012,0.3989174694619124,-0.9969623704020487
13.600999999997901,0.3837237723277034,-1.0051225707337912
13.80099999999779,0.34539667326913187,-1.004061323459925
14.00099999999768,0.3052678766306694,-1.0006921887802083
14.200999999997569,0.2665879747844448,-0.9958036380183141
14.400999999997458,0.23771760845220377,-0.9889911158289943
14.600999999997347,0.21494284896872595,-0.9805440460035866
14.800999999997236,0.19293866358048348,-0.9765006533749468
15.000999999997125,0.16123713622764102,-0.9696997215511562
15.200999999997014,0.1323365196405012,-0.9629810770959244
15.400999999996904,0.10435695730668426,-0.9549534045724433
15.600999999996793,0.07227231598620117,-0.9464974406719089
15.800999999996682,0.05504697065079914,-0.9414027839928233
16.000999999996573,0.03606457687425345,-0.9263034421486365
16.200999999996817,0.006399226814267308,-0.9129552488141972
16.40099999999706,-0.025780234603403614,-0.9005893366374838
16.600999999997306,-0.05726295420095873,-0.8896311507129081
16.80099999999755,-0.08404465185165955,-0.8787074269505468
17.000999999997795,-0.11185008793564113,-0.8596849200004029
17.20099999999804,-0.1433076632160947,-0.8321156498440496
17.400999999998284,-0.1765876196996401,-0.807015169059815
17.60099999999853,-0.20450305287153694,-0.7907945535342442
17.800999999998773,-0.2264977772872312,-0.7816157113984329
18.000999999999017,-0.24776731835270016,-0.7577676168059282
18.20099999999926,-0.26363580708816853,-0.7301229362455446
18.400999999999506,-0.27221151575714925,-0.7027153742573123
18.60099999999975,-0.27484796938901296,-0.6830467683558697
18.799999999999994,-0.27509271241056465,-0.657541477209146
19.000000000000238,-0.27085319665336327,-0.6208581340548935
19.200000000000482,-0.26130171000676716,-0.5890242554130841
19.400000000000727,-0.2488956810277206,-0.558662543292439
19.60000000000097,-0.23778213042496027,-0.5364099244655262
19.800000000001216,-0.2273431882655656,-0.5170417220381752
20.00000000000146,-0.21681187601004664,-0.49496556040614953
