Time (s),X (m),Y (m)
0.001,0.0012473251573109415,-8.987223813608099e-05
0.20000000000000015,0.005675710477719381,-0.00016803867024294428
0.4000000000000003,0.010137088157715673,-0.00040907438599984547
0.6000000000000004,0.014848010197692474,-0.0010062269871437858
0.8000000000000006,0.02326250551681215,0.0012092257369378566
1.0000000000000007,0.027551707190907878,0.0017874615044465875
1.2009999999999785,0.028419385483464975,0.0011083523073961907
1.4009999999999565,0.03159602841617703,0.0005429094332557347
1.6009999999999345,0.036065032799174834,0.00020340738808728723
1.8009999999999124,0.03895692268206416,-0.0006930129389527319
2.0009999999998906,0.044876649083452125,-0.0013506423330010681
2.2009999999998686,0.04748888953899236,-0.0018498306488617603
2.4009999999998466,0.0516073461043702,-0.0021097856241626893
2.6009999999998246,0.054987442215342165,-0.002962049561485981
2.8009999999998025,0.05994722431432561,-0.0027994003842649953
3.0009999999997805,0.06461746878719916,-0.003502771686052038
3.2009999999997585,0.06794987250929507,-0.004744145540587423
3.4009999999997365,0.0729292849172001,-0.005514560209927022
3.6009999999997144,0.07743472327042207,-0.0036112357386531286
3.8009999999996924,0.07961611472438894,-0.0056089345692762
4.000999999999671,0.08387599684987254,-0.007019451006613303
4.200999999999738,0.0864085036928374,-0.008053662292349424
4.400999999999804,0.09059799014926179,-0.009090432609109926
4.600999999999871,0.09573114663119967,-0.009521405076289903
4.800999999999938,0.09947427739401156,-0.01047893112403645
5.000000000000004,0.1044798581232103,-0.010569500278125752
5.200000000000071,0.11051711963365275,-0.010763872947056762
5.400000000000138,0.11664054199333848,-0.010839378153889068
5.600000000000205,0.12208651107717562,-0.011297787553033572
5.800000000000272,0.12745001653600316,-0.013000489039417532
6.000000000000338,0.12993338795266057,-0.015366835532134408
6.200000000000405,0.13391235542982827,-0.01525383922410789
6.400000000000472,0.14138796975375298,-0.01766509133277734
6.600000000000539,0.14491849618907462,-0.01824991872895333
6.800000000000606,0.15147319302695403,-0.02012989672000833
7.000000000000672,0.1571966006818293,-0.020353865604827354
7.200000000000739,0.16218678954348972,-0.02153740566356506
7.400000000000806,0.16789445452990656,-0.024405119030019965
7.600000000000873,0.17433052625495873,-0.02613751302015175
7.8000000000009395,0.1774771298175446,-0.025721729119247128
8.000000000001005,0.18338376337868972,-0.02788562160688142
8.200000000000895,0.1888971168555948,-0.03137099796876859
8.400000000000784,0.19523533891823877,-0.033177324224057815
8.600000000000673,0.19946036138493148,-0.0347076698305709
8.800000000000562,0.20536735868521575,-0.03583591220603227
9.000000000000451,0.21172549779038907,-0.03822042755799576
9.20000000000034,0.2173638484879707,-0.03922975945439222
9.40000000000023,0.22139202148563814,-0.040483092320896655
9.600000000000119,0.2290256460577018,-0.04236409937872476
9.800000000000008,0.233316751762256,-0.04694357748570451
10.000999999999896,0.23843208413258024,-0.04857440877910653
10.200999999999786,0.24330317361653597,-0.050706487713395455
10.400999999999675,0.24605773966897934,-0.05202018412217662
10.600999999999564,0.25432814335851084,-0.05436870976739543
10.800999999999453,0.25856564641477636,-0.05760222834701613
11.000999999999342,0.2628588295537233,-0.05813566294971633
11.200999999999231,0.26899625782935405,-0.05928038476715354
11.40099999999912,0.2780753272081655,-0.062284389193018964
11.60099999999901,0.2822014460892665,-0.06418809858584992
11.800999999998899,0.2879490257080166,-0.06583698371901363
12.000999999998788,0.2938946734460495,-0.06913465646438083
12.200999999998677,0.2993156599263499,-0.07054455842763936
12.400999999998566,0.3066509681810659,-0.07397909070991263
12.600999999998455,0.3116587300812833,-0.0758426008231222
12.800999999998345,0.31635609462041925,-0.07785341160131705
13.000999999998234,0.32447373336443364,-0.08097917687509562
13.200999999998123,0.33011183337671524,-0.0837602714272576
13.400999999998012,0.33550127731314716,-0.08604889728331583
13.600999999997901,0.3434152296156964,-0.08805863391600414
13.80099999999779,0.3486017505471071,-0.09059591142081577
14.00099999999768,0.3543919563230452,-0.09330623801718554
14.200999999997569,0.35994169129678694,-0.09694405614509663
14.400999999997458,0.3622038777699404,-0.09927826900544336
14.600999999997347,0.3697700997505684,-0.10148015123309663
14.800999999997236,0.3791930339318742,-0.10468080252665493
15.000999999997125,0.3856412963900465,-0.10839031364439718
15.200999999997014,0.3931406725894833,-0.1102786847625652
15.400999999996904,0.3991038757439953,-0.11166029733775432
15.600999999996793,0.4034452745605585,-0.11495340910103521
15.800999999996682,0.4084990944702642,-0.11775780162033117
16.000999999996573,0.41581470491969064,-0.12005314218377286
16.200999999996817,0.42250974645392525,-0.12309601485624658
16.40099999999706,0.4285989333060532,-0.12654322938485724
16.600999999997306,0.4358177796456537,-0.12949421022264151
16.80099999999755,0.439815404241515,-0.1323964058836169
17.000999999997795,0.4484435853552373,-0.13520877766297806
17.20099999999804,0.4561094250529715,-0.13927738855800872
17.400999999998284,0.4625759182761384,-0.14233242375006253
17.60099999999853,0.4670636845294718,-0.1454718078438781
17.800999999998773,0.4730737874107989,-0.1477675139614789
18.000999999999017,0.47768171340021237,-0.15028304661868472
18.20099999999926,0.4832677196921383,-0.1534901735081581
18.400999999999506,0.48867210068150796,-0.1565845944649696
18.60099999999975,0.49372973718597507,-0.15866925926621658
18.799999999999994,0.5008782218958178,-0.16170726037895103
19.000000000000238,0.508467155985736,-0.16372973862102874
19.200000000000482,0.5187949133525049,-0.16672768495972065
19.400000000000727,0.5261940643492514,-0.16911282706687622
19.60000000000097,0.5333204616585827,-0.17202045375913208
19.800000000001216,0.5382649618499247,-0.17429306039408599
20.00000000000146,0.544281102228577,-0.17722758915074566
