Time (s),X (m),Y (m)
0.001,-0.000795421750936344,0.00017906049427360518
0.20000000000000015,0.004925813943662697,-0.0005518645908455431
0.4000000000000003,0.004576715102416165,-0.0005256191631604222
0.6000000000000004,0.010812256011326531,-0.0006069342508792535
0.8000000000000006,0.022211182481417267,0.0057523859901942
1.0000000000000007,0.027069515636043387,0.012139264635796102
1.2009999999999785,0.03473074954490668,0.008076103600256988
1.4009999999999565,0.050252906127993956,0.007981304872315492
1.6009999999999345,0.0489435421603999,0.00788925340384695
1.8009999999999124,0.04893365112595695,0.001977771806803191
2.0009999999998906,0.06299254198984394,-0.00010082975376768638
2.2009999999998686,0.08604918574292776,-0.003979466669782823
2.4009999999998466,0.10439332804721056,-0.01378279001700086
2.6009999999998246,0.12543273390306964,-0.014339361745169196
2.8009999999998025,0.13703970753425923,-0.01799610898347192
3.0009999999997805,0.15501695160544282,-0.02612166708161358
3.2009999999997585,0.17496594121688672,-0.032994949921639496
3.4009999999997365,0.19467672497703287,-0.03741609078299689
3.6009999999997144,0.21621634919367436,-0.05206825529772773
3.8009999999996924,0.2436621124425796,-0.06697822193880457
4.000999999999671,0.27119630351485896,-0.07859565118890456
4.200999999999738,0.29965504821865985,-0.0925397746309621
4.400999999999804,0.3346881267872847,-0.11019245682001234
4.600999999999871,0.3713326102788752,-0.12914884860377981
4.800999999999938,0.4022009151393326,-0.14371067971538273
5.000000000000004,0.4171556931501721,-0.15256005662237482
5.200000000000071,0.4367521844005379,-0.16509281131061646
5.400000000000138,0.45723375930354554,-0.171951037412168
5.600000000000205,0.4842166329872751,-0.18510046295965343
5.800000000000272,0.5140050817597898,-0.20072797234998277
6.000000000000338,0.5415673849253322,-0.2160152450123097
6.200000000000405,0.5729302489012507,-0.2365146462643477
6.400000000000472,0.6042036739765347,-0.26213229396559423
6.600000000000539,0.6290517499403679,-0.28551383652481854
6.800000000000606,0.6585406639692071,-0.3124646515822675
7.000000000000672,0.6864235798825145,-0.3440701450903159
7.200000000000739,0.7101533986989383,-0.37178197256111956
7.400000000000806,0.7323651696734805,-0.4026912200480213
7.600000000000873,0.7546865407417943,-0.43102933348880107
7.8000000000009395,0.7700078696105106,-0.4629874823825994
8.000000000001005,0.7791131299752185,-0.48867222113336006
8.200000000000895,0.7815869613683339,-0.5076967805190117
8.400000000000784,0.7766087165095191,-0.5362108660203109
8.600000000000673,0.7786640670868107,-0.5507955696666769
8.800000000000562,0.7771676585951363,-0.584857949958638
9.000000000000451,0.7749132770335083,-0.6179238148534053
9.20000000000034,0.7740667966547553,-0.6450643096829638
9.40000000000023,0.7652603856583121,-0.6701094586103176
9.600000000000119,0.7560659158321088,-0.6970092482290644
9.800000000000008,0.735220545767795,-0.7269594232426784
10.000999999999896,0.7091608741421226,-0.7638403532629736
10.200999999999786,0.6917053190320765,-0.7870512209498606
10.400999999999675,0.671066197765235,-0.815195488443096
10.600999999999564,0.6428496663297607,-0.8407917887359481
10.800999999999453,0.6161972382837354,-0.8630102724862821
11.000999999999342,0.5999180099271019,-0.8866240378765444
11.200999999999231,0.5772397048878607,-0.9052219892597644
11.40099999999912,0.5564978480501847,-0.9221447960096764
11.60099999999901,0.5379295564333374,-0.9321940534269528
11.800999999998899,0.5181806407125097,-0.9412165171267662
12.000999999998788,0.5028952492509282,-0.9487300262266445
12.200999999998677,0.4829735032331424,-0.9526885168945046
12.400999999998566,0.4474155409449708,-0.9604162154302706
12.600999999998455,0.4160487188075247,-0.9665746224303597
12.800999999998345,0.37708022014354936,-0.9642959608023827
13.000999999998234,0.3447266505509969,-0.9573947528774516
13.200999999998123,0.31796448569317176,-0.9458147115683022
13.400999999998012,0.28340620561723423,-0.9302804498149501
13.600999999997901,0.25174081948467114,-0.9151745002153022
13.80099999999779,0.21584366558917314,-0.8994739902252279
14.00099999999768,0.18560435585264454,-0.8818164281329299
14.200999999997569,0.15411848511603596,-0.8638569554389435
14.400999999997458,0.1250126388507816,-0.8395574395864513
14.600999999997347,0.09663501917123522,-0.8173487831264226
14.800999999997236,0.07028102323114124,-0.8022534499283742
15.000999999997125,0.047458698353393954,-0.7890824326439541
15.200999999997014,0.02801759248973099,-0.7822757814343669
15.400999999996904,0.0043198445278485875,-0.7757956319608413
15.600999999996793,-0.026155728407688886,-0.7637894699740436
15.800999999996682,-0.0459216225222508,-0.7519792684038615
16.000999999996573,-0.07417902952427466,-0.7394985004751503
16.200999999996817,-0.10563650266891647,-0.7229420997443504
16.40099999999706,-0.13225113058586901,-0.7092784149543497
16.600999999997306,-0.15288338118880412,-0.6951068456074754
16.80099999999755,-0.18390606181939273,-0.6771981173679068
17.000999999997795,-0.21011045277966442,-0.6578799833326714
17.20099999999804,-0.24020483210851862,-0.6378949122461975
17.400999999998284,-0.2699738634180328,-0.612485535828051
17.60099999999853,-0.298073272242245,-0.5808386675082825
17.800999999998773,-0.32121689975214557,-0.5538413747854135
18.000999999999017,-0.34556015286908515,-0.5337533705124667
18.20099999999926,-0.3675895771719937,-0.5204468396968089
18.400999999999506,-0.3862845203440784,-0.5091781712673438
18.60099999999975,-0.4021294016989522,-0.4785807950387642
18.799999999999994,-0.4185663891224975,-0.4528683291904966
19.000000000000238,-0.42659303231744333,-0.4281778057308601
19.200000000000482,-0.4264292027968779,-0.40393726007760905
19.400000000000727,-0.4281641426922934,-0.373884390343733
19.60000000000097,-0.4262330724478449,-0.34700419046971115
19.800000000001216,-0.41863429458220075,-0.31308399667863346
20.00000000000146,-0.4062219992447239,-0.2844551954866625
