Time (s),X (m),Y (m)
0.001,-0.0004427414248986554,0.0007899207378008392
0.20000000000000015,0.0019421434078688987,-0.0006390168856593256
0.4000000000000003,0.00947458885968807,-0.004429002843054176
0.6000000000000004,0.011828686402309278,0.00243205462732405
0.8000000000000006,0.017337109691827425,0.0023520387621210194
1.0000000000000007,0.02709943784152539,0.0050965797933895185
1.2009999999999785,0.03819422375564563,0.008135478835567717
1.4009999999999565,0.04956127652908828,0.0037065437945679575
1.6009999999999345,0.062311329025996606,0.003388393952846559
1.8009999999999124,0.08024451650490733,0.0064539857764192125
2.0009999999998906,0.09476498274683211,-0.002491523079396072
2.2009999999998686,0.10664232031272525,-0.005211020803950195
2.4009999999998466,0.12393189393548598,-0.0041046647978384134
2.6009999999998246,0.13684038043404154,0.001825057361427544
2.8009999999998025,0.1462831263008341,0.00472952522617536
3.0009999999997805,0.16635199301219425,0.004354505276049134
3.2009999999997585,0.18487571247882204,0.003702675277157774
3.4009999999997365,0.19966063005767604,0.012666644649758163
3.6009999999997144,0.2141292274282483,0.010336248177747216
3.8009999999996924,0.22035497590721695,0.01535841686122942
4.000999999999671,0.23254909485195832,0.01534015447664555
4.200999999999738,0.24888571819678432,0.018927540772645128
4.400999999999804,0.25762625772268716,0.024537503884184103
4.600999999999871,0.27234233209204667,0.021063301775969746
4.800999999999938,0.28856096892396665,0.012054012303929698
5.000000000000004,0.2986714889069598,0.01805319651687896
5.200000000000071,0.3120936462490388,0.010879109923643032
5.400000000000138,0.32838631167258264,0.004798475257840905
5.600000000000205,0.3417396741919363,-0.007862661042110681
5.800000000000272,0.35740157440098497,-0.0111582638182841
6.000000000000338,0.3692843135937836,-0.017198906676357303
6.200000000000405,0.3824433279841078,-0.024622199277410675
6.400000000000472,0.3987442621482048,-0.029651551705514825
6.600000000000539,0.42028071624243674,-0.03081051402760255
6.800000000000606,0.43327162709321154,-0.037826807148929796
7.000000000000672,0.44670073302037805,-0.0503632945281534
7.200000000000739,0.4577608119795804,-0.05673078057778898
7.400000000000806,0.4682224039855261,-0.06679183382591997
7.600000000000873,0.4743171484518006,-0.07908394898808944
7.8000000000009395,0.4857577904305108,-0.07942904595969462
8.000000000001005,0.4956262665529579,-0.08672590662515241
8.200000000000895,0.5056976767352888,-0.09839023411722433
8.400000000000784,0.5194970471331247,-0.11119620916528482
8.600000000000673,0.5311618960495315,-0.11747810585541667
8.800000000000562,0.538430187631643,-0.13188400500118497
9.000000000000451,0.5450924131233176,-0.1403644286854045
9.20000000000034,0.552268557036278,-0.15108085976948404
9.40000000000023,0.5584070806522572,-0.16775750023930325
9.600000000000119,0.5609864150695657,-0.17817824722680706
9.800000000000008,0.5691472777122151,-0.18155140726463273
10.000999999999896,0.5793599277415121,-0.18765095798073886
10.200999999999786,0.5890802810622274,-0.19340810563751534
10.400999999999675,0.59558001872166,-0.20668734986633383
10.600999999999564,0.5970853153807582,-0.2246387492120465
10.800999999999453,0.6014428249435381,-0.24448516573065046
11.000999999999342,0.6062781831333143,-0.2590438790927699
11.200999999999231,0.606838745846136,-0.26547702780352816
11.40099999999912,0.6167698906884423,-0.27546817378115374
11.60099999999901,0.6267724452638926,-0.28547709716618547
11.800999999998899,0.6277313225455471,-0.3054204057269532
12.000999999998788,0.6322327922226411,-0.3141677368792337
12.200999999998677,0.6377913788644085,-0.3279361681140992
12.400999999998566,0.6419804406774725,-0.3419012562020752
12.600999999998455,0.6541109600907485,-0.3513368951938845
12.800999999998345,0.6687354845588634,-0.3560167773295157
13.000999999998234,0.675016092750731,-0.3671950522475552
13.200999999998123,0.6815464653631143,-0.37642333870624806
13.400999999998012,0.6888895514346579,-0.39081064790025855
13.600999999997901,0.6951911817549871,-0.3995251017280715
13.80099999999779,0.7026169991929306,-0.41035486274125677
14.00099999999768,0.7128963489008255,-0.4181639057081184
14.200999999997569,0.714868748105052,-0.4363743066746782
14.400999999997458,0.7166897367010081,-0.448357355886243
14.600999999997347,0.7258812287700505,-0.45528472711809687
14.800999999997236,0.7361042385811218,-0.4651523293635332
15.000999999997125,0.7420961529889571,-0.4794574054018225
15.200999999997014,0.7482383156716329,-0.49323950513174536
15.400999999996904,0.75448486688086,-0.5093599411617188
15.600999999996793,0.7568396083348387,-0.5251491673491765
15.800999999996682,0.7645011479388398,-0.5396843429913332
16.000999999996573,0.7741915901694993,-0.5537695543759578
16.200999999996817,0.7842367734591859,-0.5672750450550412
16.40099999999706,0.7855104248751958,-0.5875995396962589
16.600999999997306,0.7897995544918943,-0.6060674633837522
16.80099999999755,0.7950423755274838,-0.6237446777653095
17.000999999997795,0.7933428671643322,-0.6488473112474408
17.20099999999804,0.7953221749008528,-0.6663296792566453
17.400999999998284,0.8030486795469304,-0.6731770286968135
17.60099999999853,0.8101270473138729,-0.6837529477054145
17.800999999998773,0.8119060813417484,-0.7019333840166667
18.000999999999017,0.8124621328040804,-0.7161373493974518
18.20099999999926,0.8138837437752725,-0.7289687264507788
18.400999999999506,0.8155910617972009,-0.7471067247417353
18.60099999999975,0.8145287749051058,-0.7615682003474433
18.799999999999994,0.8203087021358858,-0.7783654316061942
19.000000000000238,0.8229708609892225,-0.7965950533357106
19.200000000000482,0.8262449834045423,-0.8117891100354714
19.400000000000727,0.8354361624471117,-0.8191313547642213
19.60000000000097,0.8471148673341293,-0.8206861323632567
19.800000000001216,0.8564699757823293,-0.8322447291203423
20.00000000000146,0.8664967074568329,-0.8477754172574582
