Time (s),X (m),Y (m)
0.001,-0.0008071636076123137,8.987223813608099e-05
0.20000000000000015,0.001046253287233212,0.0003491714558134899
0.4000000000000003,0.004697166886473252,-0.003645512899366424
0.6000000000000004,0.015201916848349954,-0.007701594539813132
0.8000000000000006,0.02716684397595343,-0.01073893286286926
1.0000000000000007,0.04296452757208863,-0.010339212395349039
1.2009999999999785,0.0593150680132012,-0.006433682011578954
1.4009999999999565,0.07830729945810025,0.0006858369271487852
1.6009999999999345,0.10475010470622413,-0.0006372524774513771
1.8009999999999124,0.12677747746932747,-0.033954891298167075
2.0009999999998906,0.14092602722105954,-0.08301896589876107
2.2009999999998686,0.1372502086188631,-0.13366708909026712
2.4009999999998466,0.12007161520174155,-0.17760302583483073
2.6009999999998246,0.08374761693623271,-0.20043437829128213
2.8009999999998025,0.042926889665960866,-0.20249042054593994
3.0009999999997805,0.005007354482869961,-0.1912226368810976
3.2009999999997585,-0.01594848037057751,-0.17294286975559836
3.4009999999997365,-0.025496432913200934,-0.1507871211771857
3.6009999999997144,-0.023977619367630574,-0.1259938431009732
3.8009999999996924,-0.006777415475311302,-0.08893994040696462
4.000999999999671,0.01933727636325244,-0.04817791107400441
4.200999999999738,0.054730657160600216,-0.023320948578165388
4.400999999999804,0.10235841703816212,-0.02090767547470717
4.600999999999871,0.1424752191047812,-0.023033349735964
4.800999999999938,0.16603393624150095,-0.03926483111539885
5.000000000000004,0.1723719041206599,-0.06573977407976768
5.200000000000071,0.15521499190560917,-0.10439994000213458
5.400000000000138,0.12724289509381406,-0.15257963884132236
5.600000000000205,0.11219221554477948,-0.19484980123697931
5.800000000000272,0.08146105676353274,-0.21518995536484567
6.000000000000338,0.033662481568049935,-0.21787766974254494
6.200000000000405,0.0017443379833648861,-0.21883526640473144
6.400000000000472,-0.02392088493565245,-0.21484222071656847
6.600000000000539,-0.0644875121499008,-0.19873498806541165
6.800000000000606,-0.10320602273778968,-0.18570109480395117
7.000000000000672,-0.14721932533121537,-0.1664866180864157
7.200000000000739,-0.194895100632453,-0.13497450333202352
7.400000000000806,-0.24426909004703096,-0.10135604809012473
7.600000000000873,-0.29150372231461164,-0.06030357709523422
7.8000000000009395,-0.3118447815066718,-0.003743105140409653
8.000000000001005,-0.3070255225304624,0.04827500814965114
8.200000000000895,-0.29280606541080334,0.10190655936211132
8.400000000000784,-0.2726395671723941,0.15541991236570982
8.600000000000673,-0.2537578972343515,0.21059074607395073
8.800000000000562,-0.22994794858715933,0.27163907533324544
9.000000000000451,-0.20121851369476368,0.3369515409283913
9.20000000000034,-0.16425154315607124,0.403778206735003
9.40000000000023,-0.11997109959918066,0.4691390726512086
9.600000000000119,-0.05971899797545643,0.5241545609415744
9.800000000000008,-0.0025247569839144043,0.5561629888730678
10.000999999999896,0.05852612600945342,0.5606918903105519
10.200999999999786,0.1264837620259737,0.5399656144848155
10.400999999999675,0.19551142954491724,0.506090463007156
10.600999999999564,0.25548513679657264,0.4632668628431589
10.800999999999453,0.28599463106903306,0.4151564200031955
11.000999999999342,0.2906151219018773,0.35946569458252736
11.200999999999231,0.2763972891186542,0.29871293780519165
11.40099999999912,0.2571824357342167,0.2416356671882578
11.60099999999901,0.21764398238200924,0.18394012846054775
11.800999999998899,0.16659180901948148,0.1459575290372712
12.000999999998788,0.10365003756567114,0.14640563158588046
12.200999999998677,0.0373505871317809,0.17020729560789435
12.400999999998566,-0.026962637888599036,0.19727302587654305
12.600999999998455,-0.09580747100650544,0.23072422632663164
12.800999999998345,-0.16148973093522667,0.27423527870691355
13.000999999998234,-0.2211739060590597,0.320354073653061
13.200999999998123,-0.2634408251288498,0.3710251105488537
13.400999999998012,-0.2754755780590452,0.4229787898586642
13.600999999997901,-0.26007236580998216,0.478380513021829
13.80099999999779,-0.22826503908267926,0.5308467940108871
14.00099999999768,-0.1894763293217413,0.5641105314709751
14.200999999997569,-0.14192828616089,0.5660040955679981
14.400999999997458,-0.09116679358109889,0.5559993466771639
14.600999999997347,-0.035878536860830784,0.5315501370177484
14.800999999997236,0.020008137595734433,0.49450228171339855
15.000999999997125,0.07604646482426757,0.44126889738868325
15.200999999997014,0.10833531026123457,0.3835164520295631
15.400999999996904,0.10831266133341552,0.32707183337283746
15.600999999996793,0.0833219499677527,0.2620361532806538
15.800999999996682,0.04895743936306979,0.1937065940683097
16.000999999996573,-0.0017255288018541899,0.14651170962352003
16.200999999996817,-0.052567732342846535,0.13589203334993954
16.40099999999706,-0.08464446149838879,0.14644911975090102
16.600999999997306,-0.09553400364932271,0.16997756942022246
16.80099999999755,-0.0829990798179967,0.2152903979879615
17.000999999997795,-0.04969989671853009,0.27136799029485165
17.20099999999804,0.0006100086094254147,0.32619181143782466
17.400999999998284,0.05471535287412282,0.36221314578090213
17.60099999999853,0.11204829591170513,0.3692548134746185
17.800999999998773,0.1672757482478746,0.36222852179878323
18.000999999999017,0.22931754475877375,0.33608582833692263
18.20099999999926,0.29600134421712426,0.2981567291198026
18.400999999999506,0.35966613971198935,0.2599492632669014
18.60099999999975,0.421487797681575,0.22139128468982708
18.799999999999994,0.47674395195622826,0.16149177311577928
19.000000000000238,0.5087529368529992,0.10029149683493034
19.200000000000482,0.5166476969102249,0.04780607366908846
19.400000000000727,0.5096616045763687,-0.006120937014069146
19.60000000000097,0.49039209807229384,-0.07319807766611806
19.800000000001216,0.4579412484421947,-0.14915029084384315
20.00000000000146,0.40785515424208285,-0.22910091987438502
