Time (s),X (m),Y (m)
0.001,-0.000795421750936344,0.00017906049427360518
0.20000000000000015,0.0005814093534633023,-0.0001188551289692246
0.4000000000000003,0.0009589928453794876,-0.002329029457467544
0.6000000000000004,0.0062092848755884375,0.0042484468691799055
0.8000000000000006,0.022472375830289392,0.006101721350375358
1.0000000000000007,0.0475918291660848,0.006417876276929175
1.2009999999999785,0.07338863317898237,-0.0015752733759749947
1.4009999999999565,0.10510135497375228,-0.026535201335091414
1.6009999999999345,0.13609133115196156,-0.047746657069058444
1.8009999999999124,0.16803502122431793,-0.0698391317350781
2.0009999999998906,0.20434112485404138,-0.10571122795849229
2.2009999999998686,0.2299470792714592,-0.14333677645297896
2.4009999999998466,0.2370737485574343,-0.17922150643266116
2.6009999999998246,0.2347907898393317,-0.20967049123907527
2.8009999999998025,0.20475713827376055,-0.24607358630704254
3.0009999999997805,0.16877020214637142,-0.28068376586130916
3.2009999999997585,0.13065969837260993,-0.2948809926758864
3.4009999999997365,0.09306577768961304,-0.2989327553070183
3.6009999999997144,0.05759805506319731,-0.2955050840604248
3.8009999999996924,0.031152648393890103,-0.2812738459309473
4.000999999999671,0.01970925179787112,-0.2542871837353228
4.200999999999738,0.025406679024648864,-0.22457042544741138
4.400999999999804,0.039475830830472965,-0.19122564671281267
4.600999999999871,0.06939550485901926,-0.16918916226749153
4.800999999999938,0.10574637738696491,-0.16448245915854465
5.000000000000004,0.13897213773408268,-0.17233757338929176
5.200000000000071,0.17252961742519815,-0.1854287416009466
5.400000000000138,0.22119982182709932,-0.21700362433559758
5.600000000000205,0.2770224976995262,-0.2575563760830498
5.800000000000272,0.3343082203257536,-0.30135657363380486
6.000000000000338,0.38041191424354004,-0.35468699174114166
6.200000000000405,0.39889689500871134,-0.4073581171587911
6.400000000000472,0.40141217445959604,-0.4542855160983011
6.600000000000539,0.38821681082189924,-0.5047316551221473
6.800000000000606,0.36574495793189626,-0.560548734710706
7.000000000000672,0.3302386271976882,-0.618300668693115
7.200000000000739,0.2982565412583187,-0.6624323459433293
7.400000000000806,0.2522934990092177,-0.6830986817145355
7.600000000000873,0.19594284160924808,-0.6808399220353315
7.8000000000009395,0.14006852175754483,-0.6687502590837889
8.000000000001005,0.08124219273320143,-0.6522172270220686
8.200000000000895,0.023317590819971725,-0.6316639853533367
8.400000000000784,-0.039593585914964834,-0.6005885933896584
8.600000000000673,-0.10806907110549746,-0.563839018714731
8.800000000000562,-0.17424376455934618,-0.526142918744925
9.000000000000451,-0.24295153877609735,-0.49138582299283384
9.20000000000034,-0.29781312489861705,-0.4407371343890752
9.40000000000023,-0.318177790440782,-0.38355701759671396
9.600000000000119,-0.31345815227195817,-0.3356797786977667
9.800000000000008,-0.28636583020613526,-0.30598876192875907
10.000999999999896,-0.250790084063277,-0.29395142556378545
10.200999999999786,-0.20641395846201957,-0.3020499680511277
10.400999999999675,-0.15442326723855374,-0.3204652346376681
10.600999999999564,-0.10521115672947755,-0.3480657737472943
10.800999999999453,-0.06292317054873814,-0.3864092022223466
11.000999999999342,-0.04454020963637649,-0.45328084620225223
11.200999999999231,-0.04486085529672243,-0.5168002518464551
11.40099999999912,-0.06485693089847337,-0.5732538309884007
11.60099999999901,-0.08167353696089837,-0.6232803334431587
11.800999999998899,-0.10121219356867474,-0.6790410094146687
12.000999999998788,-0.1306888941151742,-0.7317914384503837
12.200999999998677,-0.17247640335627526,-0.7622738156559486
12.400999999998566,-0.21442328783363412,-0.7735234963034421
12.600999999998455,-0.25695161204373057,-0.7460290990529169
12.800999999998345,-0.284424556280107,-0.6977986038558174
13.000999999998234,-0.2953944169744536,-0.6478847135399113
13.200999999998123,-0.29181194978167774,-0.5983305487523622
13.400999999998012,-0.27020314723948613,-0.5375151367607569
13.600999999997901,-0.24327541956958423,-0.47423145442080317
13.80099999999779,-0.216548808817275,-0.4199386163603782
14.00099999999768,-0.15838334361995587,-0.3811921375800504
14.200999999997569,-0.09627520250969392,-0.36810994962827354
14.400999999997458,-0.03919569262831749,-0.37475864200108744
14.600999999997347,0.028996537116495497,-0.3959216899156087
14.800999999997236,0.09347242172604105,-0.41926043403625146
15.000999999997125,0.15618682518452237,-0.44588558943256373
15.200999999997014,0.22650059016424318,-0.48240885910764164
15.400999999996904,0.2992557303701445,-0.5232015774006464
15.600999999996793,0.3665390148035141,-0.5565850637180049
15.800999999996682,0.43161009698117425,-0.5901851347693301
16.000999999996573,0.4987959920969288,-0.6234702801271959
16.200999999996817,0.5658035859473374,-0.6529434566724698
16.40099999999706,0.6141936956995983,-0.6943647375043634
16.600999999997306,0.6266197609198375,-0.7437937090648756
16.80099999999755,0.6081321724173387,-0.7991621142494257
17.000999999997795,0.5643948812697227,-0.8429734711594531
17.20099999999804,0.5074579123579941,-0.853906236663435
17.400999999998284,0.4327587190153666,-0.8389357509181622
17.60099999999853,0.3563846982501147,-0.8128397608831325
17.800999999998773,0.2848734661666468,-0.7833262607452975
18.000999999999017,0.236264519936052,-0.7454525309108025
18.20099999999926,0.21662651589979115,-0.7032263134471964
18.400999999999506,0.21980704481762361,-0.6581709685027893
18.60099999999975,0.24572090309609224,-0.6118163290765631
18.799999999999994,0.28970236450034736,-0.5876274596025951
19.000000000000238,0.34160136558398313,-0.5788213886524073
19.200000000000482,0.3941025153544254,-0.5817170965062766
19.400000000000727,0.44498950262747616,-0.5884288870466181
19.60000000000097,0.4956153884754166,-0.6048378354218649
19.800000000001216,0.5511071395336572,-0.6344486533663625
20.00000000000146,0.608729884157425,-0.671427108204229
