Time (s),X (m),Y (m)
0.001,-0.0007144750753253542,-0.00043579054991000363
0.20000000000000015,0.009403626596974616,0.002867017453848067
0.4000000000000003,0.017129089543610605,0.00349873492747491
0.6000000000000004,0.02898450307238029,0.004277329926144465
0.8000000000000006,0.05612094922461544,0.008217652039593381
1.0000000000000007,0.08097708642078098,0.013607298718829819
1.2009999999999785,0.09687133744281812,0.01679237174449105
1.4009999999999565,0.10915197542485847,0.016503613881356766
1.6009999999999345,0.11253551059665175,0.014094501557910413
1.8009999999999124,0.12140338302556719,0.011155182573273296
2.0009999999998906,0.1423876516743622,0.006144719615532127
2.2009999999998686,0.16209975758131054,-0.004235879301792272
2.4009999999998466,0.1776709552419714,-0.012702207994956888
2.6009999999998246,0.20895356000671642,-0.020650727877057202
2.8009999999998025,0.2345764775821387,-0.02736860326333527
3.0009999999997805,0.24246823614866617,-0.03876078830540471
3.2009999999997585,0.25526593950571974,-0.04631492845774717
3.4009999999997365,0.2655898756839102,-0.05825502205770963
3.6009999999997144,0.28519465280578016,-0.06652555717081482
3.8009999999996924,0.30539516418626694,-0.08253570732167072
4.000999999999671,0.32413253593803976,-0.09711810874060045
4.200999999999738,0.3319500353124059,-0.10407223159261797
4.400999999999804,0.33153167644960907,-0.11606002251869628
4.600999999999871,0.3437580502792347,-0.13480046332172416
4.800999999999938,0.35303409885604103,-0.15403132733546038
5.000000000000004,0.36790251783429323,-0.1678865147879626
5.200000000000071,0.39008485046294017,-0.18929880695858947
5.400000000000138,0.41048500356765055,-0.2143899631876953
5.600000000000205,0.4336267666523201,-0.23525465280316507
5.800000000000272,0.4531865037449204,-0.25197932294541103
6.000000000000338,0.4775895161175203,-0.27042986632999994
6.200000000000405,0.5054730317515035,-0.2932252959601323
6.400000000000472,0.5378593722227696,-0.31793607955882575
6.600000000000539,0.5752313041446149,-0.339948904984685
6.800000000000606,0.5981599620054676,-0.36320160578797345
7.000000000000672,0.6132297370513683,-0.38402651016563427
7.200000000000739,0.633326255383537,-0.4072984559300049
7.400000000000806,0.6668953976991887,-0.4313640248611617
7.600000000000873,0.7037927686731772,-0.45973237860800836
7.8000000000009395,0.7360903291664456,-0.49347940985601185
8.000000000001005,0.7668281033548741,-0.5196197790479917
8.200000000000895,0.7867942379956928,-0.5437381610007728
8.400000000000784,0.8105302657373871,-0.5612183503220163
8.600000000000673,0.8268802629563305,-0.5809917633833384
8.800000000000562,0.8476044424033699,-0.5947240239404702
9.000000000000451,0.879280002160097,-0.6079845120741856
9.20000000000034,0.9111974493398444,-0.6241561341264752
9.40000000000023,0.9420139545738628,-0.6347780331545285
9.600000000000119,0.9800911556892162,-0.6487392647662095
9.800000000000008,1.0054747728015356,-0.6668452000436429
10.000999999999896,1.0352793861635652,-0.6829666684388164
10.200999999999786,1.0615382197984908,-0.7030506512586459
10.400999999999675,1.0882889982162278,-0.7197655265870718
10.600999999999564,1.1156351500685722,-0.7359442496890239
10.800999999999453,1.1304443802637736,-0.7539987244912207
11.000999999999342,1.1387023821808469,-0.7689640879844897
11.200999999999231,1.1533053613471225,-0.7841627564300198
11.40099999999912,1.1715239218517397,-0.8021030301298584
11.60099999999901,1.1964846706228542,-0.8216775253055479
11.800999999998899,1.2287389730458766,-0.8426682410832199
12.000999999998788,1.256564615491836,-0.8615472632833225
12.200999999998677,1.2988510207720103,-0.8796320538748048
12.400999999998566,1.3357440368704854,-0.9026823031289595
12.600999999998455,1.3760380018383842,-0.9172725914427191
12.800999999998345,1.4112013955330827,-0.9321911778359365
13.000999999998234,1.44621252122102,-0.9461217048695844
13.200999999998123,1.4907214266962179,-0.965152691415381
13.400999999998012,1.5314699445245026,-0.9846991377483114
13.600999999997901,1.5778751049292556,-1.0067847930732357
13.80099999999779,1.6207327864973398,-1.0345177188001515
14.00099999999768,1.651439291692954,-1.064021963105049
14.200999999997569,1.694884395206887,-1.095431684165924
14.400999999997458,1.7221421168143651,-1.1241589882474883
14.600999999997347,1.7535932597368258,-1.146533403466051
14.800999999997236,1.7825336231180071,-1.1669544866312471
15.000999999997125,1.8100759238449073,-1.1877075714568208
15.200999999997014,1.8332576018301112,-1.2121335208535837
15.400999999996904,1.860190941182628,-1.2379712765420414
15.600999999996793,1.8958280725783876,-1.2636958721531841
15.800999999996682,1.930383168792838,-1.2838636452198173
16.000999999996573,1.9588061634560776,-1.3052120030561305
16.200999999996817,1.9955457741126514,-1.3205040006731994
16.40099999999706,2.01843189572531,-1.3309875467890635
16.600999999997306,2.047809432159504,-1.3348063655930391
16.80099999999755,2.087055285076685,-1.3337280663917184
17.000999999997795,2.1205384909210707,-1.337590059216947
17.20099999999804,2.157721918491551,-1.3406592117661411
17.400999999998284,2.1897927640822292,-1.348920411659819
17.60099999999853,2.2158158008679285,-1.361790772764728
17.800999999998773,2.246476648866839,-1.3696663254545898
18.000999999999017,2.2765668372833536,-1.3765614019925192
18.20099999999926,2.3128276872741518,-1.383077598797552
18.400999999999506,2.3565528866770995,-1.394764625214709
18.60099999999975,2.397883941532434,-1.4052873721131791
18.799999999999994,2.4215314502891463,-1.4102750486967939
19.000000000000238,2.429495490028225,-1.4247715059790211
19.200000000000482,2.457718658359719,-1.439425961009627
19.400000000000727,2.4880300302660787,-1.4485347291876083
19.60000000000097,2.5203239911386914,-1.4657616479492814
19.800000000001216,2.5455234219699676,-1.4803224667344141
20.00000000000146,2.5867538607021654,-1.4949157731081908
