Time (s),X (m),Y (m)
0.001,-0.000811087514270633,3.327365771613117e-19
0.20000000000000015,0.009104307086680792,-0.000400474690903244
0.4000000000000003,0.016633474658590365,-0.0033023451585489374
0.6000000000000004,0.023319923248642793,-0.007695475293128229
0.8000000000000006,0.038164469658976546,-0.014875015059085686
1.0000000000000007,0.05356844583187304,-0.02883899103258932
1.2009999999999785,0.07167674820288222,-0.04998555871777619
1.4009999999999565,0.08789959138366457,-0.07125246814590551
1.6009999999999345,0.09592355765491466,-0.08557849504087536
1.8009999999999124,0.09447840213793918,-0.10756937539587601
2.0009999999998906,0.09160140463924661,-0.14587397499684288
2.2009999999998686,0.08367675816393635,-0.17854428289907467
2.4009999999998466,0.07300000859835856,-0.20142893325247083
2.6009999999998246,0.05918063588723305,-0.22446441359106914
2.8009999999998025,0.04197653082607444,-0.256187679509099
3.0009999999997805,0.028395813969717458,-0.29183775427406616
3.2009999999997585,0.0088673122055804,-0.3316029575051396
3.4009999999997365,-0.007438896411586422,-0.37019179097276383
3.6009999999997144,-0.031614331278659216,-0.4085644589026766
3.8009999999996924,-0.06068672815123231,-0.44000432337760975
4.000999999999671,-0.09927223348366275,-0.4545979323378165
4.200999999999738,-0.13863238662186853,-0.4546657635999489
4.400999999999804,-0.18520035635855187,-0.4384270273719811
4.600999999999871,-0.22118282141410323,-0.42413208335227987
4.800999999999938,-0.2552461348721788,-0.41322367529373905
5.000000000000004,-0.28661603001516944,-0.4013510286674628
5.200000000000071,-0.32572274974162235,-0.3842260374486581
5.400000000000138,-0.37536659207875894,-0.3490509149721895
5.600000000000205,-0.42307193136263044,-0.3063057866556423
5.800000000000272,-0.4645871443686075,-0.25627374413008697
6.000000000000338,-0.49577548901771784,-0.20061307779395743
6.200000000000405,-0.5050610793208985,-0.14324901359895387
6.400000000000472,-0.49689118176290187,-0.09587994248964508
6.600000000000539,-0.47511375490744145,-0.05042626059911732
6.800000000000606,-0.4498627741661318,-0.002199807210875438
7.000000000000672,-0.4161419944912262,0.04835865613614332
7.200000000000739,-0.37666280444325223,0.09651768526383642
7.400000000000806,-0.3310182791216851,0.1462485708955536
7.600000000000873,-0.26976706895765107,0.1855911706523423
7.8000000000009395,-0.21192696647957446,0.2078330936495591
8.000000000001005,-0.1558083717367383,0.20574184067071102
8.200000000000895,-0.10445878411611868,0.17740551809424188
8.400000000000784,-0.06541221941481141,0.1401439354209524
8.600000000000673,-0.04879981359023262,0.09772886604566168
8.800000000000562,-0.05460603825407808,0.050991332666657695
9.000000000000451,-0.07326735760584316,0.0021526527321193813
9.20000000000034,-0.11356025509482542,-0.04561083056750018
9.40000000000023,-0.16196913813830802,-0.08032693426466984
9.600000000000119,-0.21345838729087935,-0.09794856172651106
9.800000000000008,-0.2613298660192918,-0.09938408608617319
10.000999999999896,-0.3020764896513337,-0.0918681731898557
10.200999999999786,-0.34345614325168977,-0.07384355371685265
10.400999999999675,-0.393188972628049,-0.040075937978448245
10.600999999999564,-0.4425147703849661,-0.009522729969390669
10.800999999999453,-0.4908686461512175,0.024551132114841282
11.000999999999342,-0.5255473770451934,0.07558395046890276
11.200999999999231,-0.5305550928459188,0.13189719127731678
11.40099999999912,-0.5132933267746009,0.18767470384139523
11.60099999999901,-0.48787434756207587,0.24590163202243484
11.800999999998899,-0.456378073115562,0.30484980641528503
12.000999999998788,-0.4179573202757917,0.36470934389571735
12.200999999998677,-0.38270466871893444,0.4223239152945096
12.400999999998566,-0.3391551235873888,0.4833496444429856
12.600999999998455,-0.2930920279175542,0.5462415170126486
12.800999999998345,-0.2512311190189711,0.602454795254381
13.000999999998234,-0.21172497287963832,0.6497357294667302
13.200999999998123,-0.16888359405044204,0.6767303677632862
13.400999999998012,-0.12546837915912298,0.6771815674702045
13.600999999997901,-0.08494711923576909,0.6613275737619502
13.80099999999779,-0.043222868617977264,0.6332958762275341
14.00099999999768,0.004642335106376578,0.5934171533695631
14.200999999997569,0.03801041589381546,0.5478310183447866
14.400999999997458,0.03915072774459341,0.4955121100511063
14.600999999997347,0.018708345133928873,0.43981031484373223
14.800999999997236,-0.009171187043886595,0.3899906330487209
15.000999999997125,-0.04003997445320317,0.34825042243700166
15.200999999997014,-0.06691201954720304,0.3271085422041094
15.400999999996904,-0.10459855887758752,0.3272745960383679
15.600999999996793,-0.14483579012867903,0.34938804866394124
15.800999999996682,-0.1817284312650511,0.38474343507044634
16.000999999996573,-0.2058394679032449,0.42828185073046054
16.200999999996817,-0.2115388393667156,0.4644015182039497
16.40099999999706,-0.20391073318568032,0.49939694083325986
16.600999999997306,-0.18705162033703587,0.5371580926171596
16.80099999999755,-0.17094527555986533,0.5692595044623164
17.000999999997795,-0.15619982852196404,0.5971393515162307
17.20099999999804,-0.13711700532423102,0.6405463222358917
17.400999999998284,-0.12055970496154524,0.6776785498726602
17.60099999999853,-0.11463678560324524,0.7116574179195796
17.800999999998773,-0.09967459791502947,0.7646944565396481
18.000999999999017,-0.07729177837989333,0.8256782277770902
18.20099999999926,-0.04817905906310793,0.8858445945528826
18.400999999999506,-0.012403420470389434,0.9448218050502621
18.60099999999975,0.025014906036065043,1.0059112979362548
18.799999999999994,0.06480279089812487,1.0645215079269303
19.000000000000238,0.11192693851526017,1.1247521640069629
19.200000000000482,0.16420033482631083,1.1809766770846826
19.400000000000727,0.21690993818104062,1.2173013332340938
19.60000000000097,0.2652274854408469,1.230556780564045
19.800000000001216,0.319839627926214,1.2217394440000822
20.00000000000146,0.37955227157244076,1.2011093993328743
