Time (s),X (m),Y (m)
0.001,0.0001302085367132322,-0.0010272443824616275
0.20000000000000015,0.0011075313910577683,-0.0010359676957069665
0.4000000000000003,0.007516137906367505,-0.004854300737844088
0.6000000000000004,0.026233435451928477,-0.012767591997565992
0.8000000000000006,0.05933326668315473,-0.022594817145381023
1.0000000000000007,0.10241701218546535,-0.03657847849404015
1.2009999999999785,0.15663378330354275,-0.05516179507765617
1.4009999999999565,0.192505750397922,-0.08164556439238074
1.6009999999999345,0.20201577872284815,-0.11737547112788117
1.8009999999999124,0.19397579059513964,-0.15222929942795346
2.0009999999998906,0.17400070484620686,-0.18817427012357382
2.2009999999998686,0.1470720446798642,-0.19941129383748157
2.4009999999998466,0.1121271693836094,-0.21657558562972185
2.6009999999998246,0.061574748924256156,-0.23765722553871094
2.8009999999998025,0.008387098323129047,-0.24855053261948323
3.0009999999997805,-0.04846944537035309,-0.23893618099534322
3.2009999999997585,-0.11346438108524255,-0.20895630346694777
3.4009999999997365,-0.1650686384287958,-0.15669230486677857
3.6009999999997144,-0.19917830882592205,-0.09052595336237804
3.8009999999996924,-0.20423759599007546,-0.02618567175370194
4.000999999999671,-0.20114277658915766,0.04112341987187269
4.200999999999738,-0.196769551948748,0.10430854529799544
4.400999999999804,-0.18478924028473892,0.16947981463539474
4.600999999999871,-0.16211692764150917,0.23095627226459092
4.800999999999938,-0.11772351167065355,0.29082655460497026
5.000000000000004,-0.07202481418292143,0.3226264798368138
5.200000000000071,-0.05367672904150336,0.32964698564402123
5.400000000000138,-0.04345537389427743,0.31183308158272227
5.600000000000205,-0.043380153667318004,0.2729806279372777
5.800000000000272,-0.05830073350042711,0.23135577840468993
6.000000000000338,-0.086874392062627,0.192515174814822
6.200000000000405,-0.12441643813866836,0.16355985731444941
6.400000000000472,-0.15002773436550532,0.15408553858324966
6.600000000000539,-0.15890245056883665,0.1645174755161386
6.800000000000606,-0.161149052384327,0.19653247768258655
7.000000000000672,-0.1463263969111171,0.23398031895104549
7.200000000000739,-0.12691233003556096,0.28192054291952096
7.400000000000806,-0.10906254414850056,0.338114051068777
7.600000000000873,-0.09327088367837555,0.3992130729374653
7.8000000000009395,-0.07048389521034366,0.43436305101510836
8.000000000001005,-0.03760384408896413,0.4398880871092744
8.200000000000895,0.0023455602532067217,0.43002638534576426
8.400000000000784,0.05332657218039978,0.4165353073481102
8.600000000000673,0.10925801528710899,0.39560339611903333
8.800000000000562,0.16637325681285353,0.36448657056269335
9.000000000000451,0.19876199223433624,0.3283165458262299
9.20000000000034,0.21412360788167445,0.27451902932291894
9.40000000000023,0.20552752706416882,0.2109684841131184
9.600000000000119,0.18037697489801602,0.1559406597728188
9.800000000000008,0.145622665742243,0.11186420791421785
10.000999999999896,0.10533533645886822,0.08097146798198736
10.200999999999786,0.06081929738077054,0.03367679505354827
10.400999999999675,0.01947748087587692,-0.024955933832831647
10.600999999999564,-0.02555363563631045,-0.0736853906568601
10.800999999999453,-0.07984840456143612,-0.12127154718974063
11.000999999999342,-0.14720352307505116,-0.1652769546233134
11.200999999999231,-0.22570349474948284,-0.18958166408542426
11.40099999999912,-0.31082160177754975,-0.198158590596815
11.60099999999901,-0.4117605407635629,-0.20123434396510634
11.800999999998899,-0.4853826046461961,-0.1957030696398844
12.000999999998788,-0.5270553213792083,-0.1669244422725279
12.200999999998677,-0.5500170072845469,-0.11592300522938005
12.400999999998566,-0.5606626978823119,-0.05131746030288665
12.600999999998455,-0.5404507294630684,0.01925204060944956
12.800999999998345,-0.4973594777073828,0.0624870136084481
13.000999999998234,-0.44916857636640045,0.07885725673917388
13.200999999998123,-0.41400939187777797,0.07734452313377349
13.400999999998012,-0.3915687062208493,0.038518817204942594
13.600999999997901,-0.37533120198511744,-0.028352014770887196
13.80099999999779,-0.37864195853529037,-0.09452587948631022
14.00099999999768,-0.3848431218563949,-0.157241016956783
14.200999999997569,-0.38854719010586425,-0.23472658500748567
14.400999999997458,-0.40139969095692096,-0.3105286437174686
14.600999999997347,-0.4228799747189268,-0.3622100771575589
14.800999999997236,-0.459297473347183,-0.40126627648568247
15.000999999997125,-0.5145675868598428,-0.43079807833376177
15.200999999997014,-0.5764294150072354,-0.4436060740263247
15.400999999996904,-0.6475808616073468,-0.4458330715801775
15.600999999996793,-0.7385665112576324,-0.4448751117339981
15.800999999996682,-0.8225467794405592,-0.4338204648422546
16.000999999996573,-0.890910360811225,-0.4185677077016725
16.200999999996817,-0.9286099939127641,-0.39185802936527475
16.40099999999706,-0.9464414004638836,-0.35845934672470237
16.600999999997306,-0.9381347884482164,-0.31607314844479883
16.80099999999755,-0.9076860806634058,-0.2967288974614184
17.000999999997795,-0.8661866438582659,-0.3012454993570558
17.20099999999804,-0.8240746601679709,-0.32492939746033617
17.400999999998284,-0.7840128726394839,-0.35795807630295673
17.60099999999853,-0.7470381082934491,-0.4137727006367529
17.800999999998773,-0.7268318602660575,-0.4822678647992683
18.000999999999017,-0.7101513809637269,-0.5657884984860211
18.20099999999926,-0.702169348284192,-0.6361305437087343
18.400999999999506,-0.7151524054938119,-0.6906613402689925
18.60099999999975,-0.7444492452086829,-0.7286778927137857
18.799999999999994,-0.7581737065342229,-0.7374693717893758
19.000000000000238,-0.75733220509661,-0.7189720944827139
19.200000000000482,-0.7560643006238805,-0.677761865383201
19.400000000000727,-0.7570524898640361,-0.61049425560408
19.60000000000097,-0.7501189979696199,-0.5386767874523906
19.800000000001216,-0.7294448194779198,-0.46677469735933075
20.00000000000146,-0.7023826084403119,-0.40024463512552927
