Time (s),X (m),Y (m)
0.001,-0.0006246028371892732,-0.0005914538325516239
0.20000000000000015,0.005594969961217879,0.003017910575069498
0.4000000000000003,0.00864952546131686,0.007852735235485834
0.6000000000000004,0.007985948072761316,0.013064818320594107
0.8000000000000006,0.016036487436753816,0.013288286821028436
1.0000000000000007,0.029479339989577833,0.008244057443944072
1.2009999999999785,0.05136721578876384,0.003131035855970812
1.4009999999999565,0.07837755092380798,-0.012644252845424349
1.6009999999999345,0.11578969454515425,-0.03664177752090236
1.8009999999999124,0.1493293032210314,-0.06552960559548082
2.0009999999998906,0.1819847446792524,-0.09713537470238191
2.2009999999998686,0.21168626040681499,-0.13372588009148625
2.4009999999998466,0.2410093823451032,-0.17160755071752606
2.6009999999998246,0.27358498440751533,-0.20557586864830277
2.8009999999998025,0.3112020082213993,-0.24587616686081276
3.0009999999997805,0.35467225114581763,-0.28845609786921905
3.2009999999997585,0.39589511587914955,-0.33796650092060126
3.4009999999997365,0.4324388490320767,-0.391475157510779
3.6009999999997144,0.46444514102903073,-0.4570584192900827
3.8009999999996924,0.47228615698701926,-0.5174498792931836
4.000999999999671,0.45031761457654923,-0.5786051413756756
4.200999999999738,0.41110263926146995,-0.6312757663518472
4.400999999999804,0.355207367737681,-0.6792850520576
4.600999999999871,0.29316841805109933,-0.7231536987186009
4.800999999999938,0.2385559819536949,-0.7453641126260411
5.000000000000004,0.19505016259675492,-0.7430404165242093
5.200000000000071,0.157095091174982,-0.7127300508032063
5.400000000000138,0.13687625762807815,-0.6832473371161769
5.600000000000205,0.1307190576501541,-0.6298394264997572
5.800000000000272,0.13744172313924857,-0.5762543006964242
6.000000000000338,0.1551178539948231,-0.5354213776175206
6.200000000000405,0.18582763960730878,-0.4857210623721337
6.400000000000472,0.22829024224308442,-0.4330992735459486
6.600000000000539,0.2801470584458429,-0.3793482534837602
6.800000000000606,0.3389165652762252,-0.3244438916613054
7.000000000000672,0.3984956276883532,-0.26158461044011916
7.200000000000739,0.4606236001849728,-0.19618981847168898
7.400000000000806,0.5317804233060186,-0.13294841291109635
7.600000000000873,0.5996053938319248,-0.07472778054618033
7.8000000000009395,0.6581995816462687,-0.03205511765796912
8.000000000001005,0.7086993117031518,-0.022368224914657547
8.200000000000895,0.7576015662185887,-0.03527576948702263
8.400000000000784,0.7972295025901616,-0.06045453259546521
8.600000000000673,0.8354180203859043,-0.09119236241016043
8.800000000000562,0.8826093410699575,-0.12998216398063092
9.000000000000451,0.9234232445708462,-0.17366613310248832
9.20000000000034,0.972904348273638,-0.23016833633152098
9.40000000000023,1.0238885800480495,-0.29334878712231044
9.600000000000119,1.0628285451777473,-0.3485882186839071
9.800000000000008,1.0802913578514584,-0.41370555612799287
10.000999999999896,1.069040646888385,-0.47958266827718177
10.200999999999786,1.028738085996884,-0.5395165251466356
10.400999999999675,0.9713122706245586,-0.5931469311115494
10.600999999999564,0.9164121319087665,-0.6301480805524595
10.800999999999453,0.8781230407297377,-0.639208449080583
11.000999999999342,0.8433814520317822,-0.6220091985307671
11.200999999999231,0.799935342035863,-0.5847464691809436
11.40099999999912,0.7497454533646524,-0.5309815449990735
11.60099999999901,0.7044269154292132,-0.46957289523637186
11.800999999998899,0.6732033331628124,-0.4063115885600647
12.000999999998788,0.6563066942653178,-0.3562743544576044
12.200999999998677,0.6581761744242564,-0.29718939829384133
12.400999999998566,0.6821626846590153,-0.23910738673043436
12.600999999998455,0.7168239105042961,-0.18364893587729672
12.800999999998345,0.7576074375858038,-0.12948182675243533
13.000999999998234,0.7962707890082774,-0.08515070620293483
13.200999999998123,0.8296217384959977,-0.04204895752110449
13.400999999998012,0.8617438279487776,0.009788918435413616
13.600999999997901,0.8877592947433919,0.07124875002006378
13.80099999999779,0.9029672787921027,0.1460103523256878
14.00099999999768,0.921147395044949,0.2385815081842618
14.200999999997569,0.9407662540301263,0.3256908667570999
14.400999999997458,0.9612294375622137,0.41138951073701513
14.600999999997347,0.9936498632819636,0.47539537644150076
14.800999999997236,1.0332087864001105,0.5298326004013376
15.000999999997125,1.072037951652208,0.5827989468891058
15.200999999997014,1.1235832038848417,0.6339820117456688
15.400999999996904,1.1816212979568155,0.693369038969607
15.600999999996793,1.2417169398595576,0.7564870725862931
15.800999999996682,1.301813755356986,0.8190728959157125
16.000999999996573,1.3696387921506166,0.8817175563202033
16.200999999996817,1.446734176357492,0.9534661267768407
16.40099999999706,1.5320300211511848,1.028180996353795
16.600999999997306,1.6216374424694855,1.1076799062125526
16.80099999999755,1.7103889780276202,1.1879388759589053
17.000999999997795,1.8096702363074375,1.2628126701158682
17.20099999999804,1.9079478346263201,1.3136194475046445
17.400999999998284,1.9862913314827324,1.3265899593799657
17.60099999999853,2.0481807473087112,1.30881313500766
17.800999999998773,2.113072320845176,1.262096505270466
18.000999999999017,2.173638415309896,1.1918369398335296
18.20099999999926,2.2084466013970423,1.119518854922297
18.400999999999506,2.212815563377813,1.0531549666185096
18.60099999999975,2.188838412951984,0.9913523839293106
18.799999999999994,2.1448937647393778,0.9301619579579871
19.000000000000238,2.100684350061872,0.8775439241680377
19.200000000000482,2.054505318263144,0.8507257607621296
19.400000000000727,2.007514507634183,0.8529238754194555
19.60000000000097,1.9642236287139045,0.8699364251940273
19.800000000001216,1.920089358757382,0.9037977436883547
20.00000000000146,1.886083169150294,0.9447198479238995
