Time (s),X (m),Y (m)
0.001,0.0011130987088041246,-0.000515584144559974
0.20000000000000015,-0.00026495143029180634,0.0018048364464703702
0.4000000000000003,0.010634824967048795,0.00015299238896211018
0.6000000000000004,0.028681900283203058,-0.003341958988640655
0.8000000000000006,0.03741298867705739,0.0027605233903647214
1.0000000000000007,0.04276664799447106,0.004299920030211352
1.2009999999999785,0.05628482344309902,-0.0020776025134073258
1.4009999999999565,0.07025664544752773,-0.004309093859449756
1.6009999999999345,0.09500398472935477,-0.012587815437098793
1.8009999999999124,0.1207591074723818,-0.023556047914556535
2.0009999999998906,0.1445321843817646,-0.03395801526481769
2.2009999999998686,0.16933144363360583,-0.05472586527365049
2.4009999999998466,0.19492241101923682,-0.09005549111244301
2.6009999999998246,0.2143019582020964,-0.11382221553375686
2.8009999999998025,0.2308447272522458,-0.1396447519863933
3.0009999999997805,0.24699602529211803,-0.16665079521633805
3.2009999999997585,0.26231720883295156,-0.18923952575880595
3.4009999999997365,0.2732408855857671,-0.206039765033242
3.6009999999997144,0.2768895312629791,-0.24114559083761883
3.8009999999996924,0.2760674876250264,-0.2740893345578563
4.000999999999671,0.26833192130209477,-0.3139449743781751
4.200999999999738,0.26366796604513854,-0.3551634060367623
4.400999999999804,0.25564552327311996,-0.39808448549545317
4.600999999999871,0.24057923341416146,-0.44328020094581927
4.800999999999938,0.22291780811444264,-0.4915043883663033
5.000000000000004,0.21202733359885229,-0.5338696606622533
5.200000000000071,0.207302798524184,-0.5710704029367354
5.400000000000138,0.20362593895782855,-0.6106784193533544
5.600000000000205,0.19917721516499337,-0.654859062927836
5.800000000000272,0.18306205220556365,-0.7045154833192239
6.000000000000338,0.14551614323344764,-0.7574367677992098
6.200000000000405,0.09935387515777107,-0.7960713377453802
6.400000000000472,0.04990904987832405,-0.8089885595089685
6.600000000000539,0.0006276499274744877,-0.8046395070931056
6.800000000000606,-0.055964547894350666,-0.7882822741428682
7.000000000000672,-0.11091566662394058,-0.7700713443132262
7.200000000000739,-0.16010063830116475,-0.739942337032512
7.400000000000806,-0.19454332331489085,-0.7041449668812227
7.600000000000873,-0.20963952493459148,-0.6682523674123337
7.8000000000009395,-0.20966219331459846,-0.6384827127389532
8.000000000001005,-0.2117220605378139,-0.6041918428507276
8.200000000000895,-0.21133178221514168,-0.5674431622226532
8.400000000000784,-0.19874240075683633,-0.5321222619746118
8.600000000000673,-0.18645462059523912,-0.5020316866082781
8.800000000000562,-0.172603898907029,-0.47056730594521823
9.000000000000451,-0.14413612663126024,-0.4429931230412318
9.20000000000034,-0.10930846042481238,-0.42170135899827704
9.40000000000023,-0.0705926495405523,-0.4138010712817505
9.600000000000119,-0.020901331941192224,-0.42382435518843137
9.800000000000008,0.028751952586252724,-0.4334482393649982
10.000999999999896,0.0667779010702418,-0.45770234889644357
10.200999999999786,0.0871607998532126,-0.4944976534343795
10.400999999999675,0.09317665397725852,-0.5374601038818954
10.600999999999564,0.07928426804165215,-0.5937285595442481
10.800999999999453,0.06366820026194245,-0.6461692570289713
11.000999999999342,0.04524520124512678,-0.6974030616191428
11.200999999999231,0.01187441494936412,-0.7522429394553906
11.40099999999912,-0.014802891825608002,-0.8059547660535011
11.60099999999901,-0.042083909691783807,-0.843747499480476
11.800999999998899,-0.06984693159990522,-0.8672978615726274
12.000999999998788,-0.10644283022304869,-0.8774011508219381
12.200999999998677,-0.15015477378130987,-0.8717619397262045
12.400999999998566,-0.19537726265858402,-0.8583369797174245
12.600999999998455,-0.23562913198634391,-0.8417022727124803
12.800999999998345,-0.2651986752183541,-0.8124625994362309
13.000999999998234,-0.2844240643412552,-0.7864775437147236
13.200999999998123,-0.2980763653276425,-0.7620426896212424
13.400999999998012,-0.301252285023125,-0.7256678032076652
13.600999999997901,-0.2963658880986817,-0.6831646608827138
13.80099999999779,-0.29521826440263266,-0.63916980425169
14.00099999999768,-0.29268207617831554,-0.5940494702688667
14.200999999997569,-0.27515928253553806,-0.5448816760284095
14.400999999997458,-0.2415604629721483,-0.4994308300350374
14.600999999997347,-0.20268281671399402,-0.4689747977298946
14.800999999997236,-0.1568727378917202,-0.4489411401545347
15.000999999997125,-0.09452080217163145,-0.4423796938226355
15.200999999997014,-0.03900171757361104,-0.4527504879788454
15.400999999996904,0.00984783652785387,-0.46788991804199154
15.600999999996793,0.044212642919894636,-0.49584354917673124
15.800999999996682,0.06312375697267776,-0.5231037233708238
16.000999999996573,0.06807910941178294,-0.5620395355816231
16.200999999996817,0.06083720702149563,-0.612281023519293
16.40099999999706,0.0494826554391409,-0.6686077382057648
16.600999999997306,0.02219132061895913,-0.7252332705448274
16.80099999999755,-0.008584286936315235,-0.7757625858513012
17.000999999997795,-0.059429621320882295,-0.8059762903853745
17.20099999999804,-0.11657036244263998,-0.8079333514749576
17.400999999998284,-0.1712620265412213,-0.7946487501029981
17.60099999999853,-0.22055586058008408,-0.7790274965453395
17.800999999998773,-0.2738963745715827,-0.7551251526711433
18.000999999999017,-0.32538039379219863,-0.7134967780636429
18.20099999999926,-0.3671576034873354,-0.6742527682846171
18.400999999999506,-0.3903592276400994,-0.6355154267799095
18.60099999999975,-0.3961144122548109,-0.5829590218411206
18.799999999999994,-0.39618585496526276,-0.532192537504306
19.000000000000238,-0.38079209625448524,-0.4753118769350796
19.200000000000482,-0.3587855449059765,-0.42470817458444576
19.400000000000727,-0.34050156053174296,-0.37831755947587803
19.60000000000097,-0.3011365338956462,-0.3360888751490135
19.800000000001216,-0.26380534426185104,-0.31285578912137874
20.00000000000146,-0.2206850749942755,-0.3069562942335255
