Time (s),X (m),Y (m)
0.001,-0.0007489004572251305,0.00035268032603768894
0.20000000000000015,0.008224890856444919,-0.002456470530562592
0.4000000000000003,0.020483568226041634,-0.005824977323343811
0.6000000000000004,0.030352169744120347,-0.010477202647825293
0.8000000000000006,0.04887369909348447,-0.021490222944088182
1.0000000000000007,0.07200012851093184,-0.028107595386002132
1.2009999999999785,0.10169546946115741,-0.039631995673118585
1.4009999999999565,0.13518256898471362,-0.05827266561796566
1.6009999999999345,0.17686599051416607,-0.07862815377506878
1.8009999999999124,0.2190754794841944,-0.10882593259197766
2.0009999999998906,0.25279196519372193,-0.1472094182317411
2.2009999999998686,0.26892121278775766,-0.19017048062735228
2.4009999999998466,0.2683818405602558,-0.23508559107068688
2.6009999999998246,0.26227013091507434,-0.2796155202949526
2.8009999999998025,0.2566972195971251,-0.3215731506136584
3.0009999999997805,0.2504316500323987,-0.3677251985336105
3.2009999999997585,0.2353262357154199,-0.4068053012818629
3.4009999999997365,0.21312835858245516,-0.4398387511939062
3.6009999999997144,0.1881941836755271,-0.45844907110900895
3.8009999999996924,0.145658420645495,-0.4655825643909393
4.000999999999671,0.09900659140254549,-0.46143838774414886
4.200999999999738,0.055142389107576885,-0.4382724707969811
4.400999999999804,0.022613681964091192,-0.3965279087886723
4.600999999999871,0.002647303368808973,-0.3656371235156664
4.800999999999938,-0.005001605850214918,-0.32970027223176435
5.000000000000004,0.004479425343884833,-0.2809974253190429
5.200000000000071,0.026263974347086876,-0.21409400555244382
5.400000000000138,0.047808317370858666,-0.1493051374038262
5.600000000000205,0.06330375735214185,-0.09641457073698985
5.800000000000272,0.07970894458548287,-0.04527844171686207
6.000000000000338,0.09849556612468681,0.01146879006796731
6.200000000000405,0.11884538425743324,0.07690799731361879
6.400000000000472,0.1502942255649585,0.14934555431182148
6.600000000000539,0.1813681727920858,0.22412819193661587
6.800000000000606,0.2151366811062042,0.28620934097806255
7.000000000000672,0.2503770114096525,0.3260936609017845
7.200000000000739,0.30374697860725847,0.33357283698135526
7.400000000000806,0.3598864229158582,0.3228573185156053
7.600000000000873,0.4140080566453486,0.29375931012465134
7.8000000000009395,0.46313643695987533,0.2574923272750275
8.000000000001005,0.5033850171075763,0.24003466273007276
8.200000000000895,0.5270569543265191,0.23428037566536153
8.400000000000784,0.5264636050904808,0.2042121778548606
8.600000000000673,0.5078188781245556,0.16058766413804462
8.800000000000562,0.47967246634441546,0.09684537052854683
9.000000000000451,0.4566866438407051,0.032184547648148314
9.20000000000034,0.4251377914417063,-0.03737825112049112
9.40000000000023,0.39410915776369554,-0.10637665796496
9.600000000000119,0.35183656762149157,-0.1660060052796275
9.800000000000008,0.2989225996355842,-0.2265791048078876
10.000999999999896,0.2469741718012132,-0.27651644569331657
10.200999999999786,0.20542562985623192,-0.30742876474838043
10.400999999999675,0.16189857618003534,-0.3158689676415102
10.600999999999564,0.11314975925304191,-0.31386684524688263
10.800999999999453,0.06052871813370337,-0.30827425233369843
11.000999999999342,0.009334056562319403,-0.2827680560903571
11.200999999999231,-0.025927847126260832,-0.2519800562754888
11.40099999999912,-0.03572579824226565,-0.21372763076242288
11.60099999999901,-0.024509645955469707,-0.16878815091245516
11.800999999998899,-0.010479288335595267,-0.11662432820499534
12.000999999998788,0.008942257614010374,-0.0700110092971682
12.200999999998677,0.055634991170842064,-0.01738674594895986
12.400999999998566,0.10717181879155212,0.02975641514684509
12.600999999998455,0.1749482064529414,0.054819388617798136
12.800999999998345,0.2405704578477462,0.05947259928893441
13.000999999998234,0.3033380208334112,0.04377989902546017
13.200999999998123,0.36473245436042767,0.01577946116376964
13.400999999998012,0.4096020179061073,-0.029782669453668937
13.600999999997901,0.43218453329378964,-0.07817433101177455
13.80099999999779,0.4369348800281852,-0.12730576543295694
14.00099999999768,0.4178316517633559,-0.17209583117976632
14.200999999997569,0.381371820324918,-0.19426172608286774
14.400999999997458,0.3385619317928031,-0.19880694073893387
14.600999999997347,0.29166265324817114,-0.18635170324776046
14.800999999997236,0.2418989394938254,-0.16189968896091603
15.000999999997125,0.19482872141525828,-0.13915230983758886
15.200999999997014,0.17442259283574216,-0.10703652273385304
15.400999999996904,0.18236415540240042,-0.0629297051536659
15.600999999996793,0.20271091010606704,-0.013539809460190323
15.800999999996682,0.22820453714033329,0.0312763145395467
16.000999999996573,0.24874043656569705,0.07869391190749354
16.200999999996817,0.2779343253018398,0.11612394186155227
16.40099999999706,0.32208281730538363,0.13139466889662668
16.600999999997306,0.3764324310569288,0.12760327125431845
16.80099999999755,0.4413732034977339,0.10279461172959958
17.000999999997795,0.512673354222616,0.0726522958705439
17.20099999999804,0.5819081320432751,0.04027633021188747
17.400999999998284,0.6413113589302,0.0019933428135641353
17.60099999999853,0.6834386441481337,-0.0288433437874827
17.800999999998773,0.7060889169011623,-0.06586827050525637
18.000999999999017,0.7025981699274808,-0.11700813727774073
18.20099999999926,0.6858637910510618,-0.17554296281477835
18.400999999999506,0.6622266396632437,-0.22857337189371868
18.60099999999975,0.6212544426702454,-0.2714504559170226
18.799999999999994,0.5617028379890397,-0.28762151222917665
19.000000000000238,0.49448488443927097,-0.27062432123223773
19.200000000000482,0.4316091865112984,-0.24490845645737377
19.400000000000727,0.3749171898138414,-0.2124535792829376
19.60000000000097,0.3247847243944636,-0.17677796945028665
19.800000000001216,0.2873893429077181,-0.1311564233686349
20.00000000000146,0.26925160201073867,-0.08972944085476439
