Time (s),X (m),Y (m)
0.001,-4.680521708071185e-05,-0.0009960320817112695
0.20000000000000015,0.0036835414860111387,0.0028224350862147084
0.4000000000000003,0.022216450030083747,0.01343345278609997
0.6000000000000004,0.05360361217312861,0.020400523702241827
0.8000000000000006,0.09237193215831566,0.04277651556086987
1.0000000000000007,0.13315672992482463,0.06144471420923907
1.2009999999999785,0.17601744594869184,0.06835063529583323
1.4009999999999565,0.22558878033414023,0.06848614751121326
1.6009999999999345,0.27884494476058586,0.06927459274648116
1.8009999999999124,0.33554281553877047,0.06985792865223234
2.0009999999998906,0.39660006845202067,0.08361437391911639
2.2009999999998686,0.46443168011607044,0.09998938814451827
2.4009999999998466,0.528939982853696,0.11582708459794777
2.6009999999998246,0.5994932661929336,0.1249890238201311
2.8009999999998025,0.6593262026085897,0.11529969183748956
3.0009999999997805,0.7056414609101735,0.08267728717893143
3.2009999999997585,0.7683054193898371,0.036247015751069825
3.4009999999997365,0.8335845213597574,-0.024223837121874345
3.6009999999997144,0.8813854133808077,-0.08917063100137754
3.8009999999996924,0.9128442039494494,-0.1530859606069267
4.000999999999671,0.9297571527144673,-0.2315646374329728
4.200999999999738,0.9249765739008645,-0.3077295692501823
4.400999999999804,0.8971803913114754,-0.356816895616895
4.600999999999871,0.8670403337830557,-0.3775773552380368
4.800999999999938,0.8357796906464836,-0.3903544642674217
5.000000000000004,0.7982602573571405,-0.39335180951411386
5.200000000000071,0.755537538801259,-0.36791061331354646
5.400000000000138,0.6968211111494476,-0.32827843453131467
5.600000000000205,0.6608672867287659,-0.28307999585216054
5.800000000000272,0.634283278434625,-0.23429311553086507
6.000000000000338,0.6161013074957055,-0.18231165033960284
6.200000000000405,0.6087642098622685,-0.10990606651486015
6.400000000000472,0.5876935091340718,-0.02476764971445655
6.600000000000539,0.5600436149499416,0.0759443528588702
6.800000000000606,0.5343708743859487,0.18634566515681641
7.000000000000672,0.5142599040790624,0.28555308568789983
7.200000000000739,0.502648907509692,0.3780486008930494
7.400000000000806,0.48719443180682953,0.46537876510943965
7.600000000000873,0.47760968843381896,0.5488100178927467
7.8000000000009395,0.48649346081063827,0.6231453617066613
8.000000000001005,0.5258731984388729,0.6838325722357362
8.200000000000895,0.5923146272687286,0.7249325150174281
8.400000000000784,0.678196791758497,0.7516892731334771
8.600000000000673,0.772636218693046,0.7749061562401052
8.800000000000562,0.861444350623381,0.813256188574055
9.000000000000451,0.9444945271065498,0.8427862998924299
9.20000000000034,1.0141203066902107,0.878279705356872
9.40000000000023,1.0813247352363207,0.9253586863453875
9.600000000000119,1.166812535940398,0.972748854509463
9.800000000000008,1.2544093966103087,1.0101135020232883
10.000999999999896,1.3403572429383934,1.0331420632105943
10.200999999999786,1.4401863767649146,1.047816947028122
10.400999999999675,1.538950848416833,1.0591117365435976
10.600999999999564,1.6117156975056084,1.0547381050094684
10.800999999999453,1.675893518973532,1.0186814080836781
11.000999999999342,1.72395960866209,0.9644831996543843
11.200999999999231,1.7575704925472888,0.8989147827994156
11.40099999999912,1.8020476311324665,0.830447854848115
11.60099999999901,1.853625364274841,0.7598952700925984
11.800999999998899,1.9190249207450227,0.7036171904652446
12.000999999998788,1.9846952762818517,0.6506286812134777
12.200999999998677,2.053394224255463,0.603463995958055
12.400999999998566,2.109052433044848,0.5481774544348307
12.600999999998455,2.1635364724976798,0.4841455787224308
12.800999999998345,2.242088900514778,0.4368096575428529
13.000999999998234,2.3239753309381217,0.4016272597615564
13.200999999998123,2.398318227364635,0.35077126431004474
13.400999999998012,2.467015687263813,0.2876493457372547
13.600999999997901,2.5539749508244873,0.24071290322011887
13.80099999999779,2.6481212314127243,0.207735272612268
14.00099999999768,2.7275402912114295,0.18790543974835314
14.200999999997569,2.796496595134804,0.15774676766885795
14.400999999997458,2.8633980992517793,0.11032366497196523
14.600999999997347,2.920019087339978,0.051283787468399566
14.800999999997236,2.9672823742547547,-0.024572880848008707
15.000999999997125,3.002292743935895,-0.11088038971146
15.200999999997014,3.0112996704634045,-0.18743411440669358
15.400999999996904,2.989077057211514,-0.24467170225454482
15.600999999996793,2.9475870857894924,-0.2976074920950887
15.800999999996682,2.891529009758279,-0.3594641003372532
16.000999999996573,2.837346002559009,-0.43028956847570865
16.200999999996817,2.7622164263891835,-0.49532021872304016
16.40099999999706,2.6752456140599383,-0.55017410608457
16.600999999997306,2.586341109817429,-0.6056081168990141
16.80099999999755,2.4991158624335483,-0.6664984404935499
17.000999999997795,2.409650247038255,-0.7232701780284616
17.20099999999804,2.3189048936503505,-0.7850400168111995
17.400999999998284,2.23027559065567,-0.8351124251222439
17.60099999999853,2.1421955277108746,-0.8630664716827355
17.800999999998773,2.063139826177208,-0.9016109410944475
18.000999999999017,2.0031700109014694,-0.9451751305838095
18.20099999999926,1.940944971182672,-1.0042279550642952
18.400999999999506,1.853546805133309,-1.0666261414315745
18.60099999999975,1.75735584235223,-1.1111176349897645
18.799999999999994,1.6617050025923512,-1.177595281723216
19.000000000000238,1.5776859573363444,-1.2431305428806907
19.200000000000482,1.5024974548865904,-1.3123184407535384
19.400000000000727,1.4197025742958864,-1.391505578583164
19.60000000000097,1.338433349903001,-1.469622654022
19.800000000001216,1.254394784247398,-1.5596525296455956
20.00000000000146,1.1778759192211015,-1.652419855802209
