Time (s),X (m),Y (m)
0.001,-0.0006729371591054965,0.000515584144559974
0.20000000000000015,-0.0003807554341215831,0.0019248083947048201
0.4000000000000003,0.001307786342656017,0.002257096800976975
0.6000000000000004,0.00436051902486277,0.002061423014422367
0.8000000000000006,0.007240418752616799,0.0054727886909351885
1.0000000000000007,0.02506709318850116,0.015525818402039607
1.2009999999999785,0.05606922461048949,0.00944215287004767
1.4009999999999565,0.09664474015861081,-0.012488247558775045
1.6009999999999345,0.14264090571390778,-0.03484881692320685
1.8009999999999124,0.1851386089068616,-0.0651904137303045
2.0009999999998906,0.22242420186171638,-0.08663437687627698
2.2009999999998686,0.24997035990256616,-0.12276349447848812
2.4009999999998466,0.26670633467788807,-0.16069011554907328
2.6009999999998246,0.2806328581919555,-0.1964419161018912
2.8009999999998025,0.27419413987816665,-0.23773553189202826
3.0009999999997805,0.24358664030767732,-0.2825900188333939
3.2009999999997585,0.18961829134402608,-0.32341884150187183
3.4009999999997365,0.1281107284375966,-0.3520513914909158
3.6009999999997144,0.06389576835981123,-0.36176872524753495
3.8009999999996924,0.0037687311214133286,-0.35740337107114334
4.000999999999671,-0.051395706442848604,-0.35241526504000553
4.200999999999738,-0.09407498576757775,-0.32391583744910724
4.400999999999804,-0.11837176250144824,-0.2854931271489099
4.600999999999871,-0.13145225647056136,-0.25219253573345235
4.800999999999938,-0.13846283236692694,-0.21849077456806532
5.000000000000004,-0.12304014679681642,-0.18054774423358824
5.200000000000071,-0.08464501128166455,-0.14698449584267545
5.400000000000138,-0.04380448413267449,-0.12513497456128894
5.600000000000205,-0.009804815816028966,-0.11268464556932105
5.800000000000272,0.03165365404768014,-0.11137488870203555
6.000000000000338,0.08197272808035766,-0.12643681571330254
6.200000000000405,0.13505997341727197,-0.14486615965231367
6.400000000000472,0.18944037016974577,-0.1677119599439761
6.600000000000539,0.25007075838297144,-0.20516820748277945
6.800000000000606,0.29894393719871004,-0.24967896173858709
7.000000000000672,0.3313822145895298,-0.29261708095714994
7.200000000000739,0.3411887796481279,-0.3406940457191377
7.400000000000806,0.33332318458859655,-0.39544125262595675
7.600000000000873,0.30660842715815606,-0.44087049889409413
7.8000000000009395,0.26342645767593675,-0.4629878144269828
8.000000000001005,0.2292960625153569,-0.4562659329114342
8.200000000000895,0.21715074919659227,-0.4353247409929439
8.400000000000784,0.23554489850358548,-0.39395317013102255
8.600000000000673,0.2581712098010397,-0.3487665725098535
8.800000000000562,0.27373493689341116,-0.3131710443350608
9.000000000000451,0.31011023311935304,-0.29559824240625354
9.20000000000034,0.35955520518839656,-0.30377177510754755
9.40000000000023,0.40679409155126495,-0.3249970846778502
9.600000000000119,0.4383686765171738,-0.3568247406296344
9.800000000000008,0.4458567514102065,-0.40251257819232417
10.000999999999896,0.4313983633447037,-0.45728874553092114
10.200999999999786,0.4086645899363956,-0.5124923218008922
10.400999999999675,0.3769516243914512,-0.5554439519501663
10.600999999999564,0.33040270958460394,-0.5710903490990709
10.800999999999453,0.2828510420152371,-0.5697159677335908
11.000999999999342,0.23545757962049382,-0.5599023509521703
11.200999999999231,0.18065077126443727,-0.5430493492015136
11.40099999999912,0.12768331062373675,-0.5181921083853993
11.60099999999901,0.09114286045398504,-0.4738925017056098
11.800999999998899,0.07525580499989246,-0.4292842444445118
12.000999999998788,0.0790833176695971,-0.3718084836550741
12.200999999998677,0.0891948064931867,-0.3115560218471209
12.400999999998566,0.09504802963845459,-0.25650060560970644
12.600999999998455,0.11059858036073404,-0.1929865700760736
12.800999999998345,0.12672425337404852,-0.13416933350049676
13.000999999998234,0.1573409745333999,-0.08768412332063477
13.200999999998123,0.19828321456999926,-0.0595050815710066
13.400999999998012,0.25398765920004385,-0.057416430205409735
13.600999999997901,0.30980203777727716,-0.07389972664828849
13.80099999999779,0.3577297787947574,-0.0995506474459157
14.00099999999768,0.38455295795541705,-0.14192833930825688
14.200999999997569,0.3958871422783408,-0.19983589439600277
14.400999999997458,0.39480034469533504,-0.26083212543439127
14.600999999997347,0.3735960558792741,-0.3103979495415458
14.800999999997236,0.3332093464334431,-0.36207692654008583
15.000999999997125,0.29171081135005267,-0.4143962524734
15.200999999997014,0.2490315580771515,-0.45890284140954857
15.400999999996904,0.202538036820342,-0.48771218748398504
15.600999999996793,0.13792614044617757,-0.48476223065566204
15.800999999996682,0.07104000270069667,-0.4677303862949699
16.000999999996573,0.00676114988671378,-0.45213383117100997
16.200999999996817,-0.06242174374237908,-0.41730514528354123
16.40099999999706,-0.126559210047835,-0.37778917232883813
16.600999999997306,-0.1698060301908443,-0.32665593428838896
16.80099999999755,-0.18556385296425523,-0.27215205003707515
17.000999999997795,-0.16839609604305697,-0.20845625780614754
17.20099999999804,-0.13472217931087532,-0.14478792385539574
17.400999999998284,-0.09876057053203884,-0.10083733109733393
17.60099999999853,-0.0611286324544619,-0.08135256117327391
17.800999999998773,-0.021658739241337027,-0.09107958901116406
18.000999999999017,0.005317406533162373,-0.11116971021862518
18.20099999999926,0.021141981364132152,-0.1441119168044656
18.400999999999506,0.027496134303130724,-0.19943177058333522
18.60099999999975,0.024045007310785644,-0.2590475258435876
18.799999999999994,0.0027986402552563133,-0.3284879549263195
19.000000000000238,-0.019622349380766867,-0.4004759571101858
19.200000000000482,-0.047832354483842265,-0.46498932922474584
19.400000000000727,-0.08161500712195632,-0.513702864560521
19.60000000000097,-0.12111959079813749,-0.5332631661654502
19.800000000001216,-0.16709545753122304,-0.5263914593816829
20.00000000000146,-0.21161238643635352,-0.5004175219876678
