Time (s),X (m),Y (m)
0.001,0.0008115346074009382,0.0008446836120385872
0.20000000000000015,0.0019569598628585926,-0.00038629552969463547
0.4000000000000003,0.016559305694561297,0.006909182165263764
0.6000000000000004,0.04422725010836127,0.015581007429214663
0.8000000000000006,0.08530039224450771,0.024725872127198983
1.0000000000000007,0.12805619485643152,0.034818408729565424
1.2009999999999785,0.1608331897744626,0.042182366489919805
1.4009999999999565,0.2093503887378887,0.040132326728196686
1.6009999999999345,0.2569818523360546,0.031042144047151048
1.8009999999999124,0.28875417227187994,0.01892404098757898
2.0009999999998906,0.32680430762145946,-0.00031968116107551815
2.2009999999998686,0.37758758247991414,-0.024387364843383753
2.4009999999998466,0.4420238203086615,-0.05543510981559966
2.6009999999998246,0.5008572614266006,-0.09138347392163143
2.8009999999998025,0.5480756634808464,-0.12598018896042507
3.0009999999997805,0.5765657121944945,-0.17206954770003538
3.2009999999997585,0.6016474892037755,-0.21670652142134386
3.4009999999997365,0.6356321831015284,-0.2588581671478232
3.6009999999997144,0.6723172730725313,-0.29721418146416007
3.8009999999996924,0.7042374807749663,-0.3325675573010299
4.000999999999671,0.7544392380453162,-0.3723639281917897
4.200999999999738,0.823405333508833,-0.40373631954658984
4.400999999999804,0.8874033496093967,-0.42480776381867663
4.600999999999871,0.938544198879994,-0.440259629465941
4.800999999999938,1.0070744799617826,-0.46174119348550885
5.000000000000004,1.0765252407107935,-0.4937429544953547
5.200000000000071,1.1376385399186022,-0.5342324914607286
5.400000000000138,1.2133564693772676,-0.5862097785355994
5.600000000000205,1.274614308614638,-0.6353830905449488
5.800000000000272,1.3248202703418328,-0.6856686241636629
6.000000000000338,1.3643779394585613,-0.7410463776690868
6.200000000000405,1.407193430693139,-0.8102005394895503
6.400000000000472,1.433727002639321,-0.8779165135200496
6.600000000000539,1.4605499603706518,-0.950293776706726
6.800000000000606,1.4912723748455772,-1.0245617314061044
7.000000000000672,1.519925750019747,-1.103850035402602
7.200000000000739,1.5452823000911375,-1.191181554501254
7.400000000000806,1.5670110037306586,-1.271872819749486
7.600000000000873,1.5844341498283592,-1.3571514125760664
7.8000000000009395,1.5762897370228433,-1.4303244934846258
8.000000000001005,1.5447905856041266,-1.4769655668101087
8.200000000000895,1.4986211852552922,-1.504451665699547
8.400000000000784,1.4528576704601721,-1.5099484598376207
8.600000000000673,1.4171922141390674,-1.4968552552943526
8.800000000000562,1.3498756347730223,-1.4846807466425376
9.000000000000451,1.2806530006082446,-1.4763355539750214
9.20000000000034,1.2251492256168068,-1.4464755922282706
9.40000000000023,1.180284558101512,-1.415259237979679
9.600000000000119,1.126607233472166,-1.3893940923305872
9.800000000000008,1.0779240813454234,-1.3537183271786648
10.000999999999896,1.034050120869778,-1.3013458333984682
10.200999999999786,0.9911740825631008,-1.233365271851585
10.400999999999675,0.9540220146278879,-1.1642495310658114
10.600999999999564,0.9079824863120188,-1.0962771788737473
10.800999999999453,0.8558659784243114,-1.026993769983271
11.000999999999342,0.8029915351464142,-0.9497489897058214
11.200999999999231,0.7460114875685364,-0.8664129843105622
11.40099999999912,0.6817589825663855,-0.7824870347879846
11.60099999999901,0.6081195415319076,-0.6981016408703615
11.800999999998899,0.5341706210443117,-0.6165462460246904
12.000999999998788,0.4721588667402222,-0.538160237075859
12.200999999998677,0.4176827500947625,-0.45892157121886856
12.400999999998566,0.3744387854427972,-0.38461695214224534
12.600999999998455,0.35577786186398125,-0.31264607081063683
12.800999999998345,0.36037398750011,-0.24057453446413704
13.000999999998234,0.39559886606890915,-0.16743378185196214
13.200999999998123,0.45011717718940863,-0.09440974717563616
13.400999999998012,0.5168697984928893,-0.029334384929382187
13.600999999997901,0.5834243193144366,0.030960498642605253
13.80099999999779,0.6536325366698247,0.09654539234510416
14.00099999999768,0.7203055232528345,0.15061963039136542
14.200999999997569,0.7799578992151337,0.21540535005473305
14.400999999997458,0.8397003701790321,0.27585245154125787
14.600999999997347,0.8894955925002084,0.33986165229655213
14.800999999997236,0.9409419719842312,0.4135489484157963
15.000999999997125,0.9950282386806362,0.4645096694128162
15.200999999997014,1.0569120463680193,0.5073235755798052
15.400999999996904,1.1277910019424957,0.5535775096436852
15.600999999996793,1.2054228182756561,0.6000075752184209
15.800999999996682,1.2785631675671643,0.6402825207599777
16.000999999996573,1.3532513002603808,0.7023335412503012
16.200999999996817,1.4231242040931662,0.7734967907530095
16.40099999999706,1.4868558528004474,0.8435800370014354
16.600999999997306,1.5446629053306478,0.9194118504436325
16.80099999999755,1.597266614583499,0.9911387461648955
17.000999999997795,1.6467001704424407,1.0669085587921037
17.20099999999804,1.705146367873782,1.1354977852473673
17.400999999998284,1.7733259312084344,1.2135249891093876
17.60099999999853,1.8505330178279131,1.2761747418154368
17.800999999998773,1.9284080912733155,1.3265352994240611
18.000999999999017,2.010574430579656,1.3628955030336516
18.20099999999926,2.1008822976288615,1.4063916615352998
18.400999999999506,2.197852938571808,1.4575576555369552
18.60099999999975,2.2939697517928512,1.5089597518526996
18.799999999999994,2.390945369575378,1.5550446211461073
19.000000000000238,2.486157531513077,1.5965730352046104
19.200000000000482,2.5816982591771906,1.643163200953375
19.400000000000727,2.672019020859762,1.6840562640295857
19.60000000000097,2.7639871210329265,1.71828845588347
19.800000000001216,2.8632632650614327,1.7638691431876565
20.00000000000146,2.97006095788458,1.8231638059294408
