Time (s),X (m),Y (m)
0.001,0.0008829029745972832,-0.0007899207378008392
0.20000000000000015,0.0021594871293151977,-0.0007560470579320408
0.4000000000000003,0.009694040817469307,-0.00744433090008818
0.6000000000000004,0.012101579816794978,-0.009233375817047371
0.8000000000000006,0.013559645430209866,-0.009244206722231628
1.0000000000000007,0.015462956110816137,-0.010264848330636876
1.2009999999999785,0.017071816250358498,-0.011913829660909587
1.4009999999999565,0.018668322614312116,-0.013369097051574231
1.6009999999999345,0.019498381650109066,-0.01430446818290104
1.8009999999999124,0.020418590535544835,-0.015244583003011437
2.0009999999998906,0.021285043630972864,-0.016126408734417202
2.2009999999998686,0.02195783021675326,-0.016828358004781177
2.4009999999998466,0.022635635981039993,-0.017511342534088023
2.6009999999998246,0.02340040821754918,-0.018262172747556538
2.8009999999998025,0.024122014898116762,-0.018930601199982813
3.0009999999997805,0.024940567105482772,-0.019713641377961173
3.2009999999997585,0.02564733535402179,-0.020304099333126446
3.4009999999997365,0.026526423402162116,-0.021197039702928244
3.6009999999997144,0.02742843045908006,-0.02205026184558061
3.8009999999996924,0.028266469361922973,-0.02280084410598237
4.000999999999671,0.029177760851246855,-0.023713965376153875
4.200999999999738,0.030069212893328,-0.02455810070910135
4.400999999999804,0.03099286676673757,-0.025444501473796337
4.600999999999871,0.031954681376266475,-0.02640976045880813
4.800999999999938,0.03293633432671106,-0.027343153836200926
5.000000000000004,0.03382197712018526,-0.028101573274116845
5.200000000000071,0.0348235727385884,-0.029081652100907417
5.400000000000138,0.035806462655762226,-0.030013966219240767
5.600000000000205,0.036863313106110615,-0.031070063237899875
5.800000000000272,0.037938023904323444,-0.0320384426079571
6.000000000000338,0.039087023593015115,-0.033127147363001985
6.200000000000405,0.04016312745294462,-0.03407252948356092
6.400000000000472,0.04126474368036512,-0.035128849600937394
6.600000000000539,0.04236032981054292,-0.03611410331020263
6.800000000000606,0.04351193026304264,-0.03714979314415335
7.000000000000672,0.04458798281693388,-0.03809843555744892
7.200000000000739,0.04579252318735991,-0.039163145235374
7.400000000000806,0.04693045019450724,-0.040138737480205314
7.600000000000873,0.048074376029767184,-0.04118052337762578
7.8000000000009395,0.04912178338214459,-0.042018856422499334
8.000000000001005,0.05026168212055363,-0.04295996040300572
8.200000000000895,0.05139353225100382,-0.04391059014640223
8.400000000000784,0.052469008270725245,-0.04476003793211718
8.600000000000673,0.053717914588262215,-0.04574450511486184
8.800000000000562,0.054913911267766326,-0.04667417493123087
9.000000000000451,0.05605093796335574,-0.047544119340542056
9.20000000000034,0.05728698829323972,-0.04848453352302331
9.40000000000023,0.058440681541028175,-0.04932809932871666
9.600000000000119,0.0596281676055053,-0.050231376164727205
9.800000000000008,0.0608279716799671,-0.05107733625948489
10.000999999999896,0.06206575944679693,-0.05194997778601625
10.200999999999786,0.06325744187504506,-0.05276781330199357
10.400999999999675,0.0644307836611049,-0.053571104039202094
10.600999999999564,0.06570821574341532,-0.05443503879206852
10.800999999999453,0.06687705677605578,-0.05522781825346943
11.000999999999342,0.06805807762515216,-0.05600053524982876
11.200999999999231,0.06930650481641788,-0.056791885755263935
11.40099999999912,0.07055194400547829,-0.05755047426892691
11.60099999999901,0.07181475280684635,-0.05832717451464423
11.800999999998899,0.0729716377092596,-0.05899709710688092
12.000999999998788,0.07432421905420052,-0.05979665848201304
12.200999999998677,0.0755548826554795,-0.06049135657780176
12.400999999998566,0.07685698276664234,-0.061226463819020444
12.600999999998455,0.0780628539687139,-0.06186962301314476
12.800999999998345,0.07936158170684161,-0.06257814491467478
13.000999999998234,0.08059011362378017,-0.06323782677572179
13.200999999998123,0.08186672909671891,-0.06390466876102342
13.400999999998012,0.0831412685521048,-0.06454712095006351
13.600999999997901,0.08440025955442722,-0.06516821363564339
13.80099999999779,0.08566452438399437,-0.06578427429149619
14.00099999999768,0.0869369355704321,-0.06639636083134465
14.200999999997569,0.08821373465531758,-0.06698221960736411
14.400999999997458,0.08948701639191672,-0.06755509305198563
14.600999999997347,0.090664219780597,-0.06807533155192406
14.800999999997236,0.09199733960725838,-0.06865006368758385
15.000999999997125,0.09330543667805401,-0.06919277917823977
15.200999999997014,0.09465169503616734,-0.06973456185837992
15.400999999996904,0.0959367436087377,-0.07023460933562345
15.600999999996793,0.09732072577137296,-0.07076972373136232
15.800999999996682,0.09867649863098686,-0.07127213930846195
16.000999999996573,0.0999467275625324,-0.07174816678502509
16.200999999996817,0.10120876701531092,-0.07216146388545282
16.40099999999706,0.10263290614218772,-0.0726430757588858
16.600999999997306,0.10404451210472948,-0.07308643997806534
16.80099999999755,0.1054464605737304,-0.07352144310158645
17.000999999997795,0.10681134291739072,-0.07395826999342833
17.20099999999804,0.10812504089682924,-0.07431622012335364
17.400999999998284,0.10955938171930145,-0.07473809947659886
17.60099999999853,0.11090895038625291,-0.07510310214982727
17.800999999998773,0.11230734979614201,-0.07546687026888647
18.000999999999017,0.11368952695335133,-0.0758171391850887
18.20099999999926,0.11509874511509709,-0.07616162399038258
18.400999999999506,0.11650323663813321,-0.07649342645563267
18.60099999999975,0.11784291445372554,-0.07681535210047533
18.799999999999994,0.11923812782562092,-0.07711079137551112
19.000000000000238,0.12067164669979234,-0.0774045055698095
19.200000000000482,0.12202095345433284,-0.07769525637043954
19.400000000000727,0.12345132541342002,-0.07795206050279302
19.60000000000097,0.12483292795884085,-0.07823034890558689
19.800000000001216,0.12627177669141268,-0.07847711352234589
20.00000000000146,0.12764714174851796,-0.07872781951652692
