Time (s),X (m),Y (m)
0.001,0.0001302085367132322,-0.0010272443824616275
0.20000000000000015,0.004028288616301032,0.002135472624716045
0.4000000000000003,0.010957182294141986,-0.004320540583269256
0.6000000000000004,0.02065225431961249,-0.016199030716820717
0.8000000000000006,0.03773113064127386,-0.028677083024550888
1.0000000000000007,0.06335200041738595,-0.042553767601302986
1.2009999999999785,0.10071012599956954,-0.05928885657031872
1.4009999999999565,0.14330982902284745,-0.07787165832184158
1.6009999999999345,0.19423023947215767,-0.09565399263281708
1.8009999999999124,0.23598868252377728,-0.11793850292011918
2.0009999999998906,0.2872774224884877,-0.14194660833897402
2.2009999999998686,0.3025036147495909,-0.16813142372094797
2.4009999999998466,0.31832934592462614,-0.2041557083925648
2.6009999999998246,0.32189941982140585,-0.24829068048606656
2.8009999999998025,0.30708785848612247,-0.2853379034539869
3.0009999999997805,0.2835922800706303,-0.31737818970526466
3.2009999999997585,0.25619615134562074,-0.3546405544815484
3.4009999999997365,0.22835271502353907,-0.3892479614940252
3.6009999999997144,0.1999764470554334,-0.42721647648126615
3.8009999999996924,0.1690596574334721,-0.4697610615038801
4.000999999999671,0.123708548221465,-0.49471601001831994
4.200999999999738,0.07973268509486647,-0.4873979570483949
4.400999999999804,0.041681101193516486,-0.47174591421099826
4.600999999999871,0.012522393950583788,-0.44739873576702766
4.800999999999938,-0.013867680812598236,-0.40673542501016446
5.000000000000004,-0.025787018624793653,-0.3578037630476402
5.200000000000071,-0.01385051024286737,-0.3180737593759376
5.400000000000138,0.008451700313077617,-0.2770851905311859
5.600000000000205,0.03763490057421667,-0.23675798959643934
5.800000000000272,0.06196951254580066,-0.19331624024869934
6.000000000000338,0.09300291700926519,-0.1568124935755932
6.200000000000405,0.1286001845239969,-0.12083177867130857
6.400000000000472,0.16463388915771943,-0.0835038066249392
6.600000000000539,0.20379778579316354,-0.05418481489349788
6.800000000000606,0.24437829241637218,-0.019231917611828832
7.000000000000672,0.2913718226006358,-0.001075458955427855
7.200000000000739,0.3396778986656693,-0.0027262226419015067
7.400000000000806,0.3901300193340251,-0.0032771424573461065
7.600000000000873,0.44710372956002437,-0.00862572710073017
7.8000000000009395,0.5020597729696478,-0.021844953770537204
8.000000000001005,0.5685466413752115,-0.03431105653812942
8.200000000000895,0.6326551042229076,-0.05181409099231469
8.400000000000784,0.6930797531011502,-0.07158966622321634
8.600000000000673,0.7472950114406537,-0.0951656108172281
8.800000000000562,0.7833031155072552,-0.13105007942028304
9.000000000000451,0.7961133154747406,-0.18075921685501165
9.20000000000034,0.7958444535880581,-0.23337133857079254
9.40000000000023,0.7852917770933421,-0.28235541680783643
9.600000000000119,0.7707186964974266,-0.3234571924560057
9.800000000000008,0.7479418872781881,-0.335494119215917
10.000999999999896,0.7073764801812409,-0.3328915351460472
10.200999999999786,0.6607409008481678,-0.32364447899596704
10.400999999999675,0.6082373564898712,-0.3129073257754224
10.600999999999564,0.5481002130724019,-0.30829772529536476
10.800999999999453,0.4892080173569489,-0.2976389566050208
11.000999999999342,0.43229849929560515,-0.279372691894251
11.200999999999231,0.3760837350436331,-0.2594405094029436
11.40099999999912,0.32562243482986414,-0.23899956369112485
11.60099999999901,0.28695269594030276,-0.21373894878731003
11.800999999998899,0.25901666663593836,-0.17891142477321842
12.000999999998788,0.22089679193190542,-0.12821718369240612
12.200999999998677,0.2046405140804536,-0.06711092516919433
12.400999999998566,0.18085461119032212,-0.006066053810824338
12.600999999998455,0.18451584324992742,0.05339877785691372
12.800999999998345,0.17870132809194442,0.11296738101003874
13.000999999998234,0.16914559947747596,0.17704723413974754
13.200999999998123,0.15655379219155544,0.2407177373731239
13.400999999998012,0.15156174226918992,0.2999046693788444
13.600999999997901,0.1581992228091227,0.35101280153573344
13.80099999999779,0.1701149367921964,0.4006540278919237
14.00099999999768,0.1885551978349148,0.4489901431567233
14.200999999997569,0.21389987157642196,0.4981721681756966
14.400999999997458,0.23363517228244093,0.5566687709117829
14.600999999997347,0.235243809975877,0.6103632877176901
14.800999999997236,0.2294786153072088,0.6713972175604889
15.000999999997125,0.23186159607674467,0.7345278837818574
15.200999999997014,0.23473215471416298,0.7976860166571118
15.400999999996904,0.24597395567644392,0.8602905007680544
15.600999999996793,0.2685105551314373,0.8894434784969726
15.800999999996682,0.3080206366872303,0.9046320816599687
16.000999999996573,0.35221778426783584,0.9023113077346333
16.200999999996817,0.39803771354010153,0.8944859963357414
16.40099999999706,0.43035640175029916,0.8774296023429149
16.600999999997306,0.45369891818983954,0.8444373432464799
16.80099999999755,0.4658879161540665,0.7999840920467012
17.000999999997795,0.4712115150043435,0.747633038545001
17.20099999999804,0.4691163745793137,0.6894446452979318
17.400999999998284,0.4614312861671892,0.6313702669744973
17.60099999999853,0.4378198080317716,0.5805887013020415
17.800999999998773,0.42013801383660937,0.5259035153058181
18.000999999999017,0.4031151493941478,0.4670037167096649
18.20099999999926,0.37566160743188953,0.41813030327173367
18.400999999999506,0.33883330785839155,0.3797683006572025
18.60099999999975,0.2905731518965639,0.3643784398691109
18.799999999999994,0.23796891690630162,0.36464582371081194
19.000000000000238,0.19160138254084313,0.3838750604790562
19.200000000000482,0.13785858019374658,0.389911574519379
19.400000000000727,0.09360589374707541,0.4065799099511795
19.60000000000097,0.04718607922037142,0.42983769242099806
19.800000000001216,0.008633745194991244,0.45984248568657543
20.00000000000146,-0.019917965396742003,0.4939116930038536
