Time (s),X (m),Y (m)
0.001,0.0012161128565605834,0.00026688599193002506
0.20000000000000015,-0.0016271974028702378,-0.0006405852768548788
0.4000000000000003,0.0040169493177109735,0.00015058170366051652
0.6000000000000004,0.010727625201108914,0.00107397606133623
0.8000000000000006,0.016267206885751364,-0.00014759617740421635
1.0000000000000007,0.02482442403866835,-0.0017248276132555598
1.2009999999999785,0.033216785369984424,-0.006904426935564876
1.4009999999999565,0.03928703769845922,-0.01094234101500425
1.6009999999999345,0.055209127257828755,-0.00869848253907513
1.8009999999999124,0.06367014262712282,-0.011150897584864823
2.0009999999998906,0.07012472000761602,-0.017612366480577124
2.2009999999998686,0.07489298025760278,-0.01701801555493792
2.4009999999998466,0.085943437121644,-0.016924097506133454
2.6009999999998246,0.10082880232010431,-0.018131047380403515
2.8009999999998025,0.11447922874810093,-0.023624360015094617
3.0009999999997805,0.12441412542518952,-0.027833999288809298
3.2009999999997585,0.14877269470247592,-0.032306326286465445
3.4009999999997365,0.16967566063369538,-0.03987378999267277
3.6009999999997144,0.1966631780322487,-0.041994117206918216
3.8009999999996924,0.21031825210869778,-0.04710334030088355
4.000999999999671,0.23354043027327956,-0.047992704210609326
4.200999999999738,0.24734969316213548,-0.05354872642790088
4.400999999999804,0.2704415612295181,-0.05285432276306086
4.600999999999871,0.2892818674041476,-0.047784253015422475
4.800999999999938,0.2990192027275166,-0.05380979547457946
5.000000000000004,0.3201300728710087,-0.06527627827587801
5.200000000000071,0.3326328509188328,-0.07651010641758489
5.400000000000138,0.33509030562501096,-0.09099148091746144
5.600000000000205,0.3561807228437833,-0.1051713435268182
5.800000000000272,0.37203230673276516,-0.1137401025176997
6.000000000000338,0.3835982350648976,-0.12204469227239123
6.200000000000405,0.3974665700524789,-0.13094551786720116
6.400000000000472,0.40797076058522985,-0.1447805680642408
6.600000000000539,0.4288589636686683,-0.1551978784895858
6.800000000000606,0.45445031753583104,-0.16855653959037392
7.000000000000672,0.47705074515413265,-0.1837735771134805
7.200000000000739,0.49830370259879364,-0.20127690012870714
7.400000000000806,0.5217120294029225,-0.21773419661638654
7.600000000000873,0.5428206044600902,-0.23146070866038412
7.8000000000009395,0.551480995279816,-0.24127002368884104
8.000000000001005,0.5657671288049909,-0.254286598116799
8.200000000000895,0.5795213339996376,-0.26613692048862375
8.400000000000784,0.6025677924255992,-0.27739453284930676
8.600000000000673,0.6245536263487539,-0.2901709843907476
8.800000000000562,0.6543244885827205,-0.3041158618206256
9.000000000000451,0.6807228916090912,-0.31669606363866354
9.20000000000034,0.7099526833689931,-0.3320569879774196
9.40000000000023,0.7344585675509409,-0.3492012777363696
9.600000000000119,0.7582153617313647,-0.36386583310860976
9.800000000000008,0.7805327509451175,-0.3790150876139081
10.000999999999896,0.7968357820819685,-0.39063602592632407
10.200999999999786,0.8168905334693205,-0.3982025596044298
10.400999999999675,0.8330392522439486,-0.40652393647949836
10.600999999999564,0.8541514493438604,-0.4220574650042376
10.800999999999453,0.8781678462972449,-0.4376225050203657
11.000999999999342,0.8997231926768893,-0.4490615854256814
11.200999999999231,0.9118583425166531,-0.4602547826432097
11.40099999999912,0.9233690265969905,-0.47283997426045765
11.60099999999901,0.9482935814198351,-0.4866520122914791
11.800999999998899,0.9771940748001688,-0.507113721959893
12.000999999998788,0.9964708358416665,-0.5251735451867514
12.200999999998677,1.0084944325101663,-0.5362204911963595
12.400999999998566,1.0306997725654015,-0.5509615899462059
12.600999999998455,1.063086663985467,-0.5657195271933453
12.800999999998345,1.094106086096804,-0.586379194085614
13.000999999998234,1.1233394282932945,-0.605324842534528
13.200999999998123,1.1464659214342465,-0.6228239374636437
13.400999999998012,1.1655721752153112,-0.6429666235191717
13.600999999997901,1.1941768612698749,-0.6661613370499887
13.80099999999779,1.2144598464257967,-0.6862657346842164
14.00099999999768,1.2483509221194644,-0.7042453550073915
14.200999999997569,1.2695474154758648,-0.7192826135398679
14.400999999997458,1.285690770212783,-0.7346424667181523
14.600999999997347,1.30907453255008,-0.7431652796039258
14.800999999997236,1.3359540737607536,-0.762328337242115
15.000999999997125,1.352356172499923,-0.7828727161381817
15.200999999997014,1.367567486055211,-0.8029735583033695
15.400999999996904,1.3829325131673096,-0.8191937886750524
15.600999999996793,1.405919085741887,-0.8305922089424671
15.800999999996682,1.4137314574836826,-0.8390561521577994
16.000999999996573,1.432221782872932,-0.8470235190538621
16.200999999996817,1.445233202444716,-0.8572350338690298
16.40099999999706,1.465831804949332,-0.8619354503621359
16.600999999997306,1.4823150099158033,-0.8695196324796027
16.80099999999755,1.4925433402653003,-0.8794952636689786
17.000999999997795,1.5188120581226479,-0.8887631740217545
17.20099999999804,1.553511512076917,-0.9022184338127842
17.400999999998284,1.5842658754707515,-0.9126022776647283
17.60099999999853,1.6078656088659253,-0.9220128278555313
17.800999999998773,1.6392201072466128,-0.9384440827171115
18.000999999999017,1.6640607005372503,-0.9500854195924497
18.20099999999926,1.6933781453001915,-0.9638298468231935
18.400999999999506,1.7178741707763867,-0.9790712534720518
18.60099999999975,1.7351997928979388,-0.9877999811964032
18.799999999999994,1.7539540786666417,-1.00329326308271
19.000000000000238,1.77997762484837,-1.0193375942476315
19.200000000000482,1.8083917257149933,-1.0348346760693172
19.400000000000727,1.8436037996133405,-1.0554622731216285
19.60000000000097,1.8663462397949582,-1.0733957351104113
19.800000000001216,1.884595781893531,-1.0877367877946684
20.00000000000146,1.9036277302240674,-1.1034382450063214
