Time (s),X (m),Y (m)
0.001,-0.00013259955118837574,0.0009689812320744445
0.20000000000000015,0.00233987968865406,-0.0004117234264229449
0.4000000000000003,0.003356523131723805,0.006757249931093558
0.6000000000000004,0.005355222992429507,0.008561039128234213
0.8000000000000006,0.02226145995970399,0.003909857530255371
1.0000000000000007,0.0441307957062568,-0.015754421583587926
1.2009999999999785,0.07197205874586192,-0.042814256721790546
1.4009999999999565,0.10320988339775987,-0.07159234961606242
1.6009999999999345,0.12863617121928914,-0.1056591901522602
1.8009999999999124,0.1612867419435292,-0.14235902259156002
2.0009999999998906,0.19007371064506076,-0.1843247312494284
2.2009999999998686,0.20402764472592136,-0.22603999568582528
2.4009999999998466,0.19397812129741018,-0.2703601298780202
2.6009999999998246,0.16905184136454918,-0.3155063718320872
2.8009999999998025,0.12577245539776488,-0.3598752732892196
3.0009999999997805,0.0804388002907892,-0.4064125141946774
3.2009999999997585,0.02885336067991759,-0.44512121410644007
3.4009999999997365,-0.02859626319770374,-0.4682754163905774
3.6009999999997144,-0.08787223021237323,-0.48594338211810667
3.8009999999996924,-0.14386791335162463,-0.5021994779003924
4.000999999999671,-0.19544208932563772,-0.5124194016204544
4.200999999999738,-0.2476726747496652,-0.5082168436587322
4.400999999999804,-0.295020494159341,-0.4744628008240597
4.600999999999871,-0.34726717595869533,-0.44650330339356276
4.800999999999938,-0.3933638786250887,-0.4192365078409406
5.000000000000004,-0.44117870445970725,-0.3963782609700724
5.200000000000071,-0.4921267305318795,-0.369607083182022
5.400000000000138,-0.5375729458274839,-0.3336071796115356
5.600000000000205,-0.5747416945798829,-0.29475533020699485
5.800000000000272,-0.6075678982598033,-0.25339582778228636
6.000000000000338,-0.6416126231732431,-0.21083254539437965
6.200000000000405,-0.6780426777119535,-0.17520386178479766
6.400000000000472,-0.7100628062289566,-0.12190068302614566
6.600000000000539,-0.7472222260566477,-0.0778450642008448
6.800000000000606,-0.7818736616344836,-0.037083598356503336
7.000000000000672,-0.8116918556895084,0.0045229179644042
7.200000000000739,-0.8305482400933435,0.055749473178532793
7.400000000000806,-0.8531799122751887,0.10465337603285858
7.600000000000873,-0.8662883120604702,0.1582898672610908
7.8000000000009395,-0.8743290340730817,0.2163348107183881
8.000000000001005,-0.8672425043588968,0.26896552990319866
8.200000000000895,-0.8490837307619424,0.3185317260565257
8.400000000000784,-0.8200252130700869,0.36911317255299325
8.600000000000673,-0.787551927325657,0.41516039228190904
8.800000000000562,-0.7573171112038551,0.4571980794008443
9.000000000000451,-0.7168644798598762,0.4882368758469294
9.20000000000034,-0.6863732543596165,0.5284417314005638
9.40000000000023,-0.6428108540788582,0.5600594018599878
9.600000000000119,-0.6021089644059321,0.5902375221291396
9.800000000000008,-0.5560796177936604,0.6246482016615954
10.000999999999896,-0.508483327852647,0.6511766054922491
10.200999999999786,-0.4566808989208491,0.681668464849341
10.400999999999675,-0.40951486429643363,0.6886002743257472
10.600999999999564,-0.3613293495305529,0.6761213159396293
10.800999999999453,-0.3189765640481116,0.6459869968596457
11.000999999999342,-0.2807803525521067,0.6154892068386266
11.200999999999231,-0.2356015244316975,0.583635371552676
11.40099999999912,-0.1832308595736125,0.5502738392972308
11.60099999999901,-0.1322501953034662,0.5125333571231248
11.800999999998899,-0.08734487144672833,0.470009308610249
12.000999999998788,-0.05031159780587252,0.417325090627556
12.200999999998677,-0.025711871665869745,0.3555810337211581
12.400999999998566,0.0007953823042107089,0.3003004574274964
12.600999999998455,0.018873076117350153,0.24847653407176049
12.800999999998345,0.01571849902075374,0.19241910739129303
13.000999999998234,-0.0006115150586156802,0.1367982740396825
13.200999999998123,-0.02211224192515634,0.08329981597604362
13.400999999998012,-0.05511258236719061,0.03611264983761645
13.600999999997901,-0.09624145554598723,-0.009779656417834365
13.80099999999779,-0.1510601315657927,-0.040534367354895955
14.00099999999768,-0.20703172419424395,-0.05539178649365029
14.200999999997569,-0.2613744847266479,-0.04851781062630087
14.400999999997458,-0.31052222753189335,-0.03388883364719012
14.600999999997347,-0.35420895050819345,-0.005179504692841771
14.800999999997236,-0.39473411346303316,0.0365955245675376
15.000999999997125,-0.43502720436349823,0.07743997729379239
15.200999999997014,-0.4660719312914,0.12154742062860693
15.400999999996904,-0.5077809262779891,0.15437286230127395
15.600999999996793,-0.5447399734196248,0.19378540319455645
15.800999999996682,-0.5715065460870606,0.24294736115114057
16.000999999996573,-0.5935543111542689,0.29538338845035367
16.200999999996817,-0.6094555480449028,0.3509351220648476
16.40099999999706,-0.5931990446240941,0.4104688899752079
16.600999999997306,-0.5641865184012282,0.46643061221932225
16.80099999999755,-0.5354174538116147,0.5197687785674132
17.000999999997795,-0.5004590715236968,0.5747376946441617
17.20099999999804,-0.46368756461038524,0.6323635659287857
17.400999999998284,-0.4256501352439827,0.6821142720652886
17.60099999999853,-0.38362858827001367,0.7224187205875546
17.800999999998773,-0.3380287181917767,0.7552482981322572
18.000999999999017,-0.2917208770466404,0.7693956630667481
18.20099999999926,-0.24293264006965382,0.7598172951234036
18.400999999999506,-0.18763022785817896,0.7477591902054439
18.60099999999975,-0.12975602771264386,0.7383940209450914
18.799999999999994,-0.08000651201205147,0.7158517747841417
19.000000000000238,-0.03599510193909473,0.6772775285453463
19.200000000000482,0.008578375575991419,0.642361088971992
19.400000000000727,0.04861092524204744,0.6111038907674337
19.60000000000097,0.08944092232481517,0.5738415839750285
19.800000000001216,0.13151067022291862,0.5495851102803272
20.00000000000146,0.17002983293075086,0.5157872662493007
