Time (s),X (m),Y (m)
0.001,-0.0006246028371892732,-0.0005914538325516239
0.20000000000000015,0.004936233657565688,0.0010805283966767592
0.4000000000000003,0.018432621992119577,-0.002286135675832681
0.6000000000000004,0.03371113770768701,-0.007958458078527294
0.8000000000000006,0.04552824269797593,-0.00808971109680487
1.0000000000000007,0.06108689864418622,-0.013382206867105104
1.2009999999999785,0.076837505260739,-0.02835905438774548
1.4009999999999565,0.08750949012569086,-0.046216077360335804
1.6009999999999345,0.09154722117992081,-0.06793051940660488
1.8009999999999124,0.10454963195255754,-0.09820049797137197
2.0009999999998906,0.13301036318890946,-0.13856254557710573
2.2009999999998686,0.1716168636796616,-0.1838148514150595
2.4009999999998466,0.20844345050734825,-0.22905941849939684
2.6009999999998246,0.2354333145270442,-0.2736219195974063
2.8009999999998025,0.2698430828814766,-0.32277724930546653
3.0009999999997805,0.3004568394918732,-0.3703729623423091
3.2009999999997585,0.3318540476168025,-0.41664164006509546
3.4009999999997365,0.38052985778424575,-0.45636502696564846
3.6009999999997144,0.43060723223242875,-0.49405147855243164
3.8009999999996924,0.4728106411129368,-0.5386151887635205
4.000999999999671,0.5106566598858251,-0.5880925182619299
4.200999999999738,0.5431022485081358,-0.6522277360007516
4.400999999999804,0.5643440744341081,-0.7175752508196251
4.600999999999871,0.5707834729982739,-0.7890686789362468
4.800999999999938,0.5602539370445924,-0.8559454650917917
5.000000000000004,0.5281996878740425,-0.91819395486799
5.200000000000071,0.483547115653336,-0.980106209203593
5.400000000000138,0.4293894603411132,-1.0498540461297894
5.600000000000205,0.3745418645883226,-1.1151184499478735
5.800000000000272,0.3297329174914938,-1.17957505731757
6.000000000000338,0.30470247501678915,-1.2506820870486481
6.200000000000405,0.29521590027984407,-1.3381878794744992
6.400000000000472,0.29147794187877246,-1.4071036709340716
6.600000000000539,0.2791295745466417,-1.4666776739054654
6.800000000000606,0.24410736716212697,-1.5266210011048382
7.000000000000672,0.1912616296488504,-1.5829598562122988
7.200000000000739,0.12339112401227777,-1.6339526661931074
7.400000000000806,0.05186293773059536,-1.668444511138968
7.600000000000873,-0.01294510242136313,-1.6771694845144145
7.8000000000009395,-0.06413856974467451,-1.6605069064530151
8.000000000001005,-0.12326672033910253,-1.6208828083882243
8.200000000000895,-0.17904514088484785,-1.5681030186329254
8.400000000000784,-0.23607998456087473,-1.5054864053065689
8.600000000000673,-0.2938502382682875,-1.438060274769149
8.800000000000562,-0.3566842405328786,-1.362322964001323
9.000000000000451,-0.42154836692232833,-1.283884530532795
9.20000000000034,-0.4817557328831999,-1.20875147471293
9.40000000000023,-0.5320611554335956,-1.1306096685030431
9.600000000000119,-0.5652899960569997,-1.0630960623171646
9.800000000000008,-0.5816156702546603,-0.995051025743515
10.000999999999896,-0.587349893398544,-0.9293944206610466
10.200999999999786,-0.5856087152321366,-0.8628197401485735
10.400999999999675,-0.5690586351671019,-0.8102916806618897
10.600999999999564,-0.5355283862075599,-0.7676099059407282
10.800999999999453,-0.48429994523741576,-0.7183705379306351
11.000999999999342,-0.42019481935843284,-0.6644994909442602
11.200999999999231,-0.3514937845898068,-0.6229413656413513
11.40099999999912,-0.2919681029496715,-0.6035616034026201
11.60099999999901,-0.2244732186303855,-0.5973578622261451
11.800999999998899,-0.15911322250681495,-0.6061178421973181
12.000999999998788,-0.09393090023767289,-0.6385228400474467
12.200999999998677,-0.02996829430982251,-0.6858099343958312
12.400999999998566,0.031109482540372553,-0.7403441352297429
12.600999999998455,0.09084308674402618,-0.8016186696496913
12.800999999998345,0.14346836357011827,-0.8590401503158127
13.000999999998234,0.19532484193038588,-0.9255410440387453
13.200999999998123,0.2475380140995277,-1.007990706530837
13.400999999998012,0.29205627205667795,-1.0864670431688521
13.600999999997901,0.3137182780199458,-1.15729003737535
13.80099999999779,0.30287394723777006,-1.2285074985877291
14.00099999999768,0.2553460855789339,-1.3084467004853757
14.200999999997569,0.19157524877346457,-1.3778258601371691
14.400999999997458,0.13616192291018167,-1.4174710116582643
14.600999999997347,0.08885015850786686,-1.417942869401779
14.800999999997236,0.04334584953063143,-1.3933023428120896
15.000999999997125,0.00379273472950464,-1.3548235130437132
15.200999999997014,-0.032003826176512505,-1.314139519697079
15.400999999996904,-0.06219285148293501,-1.2803486090995775
15.600999999996793,-0.08739451509431147,-1.2408423934297494
15.800999999996682,-0.10356267832366209,-1.1922896163813441
16.000999999996573,-0.09652434273016987,-1.144615090318821
16.200999999996817,-0.07327348903474926,-1.1002015821859814
16.40099999999706,-0.040930701061882534,-1.065775714083918
16.600999999997306,0.01323540427925799,-1.0287427325458114
16.80099999999755,0.06768420384515718,-0.9905856399850952
17.000999999997795,0.1197470611641634,-0.9555206730147319
17.20099999999804,0.17873730465466395,-0.9333801586117876
17.400999999998284,0.24170394180975685,-0.9331771808562019
17.60099999999853,0.30703543755451845,-0.9674862469573672
17.800999999998773,0.36363247779496194,-1.009695358664244
18.000999999999017,0.4119549938914748,-1.0559333924124013
18.20099999999926,0.4573533581112093,-1.1163577174703354
18.400999999999506,0.49190140280828615,-1.1730889443059733
18.60099999999975,0.5151989587307195,-1.217577649078242
18.799999999999994,0.5202898301781399,-1.277714913225536
19.000000000000238,0.5052467727489355,-1.3295327305194542
19.200000000000482,0.4705803472118218,-1.3828199905716405
19.400000000000727,0.4338114511151694,-1.4276236294650138
19.60000000000097,0.39761500296031466,-1.4694207291439814
19.800000000001216,0.3603879169909659,-1.5244206024909068
20.00000000000146,0.3201460031238226,-1.6074472338681962
