Time (s),X (m),Y (m)
0.001,-0.0006246028371892732,0.000591453832551625
0.20000000000000015,-0.0018600149943833163,0.002493134740100342
0.4000000000000003,-0.00160600186755812,0.005441095913277615
0.6000000000000004,-0.00011547505444399437,0.0015738864764520476
0.8000000000000006,0.004238213628584189,-4.026392879848172e-05
1.0000000000000007,0.015087610607072288,-0.003995773340010556
1.2009999999999785,0.024999630313577884,-0.005067350473431217
1.4009999999999565,0.034090769244742795,-0.007168336126128294
1.6009999999999345,0.044857644456685136,-0.008653403825469995
1.8009999999999124,0.0471543913771298,-0.006589247543644649
2.0009999999998906,0.05227596217567689,-0.004431649272743544
2.2009999999998686,0.05611520672710695,-0.0019359361095148
2.4009999999998466,0.06389814447276884,-2.376946748890228e-06
2.6009999999998246,0.07318299876793813,0.0010313504792439782
2.8009999999998025,0.07480122743596791,0.0038652951377353977
3.0009999999997805,0.08430968433710546,0.00571729841493286
3.2009999999997585,0.09386463907323146,0.00465629602049357
3.4009999999997365,0.10439102035029403,0.002938085001856102
3.6009999999997144,0.11098393465907602,0.003891100817682429
3.8009999999996924,0.11565147795089367,0.005566899268947147
4.000999999999671,0.11968177798591799,0.0067809497547495524
4.200999999999738,0.12673526462071402,0.007754356559379562
4.400999999999804,0.13177675635446584,0.009681857525318813
4.600999999999871,0.13652192998976867,0.01263196971414241
4.800999999999938,0.14268552348643185,0.013315112338771574
5.000000000000004,0.14588204196575014,0.014984180922115195
5.200000000000071,0.14915068539952236,0.01395224296541926
5.400000000000138,0.1528406681702765,0.015454922686263448
5.600000000000205,0.1589160355084883,0.01590255141894365
5.800000000000272,0.16384779163294239,0.017892003686921246
6.000000000000338,0.16190120745082662,0.018064165389686054
6.200000000000405,0.17141224709926076,0.01840505932903521
6.400000000000472,0.1780524983604361,0.018368177500551062
6.600000000000539,0.1819621824154214,0.017692279762127436
6.800000000000606,0.18909115564154494,0.01811493348610733
7.000000000000672,0.19881592369966158,0.019418834602849516
7.200000000000739,0.19872007445385412,0.019557458485794
7.400000000000806,0.20391856095669184,0.02138366602232799
7.600000000000873,0.21106606585397197,0.021732907442910773
7.8000000000009395,0.2140042419442856,0.02225983119244422
8.000000000001005,0.2192456982400916,0.02598437089413008
8.200000000000895,0.21999614813225526,0.02826359419632386
8.400000000000784,0.22024664501751784,0.03131557303015254
8.600000000000673,0.22423409195161909,0.033712512056149196
8.800000000000562,0.22852521722241145,0.03630934093045827
9.000000000000451,0.234018188555951,0.038700936685725384
9.20000000000034,0.2393214113523447,0.03963027110839501
9.40000000000023,0.24422083662884098,0.04242905796095809
9.600000000000119,0.24755675212310518,0.04501448056631147
9.800000000000008,0.2519724607871507,0.04739081637225183
10.000999999999896,0.2512071773733693,0.050320787346303526
10.200999999999786,0.2608697039510559,0.05308923275308654
10.400999999999675,0.27178251623211697,0.05507827100560358
10.600999999999564,0.27944739366156385,0.05464382563056441
10.800999999999453,0.286310692160249,0.056391922243034125
11.000999999999342,0.29426840156125333,0.05851193561988329
11.200999999999231,0.30191936284925724,0.05887230588640672
11.40099999999912,0.3085763195239797,0.06171430061656343
11.60099999999901,0.31429126740090446,0.06348185721327192
11.800999999998899,0.3204101794674924,0.06563751221203631
12.000999999998788,0.3273354910190576,0.06532814778804771
12.200999999998677,0.3352106563380258,0.0669341841993333
12.400999999998566,0.3451485408635152,0.06710452755849207
12.600999999998455,0.3533578703222471,0.06796992546576697
12.800999999998345,0.3609181783413025,0.06902603772359255
13.000999999998234,0.3724569499012291,0.07063745652992952
13.200999999998123,0.38210216830921256,0.07080833713538708
13.400999999998012,0.38712500763170526,0.07263897489780348
13.600999999997901,0.39574861566799585,0.0728817606843251
13.80099999999779,0.4039790410742902,0.07363417825031941
14.00099999999768,0.4039653746510744,0.0759344487228505
14.200999999997569,0.4094314685021468,0.07552153132479897
14.400999999997458,0.412993681878042,0.07644413965141862
14.600999999997347,0.4209053648481934,0.0777080394069045
14.800999999997236,0.42874189315034167,0.07710921044966224
15.000999999997125,0.44068069330629694,0.07661753587345911
15.200999999997014,0.45277741784390513,0.07486298892976767
15.400999999996904,0.459427808156413,0.0746950965285714
15.600999999996793,0.4702705087519652,0.07392491766052317
15.800999999996682,0.48210647086215885,0.07268253251149248
16.000999999996573,0.48682278350934943,0.07402716906388715
16.200999999996817,0.4927194923753997,0.07587111788306813
16.40099999999706,0.50374975303748,0.07412318143614068
16.600999999997306,0.515536647194212,0.07327073307709767
16.80099999999755,0.521206889783654,0.07411375457342825
17.000999999997795,0.5316740331133903,0.07270030068690782
17.20099999999804,0.5378154458093252,0.07293055539128694
17.400999999998284,0.5462995560255324,0.07330711783012075
17.60099999999853,0.553680840887597,0.0734416910274783
17.800999999998773,0.5602105007793726,0.07253625978334943
18.000999999999017,0.565849628015367,0.07364751041024033
18.20099999999926,0.5716862259929254,0.07479590382627295
18.400999999999506,0.5791900226412869,0.0760419492771676
18.60099999999975,0.5845846979862791,0.07666501063799515
18.799999999999994,0.5949494522306955,0.07609724209981054
19.000000000000238,0.6006560815408204,0.07496535382134939
19.200000000000482,0.613520855938306,0.07426506389967322
19.400000000000727,0.6240920757888665,0.0738685366302779
19.60000000000097,0.6306421878310283,0.07570703770989341
19.800000000001216,0.636874134793928,0.07584319501665536
20.00000000000146,0.6464187189179358,0.07427312517375066
