Time (s),X (m),Y (m)
0.001,0.00048696676677933824,0.00099603208171127
0.20000000000000015,0.0003170960495610565,-0.0003066464977116429
0.4000000000000003,0.00888387201335148,0.00749488274373948
0.6000000000000004,0.026991406460747703,0.02143596775196219
0.8000000000000006,0.04860355169738348,0.03643844392989155
1.0000000000000007,0.07489261141804981,0.035179308691610886
1.2009999999999785,0.10203177256273811,0.028429959608771836
1.4009999999999565,0.13252194540645415,0.019776753154554017
1.6009999999999345,0.1669616609788061,0.012166972633873273
1.8009999999999124,0.2041427355836523,0.0071498707894345395
2.0009999999998906,0.23904118922716655,-0.00580586089619443
2.2009999999998686,0.26237878082700655,-0.020220086569488083
2.4009999999998466,0.27820869790367087,-0.04122899788291246
2.6009999999998246,0.3039448857061765,-0.0717167881456658
2.8009999999998025,0.3176452288931451,-0.1082698531240493
3.0009999999997805,0.3083864582746311,-0.1441881962520721
3.2009999999997585,0.2951562781846484,-0.17980845450447705
3.4009999999997365,0.3085291655100768,-0.21825594178702154
3.6009999999997144,0.3373165727255177,-0.2595064756182694
3.8009999999996924,0.36669343574104596,-0.30595801631332475
4.000999999999671,0.4018045503616961,-0.36107570924293947
4.200999999999738,0.41595063246626324,-0.41325255240535896
4.400999999999804,0.42225132446206115,-0.46675492431082427
4.600999999999871,0.42872022312003905,-0.5166281779681514
4.800999999999938,0.44528194947649685,-0.5694219903876467
5.000000000000004,0.45571737379809013,-0.6183998802964399
5.200000000000071,0.46452551007329,-0.6727994003135249
5.400000000000138,0.46402417669235974,-0.7188787176059117
5.600000000000205,0.46455325726516794,-0.767818928625545
5.800000000000272,0.45652733489725283,-0.8104023895414991
6.000000000000338,0.4407295332544252,-0.8463389962246045
6.200000000000405,0.42420163744746264,-0.9045919827633344
6.400000000000472,0.4101234466955479,-0.9595859698872383
6.600000000000539,0.3890712853118565,-1.0072034911894256
6.800000000000606,0.3580184810974279,-1.0439781414176301
7.000000000000672,0.3260498340862013,-1.090060912667222
7.200000000000739,0.2824850357712028,-1.133476544824339
7.400000000000806,0.23311676069019113,-1.1719038605131165
7.600000000000873,0.1805175333989589,-1.1899135864730654
7.8000000000009395,0.12691461624031658,-1.1982371268008205
8.000000000001005,0.0693834056544496,-1.2087345536960323
8.200000000000895,0.012095068809526868,-1.2202356762414615
8.400000000000784,-0.04839582610003835,-1.2265717110754097
8.600000000000673,-0.10466765970370244,-1.2337570876081556
8.800000000000562,-0.16589988671444267,-1.2408732352470033
9.000000000000451,-0.22919215360167455,-1.2434728822082373
9.20000000000034,-0.28188182924766647,-1.243069993021354
9.40000000000023,-0.3099436627693385,-1.2289314714795776
9.600000000000119,-0.3236126248535532,-1.192754238624792
9.800000000000008,-0.34179566393741345,-1.14436853059832
10.000999999999896,-0.35378122813078094,-1.0863815028595545
10.200999999999786,-0.3601192450390168,-1.0263623913153088
10.400999999999675,-0.34759142071736604,-0.9782254947363922
10.600999999999564,-0.3435090494279268,-0.9242577618482563
10.800999999999453,-0.3383477897199911,-0.875155852807819
11.000999999999342,-0.33159614302498064,-0.8145082949488693
11.200999999999231,-0.3172046622077333,-0.7491304252973506
11.40099999999912,-0.28599302226160256,-0.7108223603682
11.60099999999901,-0.23760384112871416,-0.6747085448325985
11.800999999998899,-0.1707042392789142,-0.6435490210814958
12.000999999998788,-0.10951361444057384,-0.635544848840457
12.200999999998677,-0.04759615844106741,-0.626819856683396
12.400999999998566,0.02458351298855277,-0.6054279049367377
12.600999999998455,0.0923130199724263,-0.5959036060964307
12.800999999998345,0.1559826698636012,-0.5891980400462017
13.000999999998234,0.21866938127934707,-0.5927424270944005
13.200999999998123,0.27502626194460605,-0.5944148818346126
13.400999999998012,0.3375029593649567,-0.5921134903814349
13.600999999997901,0.3933716504537767,-0.5893644682121224
13.80099999999779,0.4453444868929381,-0.5785871713431977
14.00099999999768,0.5075253133556723,-0.5502745964244886
14.200999999997569,0.5725429614298793,-0.5195675188685692
14.400999999997458,0.6309224671130865,-0.5040949087253951
14.600999999997347,0.687472288184212,-0.5020569385191476
14.800999999997236,0.7434907687531493,-0.5030408681247129
15.000999999997125,0.8010253656518767,-0.500914888764144
15.200999999997014,0.8590916723072538,-0.4948407977862114
15.400999999996904,0.9112194973186355,-0.5045482685078393
15.600999999996793,0.9703752641409188,-0.5122412679294979
15.800999999996682,1.0339095979261927,-0.5013975118541353
16.000999999996573,1.1053930097515265,-0.48731066950345225
16.200999999996817,1.1662695299675556,-0.4863743448066737
16.40099999999706,1.223944249080018,-0.4908886194663198
16.600999999997306,1.270099287495786,-0.5090190658877054
16.80099999999755,1.2978278294132162,-0.5489648471613339
17.000999999997795,1.3075871875793428,-0.6028849902878913
17.20099999999804,1.30823896164333,-0.6606102873859422
17.400999999998284,1.30805066113124,-0.7175823536252297
17.60099999999853,1.3063274529117819,-0.7719626529127835
17.800999999998773,1.311996594785771,-0.8281686030199935
18.000999999999017,1.3230682147640602,-0.887255909001777
18.20099999999926,1.332533176270688,-0.9473314432920521
18.400999999999506,1.3346302906338843,-1.0073054852273895
18.60099999999975,1.3239386506839168,-1.0462582296415275
18.799999999999994,1.2971296286511296,-1.0765044538569088
19.000000000000238,1.2601850508438182,-1.1092507010880996
19.200000000000482,1.2148242531814992,-1.1408683649896891
19.400000000000727,1.1716194092082357,-1.1933438681527957
19.60000000000097,1.1210393649488735,-1.2424194623539049
19.800000000001216,1.0624027921423904,-1.2776561514333147
20.00000000000146,1.0033283863007514,-1.2931228892453621
