Time (s),X (m),Y (m)
0.001,0.0005727611008870025,-0.0009689812320744441
0.20000000000000015,0.0021602430732519237,0.0020147245908842186
0.4000000000000003,0.010319679738673081,-0.006189180702562742
0.6000000000000004,0.022237422255636383,-0.002989152621149065
0.8000000000000006,0.03661433217982583,0.0246118465802967
1.0000000000000007,0.060164896911380196,0.05661487977898809
1.2009999999999785,0.08978369514230905,0.07660798884692045
1.4009999999999565,0.11917354329754101,0.0556653897873797
1.6009999999999345,0.1480573857647172,0.03248422096194941
1.8009999999999124,0.1827947581779794,0.025270142745270317
2.0009999999998906,0.21718295040368904,0.008926305009075645
2.2009999999998686,0.2476625397030584,-0.013090559394151595
2.4009999999998466,0.28260497266525375,-0.028064926809222995
2.6009999999998246,0.30543135526575427,-0.057541441169190244
2.8009999999998025,0.3351963302649385,-0.0720785602030794
3.0009999999997805,0.3757343108073647,-0.08887174805339915
3.2009999999997585,0.41433063163131684,-0.12362973011559526
3.4009999999997365,0.44929537999931946,-0.15279133035820525
3.6009999999997144,0.48668995881006166,-0.18078530954862757
3.8009999999996924,0.522957620568511,-0.21485791882368485
4.000999999999671,0.5541324460590346,-0.2458660685260519
4.200999999999738,0.5656441007028221,-0.281972575069662
4.400999999999804,0.5715635926208021,-0.32095175648066454
4.600999999999871,0.5817909159324407,-0.36633818207879615
4.800999999999938,0.5769734323033736,-0.4167869609156917
5.000000000000004,0.5528843582107345,-0.46446345578367343
5.200000000000071,0.5188806496010816,-0.5149089764238431
5.400000000000138,0.47704006025493567,-0.5516760386878333
5.600000000000205,0.42974435913839754,-0.5835762273681954
5.800000000000272,0.3863028780039495,-0.616001005784174
6.000000000000338,0.3458179682092194,-0.6546115176019547
6.200000000000405,0.30708830325526265,-0.6902236747692261
6.400000000000472,0.26548127338074806,-0.7075755115340076
6.600000000000539,0.22152677293015685,-0.7228772010102197
6.800000000000606,0.18082652783046022,-0.7406132386429719
7.000000000000672,0.12828825157583715,-0.7497801280203871
7.200000000000739,0.08234868199755997,-0.7637264824025566
7.400000000000806,0.031910949448437885,-0.7640231109725736
7.600000000000873,-0.018344244145761156,-0.7470734269277806
7.8000000000009395,-0.06308431076907997,-0.7176829288850619
8.000000000001005,-0.10938578223215789,-0.6850244727717496
8.200000000000895,-0.14567292700312773,-0.6398138143928713
8.400000000000784,-0.18502574037672215,-0.5928332529007345
8.600000000000673,-0.2223626844874849,-0.5466535943346584
8.800000000000562,-0.2574079643782693,-0.5085656684376884
9.000000000000451,-0.2721751656506732,-0.4700926925922458
9.20000000000034,-0.2583545801382753,-0.42970842078382576
9.40000000000023,-0.23144687093781813,-0.3895902098336372
9.600000000000119,-0.19984315665050645,-0.349053041058857
9.800000000000008,-0.1547135873343644,-0.31319504197586345
10.000999999999896,-0.11949662427098628,-0.27747537865625255
10.200999999999786,-0.0823456905185146,-0.2398224721351909
10.400999999999675,-0.033561399316073534,-0.2152264448272669
10.600999999999564,0.017483905333452742,-0.19597661226869065
10.800999999999453,0.07072494650404339,-0.18106736701367016
11.000999999999342,0.12219902280657684,-0.1649738214462148
11.200999999999231,0.17187466323168127,-0.14602095181576202
11.40099999999912,0.22427029771217316,-0.1318131907003314
11.60099999999901,0.2709727412534412,-0.13964432634880392
11.800999999998899,0.3137242505880547,-0.1446874238237804
12.000999999998788,0.35877710536479523,-0.1592541029826416
12.200999999998677,0.4170869414068281,-0.1615625907427635
12.400999999998566,0.473586435358157,-0.17864820552412813
12.600999999998455,0.5252705754009308,-0.20203387330777986
12.800999999998345,0.5732577496801292,-0.23604724901389915
13.000999999998234,0.6209316170653038,-0.27229062948577964
13.200999999998123,0.6655551894698046,-0.30990784563876483
13.400999999998012,0.704209806155409,-0.341096241534475
13.600999999997901,0.7391234526449224,-0.37427818932369133
13.80099999999779,0.7596496529337041,-0.4131254089237403
14.00099999999768,0.7651387284479527,-0.4613342338608679
14.200999999997569,0.7538500658636084,-0.5142581720832374
14.400999999997458,0.745157975499055,-0.5653061156805264
14.600999999997347,0.7353577475836398,-0.612260764539245
14.800999999997236,0.7209411135659761,-0.6578063013252837
15.000999999997125,0.6909661881823751,-0.7036622499904633
15.200999999997014,0.6528938051248973,-0.7499565714353785
15.400999999996904,0.6240592758175997,-0.7972439743771998
15.600999999996793,0.5877350635070856,-0.8371628558425025
15.800999999996682,0.5571375714832266,-0.8835379655625016
16.000999999996573,0.5285579434647497,-0.9265671325228775
16.200999999996817,0.48690535150895187,-0.9605474222214903
16.40099999999706,0.44624042706226086,-0.985840338936346
16.600999999997306,0.4069723544606715,-1.0172699868175767
16.80099999999755,0.34939180041548074,-1.0404677291975493
17.000999999997795,0.3003037540639343,-1.066049537345437
17.20099999999804,0.252297422782366,-1.0952553552173876
17.400999999998284,0.2133640656872547,-1.131131624300074
17.60099999999853,0.16423335240327747,-1.1678994327441221
17.800999999998773,0.117485971885951,-1.2026372950696889
18.000999999999017,0.07322596945234874,-1.243295664278829
18.20099999999926,0.028386654097660335,-1.2847258957855612
18.400999999999506,-0.015437517356500844,-1.3254214018835309
18.60099999999975,-0.05074570901184117,-1.3654762186731635
18.799999999999994,-0.07973747402284874,-1.403481501467271
19.000000000000238,-0.11509256535910847,-1.437202057391507
19.200000000000482,-0.15651860216640212,-1.4623335879864563
19.400000000000727,-0.20434104750157844,-1.4600858049000816
19.60000000000097,-0.2587698171766118,-1.4487406279667623
19.800000000001216,-0.31494040315217187,-1.444261998059225
20.00000000000146,-0.3742442103234779,-1.438991316760657
