Time (s),X (m),Y (m)
0.001,0.0002200807748493132,-0.0010311682891199468
0.20000000000000015,0.002184322901232991,0.00723690090661059
0.4000000000000003,0.01067153772371164,0.006287521403885527
0.6000000000000004,0.029215609140290554,0.0032145752966986243
0.8000000000000006,0.058491182983256,-0.00748206178938696
1.0000000000000007,0.09404323402696534,-0.027299635986585562
1.2009999999999785,0.12733693908562377,-0.06006331275243154
1.4009999999999565,0.16103655112122808,-0.09494286876228235
1.6009999999999345,0.2000784161467662,-0.12730354700865118
1.8009999999999124,0.25086039580276165,-0.1553625697182807
2.0009999999998906,0.2824422581258232,-0.18947744432814057
2.2009999999998686,0.28923179058397475,-0.2362313295420967
2.4009999999998466,0.27724504176318965,-0.2786811916339344
2.6009999999998246,0.24690669775701066,-0.2976601674045792
2.8009999999998025,0.20325534440853682,-0.3073696749105313
3.0009999999997805,0.16386932906065557,-0.2925119123523645
3.2009999999997585,0.1268471893365528,-0.264202237838514
3.4009999999997365,0.09438865593059617,-0.22932859477499037
3.6009999999997144,0.06066887030651893,-0.1868491999684491
3.8009999999996924,0.05105188991260005,-0.1370172025686479
4.000999999999671,0.053548765923287965,-0.08442897262993011
4.200999999999738,0.0676463957040331,-0.05450516176358612
4.400999999999804,0.09144607591426514,-0.057579809223977686
4.600999999999871,0.12872057527706235,-0.07728872521452056
4.800999999999938,0.16586993939799227,-0.10570002096719609
5.000000000000004,0.18374548150237335,-0.14347755740498244
5.200000000000071,0.17968928529392905,-0.18793274698111
5.400000000000138,0.16309130792451962,-0.234324238267108
5.600000000000205,0.1487740006301204,-0.29244085843253315
5.800000000000272,0.13339146515052477,-0.3543719075410216
6.000000000000338,0.11522906722425026,-0.40567104865633236
6.200000000000405,0.08206871900168318,-0.44994627048497654
6.400000000000472,0.04424682673253284,-0.4913501312828442
6.600000000000539,-0.00610708718351153,-0.5130291593283667
6.800000000000606,-0.06855080338295343,-0.5169503458572727
7.000000000000672,-0.13942355321755248,-0.5181812021554437
7.200000000000739,-0.18581644819842935,-0.49748466224110166
7.400000000000806,-0.20444789367705268,-0.4629051011360979
7.600000000000873,-0.19194724145307776,-0.44109868660846185
7.8000000000009395,-0.1616787907096561,-0.411917020815578
8.000000000001005,-0.11867752580096405,-0.39383195832452256
8.200000000000895,-0.06111495355538939,-0.36970037776836223
8.400000000000784,0.003958376301663496,-0.3554257468642296
8.600000000000673,0.06582443482448866,-0.362130210282395
8.800000000000562,0.09978506664370783,-0.37847062004064086
9.000000000000451,0.1058492696659654,-0.40424555888129304
9.20000000000034,0.0926063416213571,-0.44164750583991585
9.40000000000023,0.07682848672240986,-0.49024527540844853
9.600000000000119,0.06571888728956925,-0.5525267784374703
9.800000000000008,0.04744152656893828,-0.6061711279073397
10.000999999999896,0.014666092056193578,-0.6420761022545718
10.200999999999786,-0.024214640324980316,-0.6400264112227854
10.400999999999675,-0.07049406362482441,-0.6245096008754661
10.600999999999564,-0.10395625388482806,-0.5949877643872522
10.800999999999453,-0.1345462086057381,-0.5553925939275389
11.000999999999342,-0.17900448286122742,-0.5069037416265033
11.200999999999231,-0.2032889665613569,-0.4462705223699391
11.40099999999912,-0.1967896837338366,-0.3859059464007937
11.60099999999901,-0.177513389837372,-0.33121441552645875
11.800999999998899,-0.15028906459307173,-0.2874246495814334
12.000999999998788,-0.11736468688835419,-0.2564154592509709
12.200999999998677,-0.0935451340531757,-0.2631563200563297
12.400999999998566,-0.08035359204857696,-0.2865791043151384
12.600999999998455,-0.07901071810566658,-0.3284090156321834
12.800999999998345,-0.09323687028191684,-0.3664097151535153
13.000999999998234,-0.11814553719817886,-0.393559456256579
13.200999999998123,-0.16346920990523997,-0.41523081088856173
13.400999999998012,-0.22665368169580494,-0.432223134313232
13.600999999997901,-0.3003947053309076,-0.43488796405758845
13.80099999999779,-0.3796956890478582,-0.4294804808901122
14.00099999999768,-0.4474463001607346,-0.4120321420725839
14.200999999997569,-0.5162731206123687,-0.3892762709132871
14.400999999997458,-0.5911183590454783,-0.36164577152130056
14.600999999997347,-0.6605956244524304,-0.32882876113228865
14.800999999997236,-0.7226106671694043,-0.29599381508336875
15.000999999997125,-0.7662547895445917,-0.2491617030588876
15.200999999997014,-0.7961816907681275,-0.19837904827072883
15.400999999996904,-0.8154538635581756,-0.14762458768973863
15.600999999996793,-0.8197975302372217,-0.08520993854798267
15.800999999996682,-0.8190132754542381,-0.01560571227523119
16.000999999996573,-0.8075818235355164,0.053127891440132934
16.200999999996817,-0.7893655129657126,0.12950176136413355
16.40099999999706,-0.7512834435156583,0.17952177955166448
16.600999999997306,-0.697828637796396,0.19420759322885206
16.80099999999755,-0.6462577505016506,0.18329351133036656
17.000999999997795,-0.5798161948237562,0.1752247297851382
17.20099999999804,-0.509307599851402,0.16747973524196066
17.400999999998284,-0.4361880863137215,0.15106332395394784
17.60099999999853,-0.36876600096524703,0.12807939738075858
17.800999999998773,-0.2945113075116971,0.11040373611710805
18.000999999999017,-0.2249352376365413,0.08053405040271205
18.20099999999926,-0.14725173986090312,0.055658247996123955
18.400999999999506,-0.07750805040947512,0.023818276694531144
18.60099999999975,-0.04282886309102007,-0.013357006769913974
18.799999999999994,-0.043640031580865296,-0.058226729462320076
19.000000000000238,-0.04415269957400583,-0.11638442749033086
19.200000000000482,-0.03209542141002016,-0.185760122457417
19.400000000000727,-0.0315012066234001,-0.26433503997550917
19.60000000000097,-0.042732705538832474,-0.3320709417894601
19.800000000001216,-0.05993251485027797,-0.41576503951932586
20.00000000000146,-0.08872852517894933,-0.4757617327963826
