Time (s),X (m),Y (m)
0.001,-0.00021570977506068912,-0.0009345558501746678
0.20000000000000015,0.003527556878575684,0.003529216639710853
0.4000000000000003,0.014443705748021616,0.0007568773161189762
0.6000000000000004,0.030822493497578644,-0.0030411662328665903
0.8000000000000006,0.05116504937941883,-0.015644157865164026
1.0000000000000007,0.08359654446496373,-0.032614234593811575
1.2009999999999785,0.11286483011973389,-0.047738185355312025
1.4009999999999565,0.1353284395021245,-0.07199339193870848
1.6009999999999345,0.1399510218431353,-0.09682019810278958
1.8009999999999124,0.1559941925886797,-0.13046038592316275
2.0009999999998906,0.19892931004796377,-0.16341477701516557
2.2009999999998686,0.2540343224698863,-0.1924402912031891
2.4009999999998466,0.3113299995661503,-0.23321596576535766
2.6009999999998246,0.35055861762598695,-0.2800819751099101
2.8009999999998025,0.378493557519278,-0.3444085533033701
3.0009999999997805,0.3839907076025716,-0.40352226629560567
3.2009999999997585,0.39382141928900444,-0.4606312816794291
3.4009999999997365,0.39896650461606425,-0.5183233185845548
3.6009999999997144,0.4185064245111903,-0.5857293716786359
3.8009999999996924,0.4363088106418876,-0.6492058823997847
4.000999999999671,0.4531144903553943,-0.7225480626993412
4.200999999999738,0.4967504108277071,-0.7930074730848787
4.400999999999804,0.5405885126899375,-0.8517663700434295
4.600999999999871,0.5764925316739844,-0.9138475358900895
4.800999999999938,0.6093181681821503,-0.9787305308606715
5.000000000000004,0.6435516969855822,-1.0514328299398972
5.200000000000071,0.669425769918688,-1.1139237251229432
5.400000000000138,0.6711967829399027,-1.1754440308980236
5.600000000000205,0.6407587253683009,-1.2206581337461333
5.800000000000272,0.5940813778730032,-1.2512661711523054
6.000000000000338,0.5368708716727626,-1.2714776413155993
6.200000000000405,0.47966002941521807,-1.3077445947815525
6.400000000000472,0.4161596227294947,-1.3583708719290846
6.600000000000539,0.34208494907548626,-1.4040039821301362
6.800000000000606,0.27224802878419635,-1.4369127986678698
7.000000000000672,0.22659214203789618,-1.4407206648932045
7.200000000000739,0.1933429832273073,-1.4162428705288181
7.400000000000806,0.18202851862527522,-1.3767574322170466
7.600000000000873,0.17262359438784547,-1.3298922582718826
7.8000000000009395,0.16564605234298035,-1.2771686581527832
8.000000000001005,0.14729143760517507,-1.2168196651079113
8.200000000000895,0.12483819767535326,-1.1500580448945388
8.400000000000784,0.09572828838333067,-1.082275954279037
8.600000000000673,0.059201481470408136,-1.0030284270142125
8.800000000000562,-0.003575099408963879,-0.9203547778304104
9.000000000000451,-0.052658366107622236,-0.8392962447994659
9.20000000000034,-0.08361666173574564,-0.7647046430182945
9.40000000000023,-0.10599433892559704,-0.6858428682678077
9.600000000000119,-0.11314955562373324,-0.5965330296160457
9.800000000000008,-0.08603796461967088,-0.5271341030531375
10.000999999999896,-0.04127803359148019,-0.477585451482577
10.200999999999786,0.000941591129241574,-0.46437109541260624
10.400999999999675,0.03584100538033687,-0.48558482562125715
10.600999999999564,0.07279010475702799,-0.5226078530808493
10.800999999999453,0.10408966142604686,-0.5721216163350364
11.000999999999342,0.13665064273494085,-0.6328870863288417
11.200999999999231,0.18364580390429663,-0.7102945429492595
11.40099999999912,0.23489458463518448,-0.7892374294693322
11.60099999999901,0.2906869767653054,-0.8664765175655085
11.800999999998899,0.34152647690071597,-0.9463848064891226
12.000999999998788,0.372708388221239,-1.0273104866894163
12.200999999998677,0.4070210375516981,-1.1110077728864516
12.400999999998566,0.4427482543055926,-1.1896145154102018
12.600999999998455,0.4947106780863172,-1.2662966763683094
12.800999999998345,0.5567012751982874,-1.3436998620930076
13.000999999998234,0.6211832196256545,-1.427674567599669
13.200999999998123,0.698163357016143,-1.5164381157585598
13.400999999998012,0.7739202075759593,-1.6103337411375516
13.600999999997901,0.8424652837529346,-1.7017532518060956
13.80099999999779,0.8986693028487716,-1.7911804583031288
14.00099999999768,0.9682794253282276,-1.882533319764951
14.200999999997569,1.0420620820290554,-1.9694338803439613
14.400999999997458,1.1063569060836318,-2.0587237532585223
14.600999999997347,1.1686834007993996,-2.153244195007973
14.800999999997236,1.2416242048839716,-2.250488916883657
15.000999999997125,1.2979081363869016,-2.3397113319616873
15.200999999997014,1.3411396271731792,-2.429186166974766
15.400999999996904,1.3665798730106993,-2.529469444873368
15.600999999996793,1.3902148189534314,-2.6344697868874025
15.800999999996682,1.4098709683308361,-2.7357366857997243
16.000999999996573,1.4222971303892316,-2.821694933294685
16.200999999996817,1.4125621539106932,-2.896554563229548
16.40099999999706,1.3822228505241156,-2.975453687307037
16.600999999997306,1.3444874242918412,-3.048208515534623
16.80099999999755,1.2835604602316373,-3.126571668533127
17.000999999997795,1.2066448543401573,-3.209495818257078
17.20099999999804,1.128887152283726,-3.291724150236644
17.400999999998284,1.059762617401261,-3.3638682242016946
17.60099999999853,1.001781176629386,-3.436776095137867
17.800999999998773,0.9436825430683385,-3.499716745184428
18.000999999999017,0.8767443143568482,-3.541440535729604
18.20099999999926,0.8034353293413986,-3.5693676663619454
18.400999999999506,0.7247233386666917,-3.5932750728734923
18.60099999999975,0.645935244590255,-3.6146662849214106
18.799999999999994,0.5670629159838377,-3.6310258371059763
19.000000000000238,0.4912984946950034,-3.635924443461135
19.200000000000482,0.41549091023603885,-3.6132183552513677
19.400000000000727,0.3453481868630668,-3.5633285737423592
19.60000000000097,0.2783651476281654,-3.4990814572632805
19.800000000001216,0.21971442251446544,-3.423219973317602
20.00000000000146,0.15555181703022605,-3.34981721529208
