Time (s),X (m),Y (m)
0.001,0.0011130987088041246,0.0005155841445599734
0.20000000000000015,-0.0013365836554597834,-0.0016452883952534085
0.4000000000000003,0.00078750130448794,-0.0010880581266714917
0.6000000000000004,0.007215690159032983,-0.0010017413093219504
0.8000000000000006,0.010147323901782565,0.0006383871848797536
1.0000000000000007,0.01323171759720746,0.001244973066153686
1.2009999999999785,0.018397140505828358,0.003246504100429149
1.4009999999999565,0.02275294572521014,0.006171089619980141
1.6009999999999345,0.02716894167908517,0.008183865666904886
1.8009999999999124,0.03235963164970808,0.010719840995362882
2.0009999999998906,0.03848854977036258,0.01469703299972001
2.2009999999998686,0.044228879218142045,0.017619302814796768
2.4009999999998466,0.04883388151167336,0.02148755781967895
2.6009999999998246,0.05516735852802293,0.02574261905311443
2.8009999999998025,0.061531399420989064,0.030360554181044153
3.0009999999997805,0.06722930801445534,0.034876666490365575
3.2009999999997585,0.07343025784480388,0.03936928179413106
3.4009999999997365,0.07808092461899913,0.04430262067575081
3.6009999999997144,0.08357949470184652,0.04897931156153918
3.8009999999996924,0.08891006746194666,0.054192446776478755
4.000999999999671,0.09419376994277721,0.06052818721735881
4.200999999999738,0.09866982552109434,0.06655999534421347
4.400999999999804,0.10192310959579243,0.07002894679351941
4.600999999999871,0.10612134309325505,0.0756116678814908
4.800999999999938,0.11032746966903648,0.08187254297169291
5.000000000000004,0.11352961664940185,0.08703236220587647
5.200000000000071,0.11588961621267405,0.0907824674989092
5.400000000000138,0.11781075313693026,0.09430031074080306
5.600000000000205,0.12006564988313971,0.1001806483414331
5.800000000000272,0.12107706796701105,0.10490339682028314
6.000000000000338,0.122200215860532,0.10952166199021673
6.200000000000405,0.12347954343058326,0.11622925042446579
6.400000000000472,0.12434008592777998,0.12225155591816045
6.600000000000539,0.12506308791700435,0.12782723025562975
6.800000000000606,0.1250963352119908,0.13390251474781723
7.000000000000672,0.12477217062590479,0.13815770826748272
7.200000000000739,0.12391805277930927,0.1424989733310486
7.400000000000806,0.12290893413296457,0.1493285992037944
7.600000000000873,0.12113806624546294,0.15583878302468968
7.8000000000009395,0.11935508653022159,0.1605421683528809
8.000000000001005,0.11712848085527898,0.1650587076241814
8.200000000000895,0.11453505881797545,0.17066024955230377
8.400000000000784,0.11195652323974259,0.17518145381457648
8.600000000000673,0.10914055529794414,0.17983471149392252
8.800000000000562,0.10572452739370956,0.18599420549487553
9.000000000000451,0.10190523160138241,0.19261006769709377
9.20000000000034,0.09818176160099702,0.19756550900973646
9.40000000000023,0.0947484222728311,0.20242177887778648
9.600000000000119,0.0905386204051574,0.20684945011303127
9.800000000000008,0.08593483546392884,0.21185012559556685
10.000999999999896,0.08184590895288672,0.21602374536693877
10.200999999999786,0.07754788994145181,0.2203625194174194
10.400999999999675,0.07370967661346704,0.2244256832781232
10.600999999999564,0.06935487903563659,0.22790368785070061
10.800999999999453,0.06385079529710308,0.23287755096129892
11.000999999999342,0.058201478541127234,0.23717183115931614
11.200999999999231,0.05284673762525869,0.24135722530378798
11.40099999999912,0.046294774395079015,0.24496218169544806
11.60099999999901,0.04200819610083764,0.24770969604258525
11.800999999998899,0.03779587223474886,0.25026658436538674
12.000999999998788,0.033113881904817545,0.2519210126809882
12.200999999998677,0.028278854342297412,0.25316630350046
12.400999999998566,0.024507764509085202,0.2538075679637784
12.600999999998455,0.019858552305657796,0.2543727106846345
12.800999999998345,0.015238680946451783,0.25508200972036316
13.000999999998234,0.010741503814176191,0.255300382401528
13.200999999998123,0.006034206057270191,0.25514675600410747
13.400999999998012,0.0025213473304273536,0.25438898124136544
13.600999999997901,-0.003943442668711551,0.25364008776772823
13.80099999999779,-0.010018248019788956,0.2530926728548411
14.00099999999768,-0.015925331288160476,0.2516569794576317
14.200999999997569,-0.02056365236038002,0.24987600837392857
14.400999999997458,-0.026141969232413156,0.247302980900399
14.600999999997347,-0.030813831208041553,0.2446432272362677
14.800999999997236,-0.035446315619748675,0.24168429323053334
15.000999999997125,-0.043004657600063646,0.23799723842851153
15.200999999997014,-0.05018454889654227,0.23410954562667394
15.400999999996904,-0.05710018198966622,0.22966718989124477
15.600999999996793,-0.06363455987507208,0.22497335878979213
15.800999999996682,-0.0704225283606418,0.2206770523207088
16.000999999996573,-0.07556977459082942,0.21729931528142926
16.200999999996817,-0.0799115364458683,0.2131037358216563
16.40099999999706,-0.08479413946061008,0.20907838277149576
16.600999999997306,-0.09010283578113892,0.20383387498385422
16.80099999999755,-0.0955898810036817,0.19842339371714177
17.000999999997795,-0.09939534202947514,0.19360516475633074
17.20099999999804,-0.10245826538489305,0.18934570838611645
17.400999999998284,-0.10575470380324122,0.18495938390449612
17.60099999999853,-0.1097644730691747,0.17992656715035946
17.800999999998773,-0.11309314420466132,0.1751752811723932
18.000999999999017,-0.11578285510428829,0.17063195702821046
18.20099999999926,-0.11846416484058066,0.16545616268785576
18.400999999999506,-0.12090423607875984,0.16059731512955744
18.60099999999975,-0.12229477013442866,0.15590853296849824
18.799999999999994,-0.12362589281951264,0.1511056465249308
19.000000000000238,-0.12427040007095838,0.14676751180933664
19.200000000000482,-0.12493253980281735,0.1408637315665657
19.400000000000727,-0.1252151395556291,0.1345732741738341
19.60000000000097,-0.12506290416342877,0.12842650268980724
19.800000000001216,-0.12420820112871156,0.1244562168423823
20.00000000000146,-0.12303154499523448,0.11954367983041383
