Time (s),X (m),Y (m)
0.001,0.0009492268646305597,0.0007291460897812449
0.20000000000000015,-0.0011453099457373144,-0.00341818201553203
0.4000000000000003,0.004916140844846677,-0.005221972650778968
0.6000000000000004,0.012164079323124705,-0.012454397765322658
0.8000000000000006,0.031093377877758902,-0.011427599966044274
1.0000000000000007,0.0678454871983347,0.00032151915646264637
1.2009999999999785,0.09613041309727864,0.004696915835900846
1.4009999999999565,0.12262326477769296,-3.5959170854397964e-05
1.6009999999999345,0.15580712084902013,-0.017795563097434644
1.8009999999999124,0.18880726982150856,-0.0379547583137214
2.0009999999998906,0.22782660610709227,-0.058906457245586547
2.2009999999998686,0.2629836420998827,-0.08725754417727238
2.4009999999998466,0.27533244587829536,-0.12160284989966116
2.6009999999998246,0.3107082715420605,-0.15536644116581955
2.8009999999998025,0.34610717122679896,-0.19955983833233906
3.0009999999997805,0.37779856258145617,-0.24430688478674298
3.2009999999997585,0.42082016601955413,-0.2892036482877778
3.4009999999997365,0.4646602040320456,-0.336294577141181
3.6009999999997144,0.5096036178046917,-0.38404425930382396
3.8009999999996924,0.5429840975291252,-0.42383465520742547
4.000999999999671,0.5727995031899253,-0.4587320130900305
4.200999999999738,0.6052205389000385,-0.4996439901723161
4.400999999999804,0.6381980515203171,-0.5492732274853909
4.600999999999871,0.6703210763767912,-0.6082818305497864
4.800999999999938,0.6963348626123244,-0.6664650045697222
5.000000000000004,0.722809734957978,-0.741487682571097
5.200000000000071,0.7479615244946525,-0.8143608298606174
5.400000000000138,0.7694596633706833,-0.8759971886324753
5.600000000000205,0.7783179264880727,-0.9337279516694216
5.800000000000272,0.7630603640627737,-0.9787588420782398
6.000000000000338,0.7325010445770211,-1.0254268889934053
6.200000000000405,0.6991605120633936,-1.077942882784474
6.400000000000472,0.6647153833746512,-1.136427682822515
6.600000000000539,0.6293396479855371,-1.188990314522799
6.800000000000606,0.6085597556692166,-1.2502613547022183
7.000000000000672,0.6036078823694909,-1.3284012746290428
7.200000000000739,0.6009433994916268,-1.4024453017458776
7.400000000000806,0.590832771922312,-1.4607286655579241
7.600000000000873,0.5550983463489579,-1.51194313309683
7.8000000000009395,0.5067174987177872,-1.5612216947535111
8.000000000001005,0.45048084832903923,-1.616222207856987
8.200000000000895,0.3944995217798476,-1.6778288453227699
8.400000000000784,0.3354661103978155,-1.7419423217360717
8.600000000000673,0.2811021651685869,-1.7866062723457188
8.800000000000562,0.2245502395724552,-1.8185625776468806
9.000000000000451,0.16328914601990668,-1.8639998845366283
9.20000000000034,0.10258778656302613,-1.9035659456643785
9.40000000000023,0.03743350795428677,-1.945894841067061
9.600000000000119,-0.031042351728798594,-1.9938639414282726
9.800000000000008,-0.09852062673631634,-2.0372242455685257
10.000999999999896,-0.16428287748737277,-2.0900059167451808
10.200999999999786,-0.22879307412511335,-2.1450336731532746
10.400999999999675,-0.29403034461229505,-2.202927720867063
10.600999999999564,-0.35599459205850253,-2.270899772132076
10.800999999999453,-0.40858273294315506,-2.3348844563972544
11.000999999999342,-0.46218252191343495,-2.3975060965858392
11.200999999999231,-0.5213540760517222,-2.452279164881561
11.40099999999912,-0.5868968851586579,-2.5064585672382114
11.60099999999901,-0.6580964903826466,-2.548916530466657
11.800999999998899,-0.738605304742915,-2.5972633408698234
12.000999999998788,-0.8281461574793062,-2.6448183820844258
12.200999999998677,-0.9170595003221662,-2.6865452295610015
12.400999999998566,-1.006684433436269,-2.7172422448482827
12.600999999998455,-1.1014120809134547,-2.7347273902143026
12.800999999998345,-1.1839645357507997,-2.7379742235977242
13.000999999998234,-1.2545669620228654,-2.725877208813712
13.200999999998123,-1.3080473405660693,-2.691129799948214
13.400999999998012,-1.3513283429111445,-2.643941523196495
13.600999999997901,-1.411988070737758,-2.5929748608061516
13.80099999999779,-1.4709815377404085,-2.5464534132919576
14.00099999999768,-1.5302325585900771,-2.5049728125100397
14.200999999997569,-1.5954632942743987,-2.4701705872149926
14.400999999997458,-1.6639262434906463,-2.4250244272523416
14.600999999997347,-1.723907384178665,-2.369744944801302
14.800999999997236,-1.775756794979934,-2.3078408012209026
15.000999999997125,-1.8293449813596407,-2.2399431762557303
15.200999999997014,-1.8849776930690418,-2.170045961833436
15.400999999996904,-1.925050932658468,-2.1017999740214077
15.600999999996793,-1.9686293146436211,-2.0362402967438378
15.800999999996682,-2.004311823627359,-1.9706091131011856
16.000999999996573,-2.0658283242866147,-1.914173738091764
16.200999999996817,-2.1339252704960976,-1.8684119540761337
16.40099999999706,-2.206181029411596,-1.8323085966213082
16.600999999997306,-2.273353358015184,-1.7971011635884242
16.80099999999755,-2.3475841620920956,-1.7488553278654644
17.000999999997795,-2.419627343939271,-1.6892496975055526
17.20099999999804,-2.491841887771628,-1.6311555176273838
17.400999999998284,-2.5595532999443167,-1.5923609340801341
17.60099999999853,-2.6225359121767746,-1.5665988916657707
17.800999999998773,-2.6955416286865574,-1.5493968291961935
18.000999999999017,-2.757439119578239,-1.5292633616590858
18.20099999999926,-2.8261131093847105,-1.5033051658570684
18.400999999999506,-2.89623468466168,-1.4791540331647608
18.60099999999975,-2.9548803911517507,-1.4625553048587632
18.799999999999994,-3.0209423123513557,-1.4441549933872102
19.000000000000238,-3.082196507330518,-1.4156316295184905
19.200000000000482,-3.1328243122477475,-1.3766370438211355
19.400000000000727,-3.2002911986132765,-1.338196681712694
19.60000000000097,-3.2615743560922685,-1.3128298961949347
19.800000000001216,-3.315488733035009,-1.2741499277101167
20.00000000000146,-3.396011125230411,-1.228540146017113
