Time (s),X (m),Y (m)
0.001,-0.0005090653149319316,-0.0007291460897812452
0.20000000000000015,0.007496057489369303,0.002464129418485284
0.4000000000000003,0.01750904333445504,0.004041684869365364
0.6000000000000004,0.02683381586955842,0.000611672227352548
0.8000000000000006,0.047574753328571945,0.0038511117753490536
1.0000000000000007,0.06564574577541266,0.007538326688974232
1.2009999999999785,0.09106134109029008,0.008931847893765115
1.4009999999999565,0.12017914493285903,0.012120757325887665
1.6009999999999345,0.136260657574462,0.012967705878360328
1.8009999999999124,0.1526569419440817,0.007044721740757891
2.0009999999998906,0.17772749247550554,0.004222698913326522
2.2009999999998686,0.21739682953417896,0.006491653072979917
2.4009999999998466,0.2479281348826255,0.001878678565934745
2.6009999999998246,0.2569311800287231,-0.008689076518064416
2.8009999999998025,0.2776775564072442,-0.02392914265039875
3.0009999999997805,0.30913778026977795,-0.04055908623771196
3.2009999999997585,0.34497604548994576,-0.0537407530007231
3.4009999999997365,0.38464400594950354,-0.07374340271862957
3.6009999999997144,0.3979442361597812,-0.09944340332636992
3.8009999999996924,0.39769630530744204,-0.1201628201026106
4.000999999999671,0.41356661043227627,-0.13823729651398803
4.200999999999738,0.45148340116774205,-0.1536992579118276
4.400999999999804,0.481018732616185,-0.1721153894902611
4.600999999999871,0.5154105810903309,-0.19508872638584562
4.800999999999938,0.5552175996843417,-0.21482633613240146
5.000000000000004,0.5966553646175958,-0.23586219468803887
5.200000000000071,0.6184293993906533,-0.26100868343091743
5.400000000000138,0.6481770891606103,-0.2867781623107412
5.600000000000205,0.688758529700644,-0.3153667385776592
5.800000000000272,0.7260501680084349,-0.34482368307245365
6.000000000000338,0.7608183825538254,-0.37350177623148695
6.200000000000405,0.7867088624757349,-0.39745791999513025
6.400000000000472,0.8117307360184725,-0.41609391853073746
6.600000000000539,0.849508430206413,-0.4392652998557856
6.800000000000606,0.8917076497937385,-0.46483237683613465
7.000000000000672,0.9321950428773234,-0.49374404609307887
7.200000000000739,0.9637989912929169,-0.5249507039957829
7.400000000000806,0.9864903003186579,-0.5556366075108693
7.600000000000873,0.9996379345163133,-0.5864171136505869
7.8000000000009395,1.02296704740456,-0.6230375858952573
8.000000000001005,1.064860909098529,-0.6511883367363934
8.200000000000895,1.1046551831182814,-0.6689773569601319
8.400000000000784,1.1375221270308638,-0.6823484428356179
8.600000000000673,1.1803956404326703,-0.689849010429228
8.800000000000562,1.2269357340834828,-0.6975293330932375
9.000000000000451,1.2815221380085566,-0.6978364800161668
9.20000000000034,1.3284914341231897,-0.7040443181542148
9.40000000000023,1.3680542367372732,-0.7124084539374529
9.600000000000119,1.3958971576508268,-0.7237469937541724
9.800000000000008,1.42549756242298,-0.7349642261427792
10.000999999999896,1.4594273652537104,-0.7477906397769657
10.200999999999786,1.5085649531747485,-0.760459018420268
10.400999999999675,1.546072089296281,-0.7744881973744343
10.600999999999564,1.581342829486789,-0.7930319910039182
10.800999999999453,1.623995690973381,-0.8188503707606671
11.000999999999342,1.66329746307415,-0.8481100764212923
11.200999999999231,1.7088073404313586,-0.8733341846378625
11.40099999999912,1.7465919735268167,-0.8970687793032218
11.60099999999901,1.7964419313889632,-0.9152094883593452
11.800999999998899,1.83972305542423,-0.9330490267951714
12.000999999998788,1.8784595885136666,-0.9577057018474232
12.200999999998677,1.912977731636355,-0.9854111734692942
12.400999999998566,1.943439371055438,-1.011108779398203
12.600999999998455,1.9916036128299552,-1.027053744448009
12.800999999998345,2.0333307349936254,-1.040679992680466
13.000999999998234,2.0654626967893654,-1.053599364688462
13.200999999998123,2.094388060054804,-1.062180171278426
13.400999999998012,2.1331565663615932,-1.0658059606209718
13.600999999997901,2.1814078733621436,-1.062506014128852
13.80099999999779,2.2211387694005738,-1.0692362200862109
14.00099999999768,2.2671766784600313,-1.0774661354573725
14.200999999997569,2.3202197918178085,-1.0785339335506643
14.400999999997458,2.3789518142456667,-1.0856778393024151
14.600999999997347,2.4299268554557303,-1.1184313559424346
14.800999999997236,2.470433673021093,-1.1615225215488114
15.000999999997125,2.5004399242847954,-1.2018789911580168
15.200999999997014,2.5322102585046653,-1.2396580045013499
15.400999999996904,2.556351430604232,-1.2753695131555747
15.600999999996793,2.5813226344641236,-1.297092461120129
15.800999999996682,2.60097248596144,-1.318868189334599
16.000999999996573,2.63309631737401,-1.3433348285060525
16.200999999996817,2.670569998651328,-1.369956592349639
16.40099999999706,2.704347340122199,-1.3963928723926489
16.600999999997306,2.74562347925918,-1.4198516392298457
16.80099999999755,2.7864320638717333,-1.4442734174750242
17.000999999997795,2.8324068499656114,-1.463749326861422
17.20099999999804,2.8797237211753286,-1.4831985472929607
17.400999999998284,2.9166032807521205,-1.4940718439353244
17.60099999999853,2.956289919871738,-1.4959841773477691
17.800999999998773,3.0035290922624327,-1.494323650211312
18.000999999999017,3.0550553645078327,-1.4967775953251123
18.20099999999926,3.1110911557234346,-1.4977857779852626
18.400999999999506,3.1562121612821445,-1.5009211215173817
18.60099999999975,3.1897228585440085,-1.5204690211734777
18.799999999999994,3.216771370355935,-1.560247823204084
19.000000000000238,3.2434618587486486,-1.598502497964891
19.200000000000482,3.2792513614201857,-1.6283928711478233
19.400000000000727,3.3164127798942538,-1.661706413301161
19.60000000000097,3.3480519029042717,-1.6967791501934029
19.800000000001216,3.376205170776789,-1.729506385415308
20.00000000000146,3.419484520235594,-1.7622220077849486
