Time (s),X (m),Y (m)
0.001,-0.0004427414248986554,0.0007899207378008392
0.20000000000000015,0.0031620557354322984,-0.0027146813643888503
0.4000000000000003,0.006093638625464659,-0.0029656278469241334
0.6000000000000004,0.007293886099135061,-0.0010838053776843276
0.8000000000000006,0.007651879814670118,0.006511280802888978
1.0000000000000007,0.01275896597326616,-5.7838462133136986e-05
1.2009999999999785,0.025341838797473485,-0.009453673065475999
1.4009999999999565,0.03413394556671898,-0.01284624056189008
1.6009999999999345,0.0442399775591578,-0.013318997950701596
1.8009999999999124,0.05987504945654534,-0.016810740343183923
2.0009999999998906,0.08363380541713014,-0.009041216122615575
2.2009999999998686,0.09707173429303549,-0.008902767596356682
2.4009999999998466,0.11269917162584174,-0.005679645078966386
2.6009999999998246,0.13153330197780463,0.004370084678230884
2.8009999999998025,0.1457230868020478,0.0018355047456168432
3.0009999999997805,0.16042345505498543,0.005993004681874695
3.2009999999997585,0.17813366717594536,0.0030991322690952423
3.4009999999997365,0.1977521344669466,-0.0023469317560867245
3.6009999999997144,0.21568467387299142,-0.01086890649704656
3.8009999999996924,0.23222749902456716,-0.020572106939030527
4.000999999999671,0.25352651991290326,-0.022547374623869472
4.200999999999738,0.27562845052168455,-0.02545022819276265
4.400999999999804,0.2937195747678011,-0.035960571781952784
4.600999999999871,0.312860028030058,-0.03918929168691102
4.800999999999938,0.3274920582943169,-0.029518427019154466
5.000000000000004,0.34154763151206496,-0.019606818242028628
5.200000000000071,0.3609249821866936,-0.019186778797512804
5.400000000000138,0.3805385057777881,-0.022503272900495086
5.600000000000205,0.3931914640405654,-0.02830365666660903
5.800000000000272,0.40544405532306205,-0.04393357813051186
6.000000000000338,0.4222056368326675,-0.04519562533617246
6.200000000000405,0.4400956304488984,-0.04514985239247609
6.400000000000472,0.44969407678653933,-0.05612649452661788
6.600000000000539,0.4577749122586855,-0.06795592586906907
6.800000000000606,0.46600971384945905,-0.08008860362046376
7.000000000000672,0.47551774849862344,-0.08499773223757966
7.200000000000739,0.4830751693561901,-0.09936465464802102
7.400000000000806,0.4945146583636462,-0.11973457322912896
7.600000000000873,0.5028356258651947,-0.13414990925176548
7.8000000000009395,0.511850423480178,-0.14963472172816528
8.000000000001005,0.5249653957254322,-0.15853272283968994
8.200000000000895,0.5356835012280178,-0.16710481751951825
8.400000000000784,0.5422871948286451,-0.1905600927649511
8.600000000000673,0.5526523435612429,-0.20515914347308617
8.800000000000562,0.5635901234203398,-0.21807405001304506
9.000000000000451,0.5718568489429823,-0.22913404083050362
9.20000000000034,0.5816394854997031,-0.248326222976093
9.40000000000023,0.5927536330276221,-0.2650570791095986
9.600000000000119,0.5963723425010241,-0.2868323654984296
9.800000000000008,0.6044742232908892,-0.30621016100706805
10.000999999999896,0.6124726383380734,-0.3294258990739688
10.200999999999786,0.6245370345981271,-0.3522207368336097
10.400999999999675,0.6334534925571342,-0.36848414218919007
10.600999999999564,0.6423457163888935,-0.3867853362171265
10.800999999999453,0.6490410286719864,-0.40059775371919965
11.000999999999342,0.6489427811920941,-0.41956619522876987
11.200999999999231,0.6513336970078144,-0.4406211457126524
11.40099999999912,0.661159082251312,-0.4597175083996498
11.60099999999901,0.6618454566983987,-0.48319829928131536
11.800999999998899,0.664066364778771,-0.5179265510037018
12.000999999998788,0.6718504660945855,-0.5351206702035287
12.200999999998677,0.6762474238479598,-0.550052448574438
12.400999999998566,0.6806781628281985,-0.5637993864186426
12.600999999998455,0.6923235410922619,-0.5748129087152372
12.800999999998345,0.6990620412038632,-0.5835334502211789
13.000999999998234,0.711836015368512,-0.5949303070055136
13.200999999998123,0.71821895344905,-0.6041924418884038
13.400999999998012,0.729833538251377,-0.6136875057998389
13.600999999997901,0.7433402763032295,-0.6235177713846445
13.80099999999779,0.7509920627612683,-0.6404661818820547
14.00099999999768,0.7535382673242684,-0.6572211891145002
14.200999999997569,0.7546435575155,-0.6762141132398123
14.400999999997458,0.7663454961439073,-0.6917294842776968
14.600999999997347,0.7718116114938737,-0.7127686717041672
14.800999999997236,0.7778735891376274,-0.7327334494209586
15.000999999997125,0.7809996233522537,-0.7546017837075204
15.200999999997014,0.7741910581533769,-0.7794970302803477
15.400999999996904,0.7673350242810657,-0.8074524187511473
15.600999999996793,0.7632178349300999,-0.8307171159127961
15.800999999996682,0.7639865200799911,-0.8560560926027322
16.000999999996573,0.7626227949813176,-0.878694854982043
16.200999999996817,0.7615097930227124,-0.9006922108595551
16.40099999999706,0.7663482196459858,-0.9096383750638903
16.600999999997306,0.7692313057443035,-0.9344452140527101
16.80099999999755,0.774932079758757,-0.959630742128209
17.000999999997795,0.776261951153724,-0.9806937999281108
17.20099999999804,0.7794224279201479,-1.0039499105542853
17.400999999998284,0.7809972702555436,-1.0284395869990022
17.60099999999853,0.7822105374509705,-1.0496969799071305
17.800999999998773,0.7830430396293558,-1.0724590083376526
18.000999999999017,0.7829712034346918,-1.0893666023782904
18.20099999999926,0.7916875711142338,-1.102643967153947
18.400999999999506,0.800008932154233,-1.116155127278533
18.60099999999975,0.8001474877434618,-1.1383350397419725
18.799999999999994,0.8040722517932709,-1.160551054576586
19.000000000000238,0.8107179360812717,-1.1808210652552962
19.200000000000482,0.8096597499826728,-1.1999553102213787
19.400000000000727,0.8119440250980046,-1.2179580964855867
19.60000000000097,0.813159549967638,-1.2365248711164825
19.800000000001216,0.8145144404967175,-1.2525399156345705
20.00000000000146,0.8122433942032412,-1.2675472165120474
