Time (s),X (m),Y (m)
0.001,-0.0005698399629515257,-0.0006628221997479689
0.20000000000000015,0.005073066320164874,0.0042432925233108956
0.4000000000000003,0.00247664827482281,0.00638114024398408
0.6000000000000004,4.656554051328038e-05,0.010514833629316019
0.8000000000000006,0.012239495604124137,0.013428295763788668
1.0000000000000007,0.03421852717004537,0.0069917306133428295
1.2009999999999785,0.058824549641384304,-0.005662497832619251
1.4009999999999565,0.08365703003589392,-0.02274186357845171
1.6009999999999345,0.10679781779043522,-0.0450459238516725
1.8009999999999124,0.13469817009748558,-0.06996954184068836
2.0009999999998906,0.1691320716104795,-0.0910214372621145
2.2009999999998686,0.21947384433934441,-0.11752658046345565
2.4009999999998466,0.26784653406803377,-0.1499397614640106
2.6009999999998246,0.31138622685038453,-0.18738333350499098
2.8009999999998025,0.34571883724460156,-0.22282237230651636
3.0009999999997805,0.38124185691192863,-0.25363950478476016
3.2009999999997585,0.4106413878638024,-0.29317682990864785
3.4009999999997365,0.44385940986705563,-0.3338273249264551
3.6009999999997144,0.48408117142956647,-0.37376591533765763
3.8009999999996924,0.5261451696941953,-0.4175620165542851
4.000999999999671,0.5713511338975412,-0.4669146992786463
4.200999999999738,0.6246670563160718,-0.5194629239247566
4.400999999999804,0.6689556824879993,-0.5767253667106055
4.600999999999871,0.724415878330347,-0.6365715348986362
4.800999999999938,0.7764623526882622,-0.695365267436298
5.000000000000004,0.8325782796300851,-0.7587670095616569
5.200000000000071,0.8888756424325257,-0.8254918750805846
5.400000000000138,0.9322769814345183,-0.8964475788249158
5.600000000000205,0.9414110543067624,-0.9601432393109961
5.800000000000272,0.9179804263940845,-1.0237213885836909
6.000000000000338,0.8780078249758017,-1.0764796006478297
6.200000000000405,0.8284708195363757,-1.1168991383119375
6.400000000000472,0.7686611673667127,-1.1406338692013158
6.600000000000539,0.7088117770007805,-1.1598612149606855
6.800000000000606,0.6518030845485787,-1.1728725330348677
7.000000000000672,0.5915019553442863,-1.1624062254388512
7.200000000000739,0.5232911612331739,-1.1253156411302305
7.400000000000806,0.45856282909908735,-1.0750211662642561
7.600000000000873,0.3983976592157916,-1.017395773037139
7.8000000000009395,0.34963386559964177,-0.9534658746623855
8.000000000001005,0.29767650886928687,-0.8775597727360166
8.200000000000895,0.23861984885952614,-0.7914155720257706
8.400000000000784,0.17922183053052393,-0.6984565710429951
8.600000000000673,0.12591845813869115,-0.6063068833771373
8.800000000000562,0.09513007601198466,-0.5153949412493335
9.000000000000451,0.09950956596267371,-0.4296838432675859
9.20000000000034,0.13173449150426042,-0.35678156867197947
9.40000000000023,0.17826250227479906,-0.2986944259118266
9.600000000000119,0.22926036278642375,-0.2526260779926511
9.800000000000008,0.2967074097843696,-0.2077433031156696
10.000999999999896,0.3601689086414248,-0.16529894571696577
10.200999999999786,0.414565541786177,-0.14832634728957134
10.400999999999675,0.45508534805890394,-0.15260003872762673
10.600999999999564,0.48280602141370405,-0.17600606883277392
10.800999999999453,0.4938786359491091,-0.21613240347616725
11.000999999999342,0.49700607970504046,-0.28515856232137105
11.200999999999231,0.49414286644535216,-0.35637505434273486
11.40099999999912,0.4915903567009848,-0.41555417249486865
11.60099999999901,0.47357119266185893,-0.44886050123601257
11.800999999998899,0.44285548353425314,-0.4850057039806972
12.000999999998788,0.40279241491821743,-0.5355366605853125
12.200999999998677,0.3552945405952785,-0.5948240350321421
12.400999999998566,0.3070601761007181,-0.6472019909776573
12.600999999998455,0.2524679287388724,-0.7036416762031522
12.800999999998345,0.19178435426480864,-0.7564841779665957
13.000999999998234,0.12585876754101488,-0.8087113311408631
13.200999999998123,0.06887862236397141,-0.8369108888069867
13.400999999998012,0.01795810719851109,-0.8318593232546163
13.600999999997901,-0.029318699545585292,-0.8036096728348742
13.80099999999779,-0.06655746870226457,-0.7699943673850775
14.00099999999768,-0.12003375317578946,-0.7229718204224941
14.200999999997569,-0.17144438494169806,-0.6652159580292881
14.400999999997458,-0.22440970896700424,-0.5913906826283207
14.600999999997347,-0.2739753558498445,-0.5141069509822718
14.800999999997236,-0.29758043636073217,-0.4463374597325938
15.000999999997125,-0.2925677992708082,-0.40105400453288187
15.200999999997014,-0.267571528327478,-0.3451158084044725
15.400999999996904,-0.23065285726441384,-0.2772942558417165
15.600999999996793,-0.18524049561957256,-0.19702428410696962
15.800999999996682,-0.14135795271469928,-0.10918948293823137
16.000999999996573,-0.09092314199516452,-0.020458408115100947
16.200999999996817,-0.030615606482616187,0.06437890479684368
16.40099999999706,0.03767773415252467,0.14642239865938148
16.600999999997306,0.11267571679459462,0.2207993361711304
16.80099999999755,0.19785457361947748,0.2850687483729932
17.000999999997795,0.2858227578807665,0.3220853923249134
17.20099999999804,0.36726910169416077,0.32551756909384205
17.400999999998284,0.4374789266343398,0.29891317895032604
17.60099999999853,0.4966398180876815,0.25211603732892296
17.800999999998773,0.5539236541303446,0.19649004322122052
18.000999999999017,0.6126325328079971,0.1354034516617012
18.20099999999926,0.6732847277356628,0.056813973845240326
18.400999999999506,0.7262490436868572,-0.016011644688187925
18.60099999999975,0.7549585916684427,-0.06746509809529976
18.799999999999994,0.7523135141601316,-0.11497320095904523
19.000000000000238,0.7152303738886253,-0.16680201962033356
19.200000000000482,0.6561140024962484,-0.2167734351752109
19.400000000000727,0.5756197867888404,-0.2679470376505655
19.60000000000097,0.4961426370544821,-0.3035101986855735
19.800000000001216,0.43763326759699483,-0.3054193727894055
20.00000000000146,0.39047157700947877,-0.2830267246256987
