Time (s),X (m),Y (m)
0.001,0.0010647643868879006,-0.0005914538325516239
0.20000000000000015,-0.0015489709817769098,0.004956936938882276
0.4000000000000003,0.002187207058589803,0.005173662295554442
0.6000000000000004,0.007474725138234112,0.011962070679909767
0.8000000000000006,0.020167653653165217,0.016925860391640925
1.0000000000000007,0.03895628440321235,0.018944318887506827
1.2009999999999785,0.058853612648498255,0.021131563000017912
1.4009999999999565,0.0903689532949542,0.012412175330216046
1.6009999999999345,0.1178392974243929,0.006921334245326624
1.8009999999999124,0.14427503179495024,0.0054749028623294685
2.0009999999998906,0.16931365948783836,-0.007501833923361711
2.2009999999998686,0.1926149713751972,-0.00864829404629132
2.4009999999998466,0.21861397437824245,-0.008771217265231432
2.6009999999998246,0.25233388558998204,-0.018521566981598857
2.8009999999998025,0.2799050054749642,-0.020158575560848782
3.0009999999997805,0.30451291341105463,-0.013894522715399475
3.2009999999997585,0.3301741948574105,-0.016422439780612242
3.4009999999997365,0.34990720863640445,-0.01476824552091325
3.6009999999997144,0.36832873422779067,-0.022909177451691794
3.8009999999996924,0.39730087687398385,-0.03106473857448923
4.000999999999671,0.42760170738352155,-0.05215676435398843
4.200999999999738,0.4551225521816172,-0.07569014513288759
4.400999999999804,0.4760679621168762,-0.09958810460549426
4.600999999999871,0.4942434090323287,-0.11896358532811058
4.800999999999938,0.5067908848630582,-0.1524052480576124
5.000000000000004,0.514388023167605,-0.17543647160847275
5.200000000000071,0.521775380745414,-0.1897115905020807
5.400000000000138,0.525106247358086,-0.2129910235467666
5.600000000000205,0.5281742342005111,-0.23527981191644914
5.800000000000272,0.5290459517262867,-0.26604120570727274
6.000000000000338,0.5282157930533425,-0.2999107291899974
6.200000000000405,0.5222483647386118,-0.3409303796873337
6.400000000000472,0.5030908809920926,-0.38157214230111725
6.600000000000539,0.478874152208251,-0.4179068774549308
6.800000000000606,0.4555253850536897,-0.45192691337991553
7.000000000000672,0.43238233028256146,-0.48785539124644306
7.200000000000739,0.41580664832913544,-0.5196719535282502
7.400000000000806,0.39729187151501527,-0.5483028301519342
7.600000000000873,0.37651420160266147,-0.5695341639176803
7.8000000000009395,0.34407318929652725,-0.5795312747217938
8.000000000001005,0.3032539631176724,-0.5707129107514428
8.200000000000895,0.2631649741535971,-0.5583860234460255
8.400000000000784,0.21393250286376064,-0.546582766095447
8.600000000000673,0.1819315503877481,-0.5368501395044722
8.800000000000562,0.14855357999659047,-0.5322795268645748
9.000000000000451,0.11001579968761752,-0.5165238807949624
9.20000000000034,0.0761960025403195,-0.5093455146998782
9.40000000000023,0.045835752171522456,-0.5120534866525603
9.600000000000119,0.017588824270818607,-0.509394237306276
9.800000000000008,-0.010627521174719783,-0.48792791553850584
10.000999999999896,-0.03882380826919575,-0.4639596953480287
10.200999999999786,-0.06800547837159421,-0.4276187295443886
10.400999999999675,-0.09162804886923925,-0.4016918233725878
10.600999999999564,-0.1073762294843076,-0.3670553587421232
10.800999999999453,-0.11115488368737883,-0.32516500071350424
11.000999999999342,-0.10491230062899698,-0.2817870262745631
11.200999999999231,-0.09666142541706937,-0.23634814689115255
11.40099999999912,-0.08284157535041127,-0.18751938864530807
11.60099999999901,-0.0693921607948846,-0.1389436220866037
11.800999999998899,-0.06548434687204302,-0.09669958537412505
12.000999999998788,-0.0753427816086636,-0.059789538166361206
12.200999999998677,-0.07231822474366495,-0.02008674470153913
12.400999999998566,-0.06561846293317598,0.016336736181798737
12.600999999998455,-0.039522724721059735,0.04527548091051595
12.800999999998345,-0.009694427388257746,0.06243584937763293
13.000999999998234,0.022552851377229857,0.06967039497742372
13.200999999998123,0.055371091644762005,0.06816474431644716
13.400999999998012,0.09137094549531347,0.05891872004162069
13.600999999997901,0.12112769417785636,0.04311702058894071
13.80099999999779,0.15682236716108222,0.02321110968195304
14.00099999999768,0.19232219894141825,0.0015750668745044979
14.200999999997569,0.2298925238062476,-0.021709092118792326
14.400999999997458,0.26748898404360383,-0.04793093606329973
14.600999999997347,0.29624095648424087,-0.08683926162029913
14.800999999997236,0.3115376335220102,-0.13604510447412152
15.000999999997125,0.3205766962611504,-0.16187503378829074
15.200999999997014,0.32207406224978835,-0.19984707842874475
15.400999999996904,0.3100491477087526,-0.25237604814483144
15.600999999996793,0.3003441544050538,-0.3019189846774092
15.800999999996682,0.29644085319189967,-0.3419448784036859
16.000999999996573,0.2719463638233267,-0.3748789036541242
16.200999999996817,0.23001733711232028,-0.3898045822483222
16.40099999999706,0.19415887291643547,-0.39910313794638447
16.600999999997306,0.1580292699295981,-0.3942731761787075
16.80099999999755,0.11442458402228989,-0.37614665944539427
17.000999999997795,0.06746450664035426,-0.3499608044170468
17.20099999999804,0.022523740408703072,-0.3185987729584199
17.400999999998284,-0.017092033727875003,-0.2848270969648115
17.60099999999853,-0.042179098667832426,-0.253809273915841
17.800999999998773,-0.04819798963593833,-0.21632727947212577
18.000999999999017,-0.04550040784976505,-0.17483683402376154
18.20099999999926,-0.03799594897667194,-0.138517043389601
18.400999999999506,-0.021212052226024555,-0.10261822101092823
18.60099999999975,0.013276282691532441,-0.06370374495147571
18.799999999999994,0.05899081058463866,-0.03884250571483965
19.000000000000238,0.10473324475665186,-0.030332860571693435
19.200000000000482,0.14114501570302415,-0.030526138418352364
19.400000000000727,0.1692368768277258,-0.025099391670291783
19.60000000000097,0.20233950597129666,-0.025662934350303823
19.800000000001216,0.2409340857604442,-0.03812728228899051
20.00000000000146,0.2905703912880051,-0.057320611491264446
