Time (s),X (m),Y (m)
0.001,-0.0005698399629515257,0.0006628221997479692
0.20000000000000015,-0.0014165218876373837,0.0027155795891206013
0.4000000000000003,0.0007482451962904109,0.0051336670947259525
0.6000000000000004,0.0021632771013176365,0.0036733729052511005
0.8000000000000006,0.00683829197992042,0.003334950779970909
1.0000000000000007,0.017465470875180442,-3.2711341682255066e-05
1.2009999999999785,0.02590335699476227,-0.0013748871044021653
1.4009999999999565,0.0370839574146335,-0.0037360869663720904
1.6009999999999345,0.050973761935529265,-0.005696140993724969
1.8009999999999124,0.05504148257810776,-0.004729197777144757
2.0009999999998906,0.06299602586230241,-0.006516196021174287
2.2009999999998686,0.07315115754818283,-0.009057691820124609
2.4009999999998466,0.08248501560582744,-0.010572315010458107
2.6009999999998246,0.08861983241872295,-0.009769487924357601
2.8009999999998025,0.09536254790821988,-0.007795729238646957
3.0009999999997805,0.10401694076064669,-0.009159328696473389
3.2009999999997585,0.11289825905659032,-0.009815901976529522
3.4009999999997365,0.11012831969948765,-0.007438894203187168
3.6009999999997144,0.11299085706616684,-0.004728429423559708
3.8009999999996924,0.12254021954846515,-0.0027375677311666765
4.000999999999671,0.13272633948132045,-0.0014714109375168155
4.200999999999738,0.13623474550391368,0.001419706774190878
4.400999999999804,0.14368670412406398,0.0031936794383651533
4.600999999999871,0.14935783684062595,0.004231847971841317
4.800999999999938,0.15554617930355435,0.0066133188209261725
5.000000000000004,0.1618260865514998,0.007906626845342553
5.200000000000071,0.1652449400964853,0.010421214802578859
5.400000000000138,0.16993775261479876,0.011936633022564735
5.600000000000205,0.17387822861514343,0.01354442586306721
5.800000000000272,0.18199656694843447,0.015332421935107908
6.000000000000338,0.19251366372456868,0.01661633457340508
6.200000000000405,0.19927672484566986,0.017553626517700854
6.400000000000472,0.20196439198454308,0.01958432727284074
6.600000000000539,0.20742275528927348,0.0200099566166907
6.800000000000606,0.20633056029475108,0.02144501726386332
7.000000000000672,0.20844664155362572,0.024811464506311807
7.200000000000739,0.21343566274259976,0.027003527423487272
7.400000000000806,0.2215888039913012,0.0288125187921006
7.600000000000873,0.22849402763571194,0.029946621401789584
7.8000000000009395,0.23832801724716046,0.03015648653266329
8.000000000001005,0.2412235011811181,0.0317326925663797
8.200000000000895,0.24541030610442488,0.03283095353239909
8.400000000000784,0.2507194529759155,0.03360230356173799
8.600000000000673,0.2563028453438426,0.036106602950288134
8.800000000000562,0.26422367794899976,0.03782100112233216
9.000000000000451,0.273334477999482,0.03795529254975963
9.20000000000034,0.28010344987091346,0.03931895967018979
9.40000000000023,0.2891490503179727,0.03951108910173346
9.600000000000119,0.29292820544044174,0.04211258545605671
9.800000000000008,0.29704878002743523,0.04384549895966524
10.000999999999896,0.30382553903118564,0.04551507069969956
10.200999999999786,0.3094141313221766,0.049099255733862944
10.400999999999675,0.3145960687583158,0.05144799179649342
10.600999999999564,0.32032127513206177,0.0552102308833849
10.800999999999453,0.32384953434806135,0.055504020816606874
11.000999999999342,0.3275147742102698,0.05673483250280364
11.200999999999231,0.3312744331071794,0.057808313858976716
11.40099999999912,0.3395540751175773,0.05934265825249525
11.60099999999901,0.3439468668854112,0.060805916359374566
11.800999999998899,0.3528114081164155,0.06326812015054321
12.000999999998788,0.3531779479767448,0.06359197819340598
12.200999999998677,0.36100910853268553,0.06505997333255703
12.400999999998566,0.37301530139390904,0.06531265321254802
12.600999999998455,0.37951626331544236,0.06744004027832431
12.800999999998345,0.3824171284106771,0.07006752478546888
13.000999999998234,0.38866079626615596,0.07232893234667861
13.200999999998123,0.39604968433535676,0.07341531504338036
13.400999999998012,0.406058027450553,0.07367922239743259
13.600999999997901,0.40911598029913654,0.07648161309853135
13.80099999999779,0.41837498047684657,0.07808277122212372
14.00099999999768,0.42454141681776625,0.08036709666613753
14.200999999997569,0.4308383605388398,0.08306199723284888
14.400999999997458,0.43596568255732826,0.0846243300055795
14.600999999997347,0.4397883518479419,0.0888228211855454
14.800999999997236,0.4464140229752327,0.09001753204909305
15.000999999997125,0.45335462482626404,0.09237595733479824
15.200999999997014,0.4612519645734471,0.09235686789239886
15.400999999996904,0.46684662031558327,0.0930992200451789
15.600999999996793,0.47381899783093845,0.09403616742446681
15.800999999996682,0.47800662868839316,0.09658356649493949
16.000999999996573,0.48173989288835745,0.0984600309106567
16.200999999996817,0.4880858722779945,0.09975774101885941
16.40099999999706,0.48782459876305745,0.10458086147638626
16.600999999997306,0.48935042850149163,0.10685828134539516
16.80099999999755,0.4973398674843621,0.10878275752451345
17.000999999997795,0.5003489679272398,0.11061170420398116
17.20099999999804,0.5065886815656961,0.11352705903287337
17.400999999998284,0.5147665705866957,0.1146657211601948
17.60099999999853,0.5199272550757896,0.1170262434463033
17.800999999998773,0.5215798570436428,0.11886430183102095
18.000999999999017,0.5300823248038316,0.12136093850200184
18.20099999999926,0.529781233569624,0.12339469516893006
18.400999999999506,0.529611830525979,0.12438748176991547
18.60099999999975,0.5339568564584803,0.12607033815277535
18.799999999999994,0.5402274886386808,0.12930020087182817
19.000000000000238,0.547651189175466,0.13281638966045115
19.200000000000482,0.5552008592837822,0.13420033143143473
19.400000000000727,0.5589520924650573,0.13630113644357605
19.60000000000097,0.5641005691001861,0.13821645932619714
19.800000000001216,0.5715026160150356,0.1403772534334853
20.00000000000146,0.5800649302057662,0.14216407869537664
