Time (s),X (m),Y (m)
0.001,-0.0007489004572251305,0.00035268032603768894
0.20000000000000015,0.0018459572494487911,-0.00016548325329101264
0.4000000000000003,0.002379780922507376,-0.0002529900105412276
0.6000000000000004,0.005447664741168513,-0.000714047443371024
0.8000000000000006,0.009190430157809244,-0.0023691771248118567
1.0000000000000007,0.009414780648676745,-0.0009622008906083373
1.2009999999999785,0.01371965230103812,-0.0018018366366115758
1.4009999999999565,0.0159058993882143,-0.002246748715262495
1.6009999999999345,0.018287167981847076,-0.003037255716843197
1.8009999999999124,0.020309208296401666,-0.003745913115764926
2.0009999999998906,0.02198380656201195,-0.004424928527927465
2.2009999999998686,0.02452292904522039,-0.005161084027584701
2.4009999999998466,0.026749537341690652,-0.0058925402144287525
2.6009999999998246,0.028884476018027846,-0.0065921832608428965
2.8009999999998025,0.031624095985140564,-0.0074131287157540434
3.0009999999997805,0.03361193856377065,-0.008110212589254023
3.2009999999997585,0.03630267893551331,-0.008891569948948175
3.4009999999997365,0.03895106575031917,-0.00958910644888965
3.6009999999997144,0.041741737833126465,-0.010327771449866074
3.8009999999996924,0.044575712241295,-0.010983158554481197
4.000999999999671,0.047491740959230595,-0.011687632186495428
4.200999999999738,0.0504118051529848,-0.012314304254595693
4.400999999999804,0.05340924965862676,-0.012975023655882326
4.600999999999871,0.05637329891511437,-0.013496077377830677
4.800999999999938,0.05941912244828546,-0.014040823197775354
5.000000000000004,0.06246206679460173,-0.014456108356011165
5.200000000000071,0.06556186065350032,-0.014896533163030003
5.400000000000138,0.06842762945978333,-0.01514837758038777
5.600000000000205,0.07149589458303039,-0.015430268068848714
5.800000000000272,0.07452239417391233,-0.015617309664138851
6.000000000000338,0.07767675308388958,-0.01584571939049352
6.200000000000405,0.08063337793531733,-0.015826073920174783
6.400000000000472,0.08367824996076541,-0.01578783465336108
6.600000000000539,0.08686131220929923,-0.015481526860531497
6.800000000000606,0.08982967407968472,-0.015272870342071893
7.000000000000672,0.09259268699601339,-0.014720519312908312
7.200000000000739,0.09543102820079272,-0.014359271408137628
7.400000000000806,0.09800529874055851,-0.013652812878779596
7.600000000000873,0.10073401327187416,-0.013038495613808845
7.8000000000009395,0.10329806897462504,-0.012214739599168512
8.000000000001005,0.1055063288571201,-0.010881646473195271
8.200000000000895,0.10760156479819707,-0.005866773202518961
8.400000000000784,0.10944848281738521,-0.0005982519405299166
8.600000000000673,0.11171294473576705,0.005037726258214672
8.800000000000562,0.11299810170783875,0.00981645084986697
9.000000000000451,0.11436456877835212,0.014872633494869173
9.20000000000034,0.1154467925724052,0.019396685722302257
9.40000000000023,0.11647142516116187,0.02425588767941691
9.600000000000119,0.11754716639032446,0.02890937065313363
9.800000000000008,0.11809908365739255,0.03331384208421878
10.000999999999896,0.11823372777612075,0.03755997082665352
10.200999999999786,0.1180291411939959,0.04206289139318992
10.400999999999675,0.11772284618212901,0.04624423823907568
10.600999999999564,0.11759029848964632,0.05067972338175123
10.800999999999453,0.11682387845199253,0.05450207209901008
11.000999999999342,0.11570028939295918,0.05858176709252274
11.200999999999231,0.11421452533920239,0.06260053203705807
11.40099999999912,0.1137214400295986,0.06694876194758605
11.60099999999901,0.1126658787913479,0.07106789777487568
11.800999999998899,0.11225371876775918,0.07558521249647442
12.000999999998788,0.11213532915939395,0.07976935730261209
12.200999999998677,0.1127294305043746,0.08406211767219378
12.400999999998566,0.11530466377658952,0.0862817538429037
12.600999999998455,0.11819231447970377,0.0879617870190598
12.800999999998345,0.12143860485199656,0.08945404785272153
13.000999999998234,0.12442650423234405,0.09108980448826404
13.200999999998123,0.12771703909300222,0.09283851503211939
13.400999999998012,0.13107499070672363,0.0950010973952611
13.600999999997901,0.13436819105062162,0.09705189653408165
13.80099999999779,0.13754439800645313,0.09940342224092726
14.00099999999768,0.14121556241949837,0.10194866908030488
14.200999999997569,0.14437605615443005,0.1045576908412807
14.400999999997458,0.1478002199956568,0.10712874149108154
14.600999999997347,0.15114751802256188,0.11022246206422633
14.800999999997236,0.15415267684630393,0.11328435628430591
15.000999999997125,0.15665443933187878,0.11788128780607504
15.200999999997014,0.15762705741580557,0.12424319650945186
15.400999999996904,0.15902031884458243,0.13151327295539894
15.600999999996793,0.15984703003502343,0.13846373007383034
15.800999999996682,0.16028075582394966,0.14531206873433455
16.000999999996573,0.16009550463873023,0.15239177887700825
16.200999999996817,0.15941821338791357,0.15973010461844078
16.40099999999706,0.15896720459878938,0.16656485065781818
16.600999999997306,0.15840668499052296,0.173380692841966
16.80099999999755,0.15739145388231965,0.1791891922104808
17.000999999997795,0.1563495633078679,0.18530726988345672
17.20099999999804,0.15517165855089338,0.1911199800331861
17.400999999998284,0.15379632482150946,0.19691611514116153
17.60099999999853,0.1523909575876536,0.20233687717271015
17.800999999998773,0.15111314102913004,0.20842248416091547
18.000999999999017,0.14953589895489422,0.2135936686593959
18.20099999999926,0.14806621628540154,0.21939722336353018
18.400999999999506,0.146325603626566,0.22424234507812044
18.60099999999975,0.14472938220377682,0.22960639632653793
18.799999999999994,0.14274954236229442,0.23400619157726046
19.000000000000238,0.14099755315790402,0.2383315699672151
19.200000000000482,0.1396810978141944,0.24270289050377428
19.400000000000727,0.13797130874884228,0.24731739633717623
19.60000000000097,0.13648114065040673,0.2514639796586573
19.800000000001216,0.13464429820491383,0.25567048926416946
20.00000000000146,0.13274075140415503,0.25898149791506414
