Time (s),X (m),Y (m)
0.001,-0.00021570977506068912,-0.0009345558501746678
0.20000000000000015,0.004108273444429525,0.005002418328717784
0.4000000000000003,0.008039123927616234,0.004464770633913801
0.6000000000000004,0.01951713688862398,-0.003144145373169293
0.8000000000000006,0.03115491544479109,-0.010217416655287966
1.0000000000000007,0.06163503229190846,-0.022873494931460098
1.2009999999999785,0.1064299750175497,-0.05023689143392536
1.4009999999999565,0.1395143329641688,-0.08426773575613894
1.6009999999999345,0.16832541633922635,-0.13314457394943138
1.8009999999999124,0.17535202166455455,-0.17610396458639854
2.0009999999998906,0.15945362141759192,-0.22127580462007085
2.2009999999998686,0.13927100420854105,-0.27194419070657966
2.4009999999998466,0.12239606936713289,-0.31669239897692125
2.6009999999998246,0.10741269606383465,-0.3695657115373163
2.8009999999998025,0.08991238079950792,-0.42122024678396885
3.0009999999997805,0.06096898107428749,-0.4772966565025586
3.2009999999997585,0.020800237000496494,-0.539464442240721
3.4009999999997365,-0.027297793783589045,-0.6044989490132229
3.6009999999997144,-0.08020583820496191,-0.6534870905244187
3.8009999999996924,-0.13518231101626232,-0.7025464138824131
4.000999999999671,-0.1845893451187394,-0.7413876250885104
4.200999999999738,-0.2232692317695294,-0.8108328731205799
4.400999999999804,-0.26419811181219366,-0.8930467085981396
4.600999999999871,-0.30952087882434814,-0.961997378490198
4.800999999999938,-0.3484036670700341,-1.0175328513685107
5.000000000000004,-0.3792165945115606,-1.0741385147130875
5.200000000000071,-0.4073179195385997,-1.129830031469809
5.400000000000138,-0.45027382322989196,-1.1855679177212168
5.600000000000205,-0.5059574822975133,-1.2429457350509947
5.800000000000272,-0.5758342349111639,-1.3049792262651685
6.000000000000338,-0.6381454173666632,-1.3793640077758529
6.200000000000405,-0.6999641252543646,-1.4565886268485726
6.400000000000472,-0.7611615733660323,-1.517388112085046
6.600000000000539,-0.8250770651703215,-1.5635676559510039
6.800000000000606,-0.8930566850856382,-1.6036939491215696
7.000000000000672,-0.9613069922947595,-1.6407890284394622
7.200000000000739,-1.0120682470748406,-1.6612150424204974
7.400000000000806,-1.039812125514875,-1.6529836497286652
7.600000000000873,-1.04711450094908,-1.6182755141411442
7.8000000000009395,-1.036312320729651,-1.5834385270808433
8.000000000001005,-0.9960853866715207,-1.5545132981031091
8.200000000000895,-0.9412403973297253,-1.5333859421454865
8.400000000000784,-0.871473120178599,-1.5193359334502952
8.600000000000673,-0.7892299215642786,-1.5091678886672795
8.800000000000562,-0.6949095984479856,-1.50668183173345
9.000000000000451,-0.5913316924245201,-1.4936188368531371
9.20000000000034,-0.49467018993424555,-1.460240622352583
9.40000000000023,-0.39989230425624495,-1.4243947707894908
9.600000000000119,-0.3018667777205506,-1.3674743232699962
9.800000000000008,-0.2050588060628847,-1.291533425905872
10.000999999999896,-0.097955945848848,-1.227639593796284
10.200999999999786,0.00517225948333534,-1.1760812004108452
10.400999999999675,0.10929814025311468,-1.1346313347305295
10.600999999999564,0.21935412606453009,-1.1020507952537255
10.800999999999453,0.33461967784887525,-1.0781148472318516
11.000999999999342,0.4542872400883112,-1.050074169524737
11.200999999999231,0.5645959344515716,-1.0176152578430722
11.40099999999912,0.6576813507074502,-0.9637605174755232
11.60099999999901,0.7324439778593429,-0.8996458135304581
11.800999999998899,0.7741492330795772,-0.8238105814178643
12.000999999998788,0.7957991862008442,-0.7478783090605731
12.200999999998677,0.8245874972105527,-0.673602802088603
12.400999999998566,0.8694565051958532,-0.5935385920808998
12.600999999998455,0.9302039069378804,-0.511474851965129
12.800999999998345,1.0068152038171108,-0.43091793262423245
13.000999999998234,1.0872912950640727,-0.38187993264376024
13.200999999998123,1.16937844786836,-0.3434050760625814
13.400999999998012,1.2586221476701487,-0.2810714794765848
13.600999999997901,1.3636418638974805,-0.20705839341187202
13.80099999999779,1.4669265054053962,-0.14956400356231409
14.00099999999768,1.5497780859973138,-0.13606799110942697
14.200999999997569,1.605413183218672,-0.1473406584587774
14.400999999997458,1.644436116164335,-0.1826620098223279
14.600999999997347,1.6563293486146407,-0.22672614669209445
14.800999999997236,1.6436307432065698,-0.2742581576084335
15.000999999997125,1.6107502435350531,-0.3076791648036005
15.200999999997014,1.5637553111862432,-0.3328493801058948
15.400999999996904,1.5195138310705438,-0.3574176075134984
15.600999999996793,1.467921206372911,-0.39235339586228224
15.800999999996682,1.4076269915632627,-0.42558183688495893
16.000999999996573,1.3408404643927354,-0.4715688233675375
16.200999999996817,1.2797288078522049,-0.5338318084658388
16.40099999999706,1.217621028181122,-0.6017477523845955
16.600999999997306,1.1392094421645897,-0.6774842310030813
16.80099999999755,1.056017974868051,-0.7334778469219647
17.000999999997795,0.9737770426177701,-0.7830382557688229
17.20099999999804,0.8927633780817625,-0.824735033222522
17.400999999998284,0.8110052521562129,-0.8509471265067418
17.60099999999853,0.7417704095622077,-0.8353161391719318
17.800999999998773,0.6802303578637291,-0.786135852563997
18.000999999999017,0.6368213325465322,-0.7233165042686964
18.20099999999926,0.6165789181723854,-0.6881016791576522
18.400999999999506,0.6224080947249422,-0.6594197051297087
18.60099999999975,0.6213346228920484,-0.610070420778202
18.799999999999994,0.6131434955813111,-0.5406352902880255
19.000000000000238,0.6048123691102573,-0.4726999118075663
19.200000000000482,0.6037786829429798,-0.4078224806393098
19.400000000000727,0.6124026043167985,-0.33521207085979426
19.60000000000097,0.6225088143475155,-0.2679399230805545
19.800000000001216,0.6376284292222973,-0.20376943023515784
20.00000000000146,0.6746778051504949,-0.14101115423795849
