Time (s),X (m),Y (m)
0.001,0.0002200807748493132,-0.0010311682891199468
0.20000000000000015,0.0014047331691924459,0.004544959236826304
0.4000000000000003,0.0031203699499092693,0.007269397762847949
0.6000000000000004,0.004127560487188009,0.006744184078373329
0.8000000000000006,0.0048530447471980724,0.0044965092640293315
1.0000000000000007,0.007746424451609912,0.005434774889424093
1.2009999999999785,0.010024524128143125,0.005014302175518803
1.4009999999999565,0.012642248039147605,0.00809621069661909
1.6009999999999345,0.015009877828189041,0.009579897389778557
1.8009999999999124,0.016881218766147735,0.009643392582813548
2.0009999999998906,0.01872101835182864,0.010515230255512856
2.2009999999998686,0.020407088490674883,0.016610349059449164
2.4009999999998466,0.021162047403289797,0.02253943045958613
2.6009999999998246,0.02191307250458862,0.02879749927970596
2.8009999999998025,0.02219183721095857,0.035114440083664135
3.0009999999997805,0.024044128421704208,0.03712364623153528
3.2009999999997585,0.028463057765991426,0.033033408908777914
3.4009999999997365,0.03352903219693816,0.029554372727731596
3.6009999999997144,0.038081526598561,0.026426148737326256
3.8009999999996924,0.04354830915545162,0.023777825480550376
4.000999999999671,0.04757540221801263,0.024489043314722025
4.200999999999738,0.04802660170738529,0.029174483371074134
4.400999999999804,0.04550559838808268,0.03483286299063459
4.600999999999871,0.043724020669597,0.04026830198622658
4.800999999999938,0.041886132107690426,0.04558111510638964
5.000000000000004,0.038592403016698106,0.0506096488205076
5.200000000000071,0.034873672877495,0.05570356038247796
5.400000000000138,0.030310925167477923,0.0603125232873438
5.600000000000205,0.025000564489462394,0.06426955390197171
5.800000000000272,0.021904830478904597,0.06679698690164124
6.000000000000338,0.02480258546709268,0.06935904507818438
6.200000000000405,0.02827119780459198,0.07272113191995667
6.400000000000472,0.025694427748590244,0.07584042644299352
6.600000000000539,0.024700871190808178,0.07878593670279319
6.800000000000606,0.019976644484779472,0.08132590503854314
7.000000000000672,0.018540194959596433,0.08504346194783624
7.200000000000739,0.021158289124686397,0.09016531775654639
7.400000000000806,0.015735514114787335,0.09291475879801543
7.600000000000873,0.011659042688884857,0.09517438279502226
7.8000000000009395,0.009777013219186972,0.09579725673153376
8.000000000001005,0.007317599726986898,0.09717981206671662
8.200000000000895,0.008447283494001335,0.10189584089445647
8.400000000000784,0.006198675826304323,0.10565111721227997
8.600000000000673,0.0053450594912866235,0.1086823535734877
8.800000000000562,0.0008994883385960917,0.10954167988290872
9.000000000000451,-0.004838987471291375,0.10989234490069204
9.20000000000034,-0.006920812632918021,0.11256216342080441
9.40000000000023,-0.00815906629008155,0.11760108938674804
9.600000000000119,-0.012482702086252623,0.11672322241095708
9.800000000000008,-0.01462372794235558,0.12089794957395605
10.000999999999896,-0.01986504230754993,0.11900239441201811
10.200999999999786,-0.021515518156268846,0.11825124848626631
10.400999999999675,-0.023378228453041043,0.12213602168944138
10.600999999999564,-0.027618033618494874,0.11871862283478027
10.800999999999453,-0.031094604910574117,0.11706015617188828
11.000999999999342,-0.0340701548265046,0.12101057271917483
11.200999999999231,-0.03852570419799711,0.12171782790972485
11.40099999999912,-0.041604063537789955,0.11895801593258432
11.60099999999901,-0.045466637894671716,0.12123215802668043
11.800999999998899,-0.04939001830793503,0.12095999580875097
12.000999999998788,-0.05171456994067478,0.11936017716852766
12.200999999998677,-0.0563197842753321,0.12139642804753421
12.400999999998566,-0.06076883727592195,0.1236731071676035
12.600999999998455,-0.06526003332575593,0.12477892866254943
12.800999999998345,-0.07036602255711563,0.12733775152842197
13.000999999998234,-0.07249430758341233,0.12257921655473936
13.200999999998123,-0.0732531776732023,0.1179945651317972
13.400999999998012,-0.07962765092790972,0.11964217140740112
13.600999999997901,-0.08178078825538593,0.11712284723837171
13.80099999999779,-0.08079264457458461,0.11134465981602391
14.00099999999768,-0.08512428064576044,0.11122185942748346
14.200999999997569,-0.0869356666523957,0.10793165277915245
14.400999999997458,-0.08761740984556221,0.10486713348801861
14.600999999997347,-0.09117021339380715,0.10280803445823838
14.800999999997236,-0.08885390850810734,0.09779952674387817
15.000999999997125,-0.0937618885303647,0.09558887679189859
15.200999999997014,-0.09505482063314094,0.09195773377091636
15.400999999996904,-0.09541662879904717,0.0889836188196664
15.600999999996793,-0.09924754945568019,0.08697372575424715
15.800999999996682,-0.0955653760836107,0.08278822439582177
16.000999999996573,-0.09154180022078764,0.08039142057866942
16.200999999996817,-0.09034457219184505,0.07732023113044462
16.40099999999706,-0.09284593670482512,0.0741248957208682
16.600999999997306,-0.0901542497099369,0.06976925286434586
16.80099999999755,-0.08940664078893144,0.06654419093195652
17.000999999997795,-0.08711725302745679,0.06555750002880396
17.20099999999804,-0.08342613673501259,0.06401558700579955
17.400999999998284,-0.07980233832845803,0.06193003589296939
17.60099999999853,-0.08011068504102993,0.05787406283535393
17.800999999998773,-0.07986906944555003,0.05359990175525259
18.000999999999017,-0.07416396605863076,0.05127958320318234
18.20099999999926,-0.07037626071517952,0.0492440911747349
18.400999999999506,-0.07094029876968577,0.04516106080574285
18.60099999999975,-0.06720054650983448,0.04336663273318008
18.799999999999994,-0.06101673717219421,0.043826251583911936
19.000000000000238,-0.05745734991172383,0.04047332290827341
19.200000000000482,-0.056674158385297296,0.034945540410456555
19.400000000000727,-0.05213546609924861,0.0353132365347262
19.60000000000097,-0.05048139922142673,0.0319068199704865
19.800000000001216,-0.046606135585739936,0.032215058652994615
20.00000000000146,-0.04355405942100157,0.02962070667261309
