Time (s),X (m),Y (m)
0.001,0.0007356649194092869,0.0008930179339548111
0.20000000000000015,-0.0020040219410909234,-0.003572969607090505
0.4000000000000003,-0.0021827958155018,-0.008118546360681331
0.6000000000000004,0.0030258087768204175,-0.004195554928173578
0.8000000000000006,0.022750321424283567,0.009296731031585513
1.0000000000000007,0.04815052025587605,0.027126030089734687
1.2009999999999785,0.07843969370943969,0.03341077251808468
1.4009999999999565,0.10691836336152732,0.027793443474971775
1.6009999999999345,0.12945094491734815,0.022304407502779754
1.8009999999999124,0.15729045862485225,0.027550508840697874
2.0009999999998906,0.1871593699395731,0.04073263012380907
2.2009999999998686,0.21764786628211966,0.039811136116396424
2.4009999999998466,0.24602146327410496,0.04559470426006507
2.6009999999998246,0.27347629545631225,0.040588652330522806
2.8009999999998025,0.3037836217001195,0.052555676342797134
3.0009999999997805,0.3458464128420779,0.056888162868744215
3.2009999999997585,0.3887043487945184,0.06771530314949822
3.4009999999997365,0.42543169934060576,0.07596467525211667
3.6009999999997144,0.46349610423449006,0.08240234069971965
3.8009999999996924,0.49749207511463694,0.08004411723645274
4.000999999999671,0.5272504207228054,0.07676599999958636
4.200999999999738,0.560732000650636,0.08473105179200753
4.400999999999804,0.5986528180252487,0.10443765792575234
4.600999999999871,0.6362539204884331,0.12243556122421206
4.800999999999938,0.6820900249931499,0.145856862489727
5.000000000000004,0.7280949401260763,0.1742677522842596
5.200000000000071,0.7667815577965766,0.19298401656243885
5.400000000000138,0.8090185728801261,0.20952728931566703
5.600000000000205,0.8457704495821862,0.22041079405356748
5.800000000000272,0.884676259320811,0.23113986881909318
6.000000000000338,0.9282796141972433,0.247817911065454
6.200000000000405,0.9685753699852533,0.2881295385744393
6.400000000000472,1.0118569159114028,0.34209014764996964
6.600000000000539,1.0544507065399211,0.3823626806315882
6.800000000000606,1.0939535339925825,0.42141755858838326
7.000000000000672,1.1341389408251634,0.44452955959274687
7.200000000000739,1.1686811081248534,0.46273369435623724
7.400000000000806,1.2055975493861832,0.4979003418152986
7.600000000000873,1.2515838484023039,0.5287860935353644
7.8000000000009395,1.2968307676638189,0.5506416514647429
8.000000000001005,1.3431454188643712,0.5904493702900047
8.200000000000895,1.3867077973829685,0.6224620240629933
8.400000000000784,1.4366875231728573,0.6525366862229361
8.600000000000673,1.4814224573100248,0.6887756773053973
8.800000000000562,1.5177695814294643,0.7295457599897432
9.000000000000451,1.557675274611241,0.7608187277295714
9.20000000000034,1.5967638212753918,0.7669088800673842
9.40000000000023,1.6372385015334339,0.7965896688812595
9.600000000000119,1.684498988727519,0.8226796309224803
9.800000000000008,1.7320503947287402,0.8650884049365366
10.000999999999896,1.7904426056702185,0.8919196233312024
10.200999999999786,1.8387286081669172,0.9053591661484561
10.400999999999675,1.8866675390003451,0.928762707657728
10.600999999999564,1.9288631045716276,0.954168143985872
10.800999999999453,1.9699467644804272,0.9712772271614187
11.000999999999342,2.0175978854788026,0.9900773354782985
11.200999999999231,2.063231188332183,1.022147329765015
11.40099999999912,2.1099433685109465,1.0645000066819834
11.60099999999901,2.153603347986282,1.1056847341766622
11.800999999998899,2.1911946116409893,1.1400355065044243
12.000999999998788,2.226622405081637,1.1750499021927254
12.200999999998677,2.262755592775305,1.2279933144025366
12.400999999998566,2.2995326197019357,1.2851100024291133
12.600999999998455,2.336722556518629,1.3467605139108236
12.800999999998345,2.3731397384032693,1.3976529823110293
13.000999999998234,2.407620667075418,1.4386936012529319
13.200999999998123,2.449083073542346,1.4542839691417135
13.400999999998012,2.491730093843495,1.4673426953724629
13.600999999997901,2.529112800104104,1.5047289542025926
13.80099999999779,2.5655272256071773,1.5412788476398305
14.00099999999768,2.5970934166622324,1.5810634300034712
14.200999999997569,2.623419283715499,1.6259585599217135
14.400999999997458,2.6536847275290536,1.6735255843360917
14.600999999997347,2.686321861012151,1.702295401410035
14.800999999997236,2.725626398833616,1.7200236208448125
15.000999999997125,2.7644296162682838,1.7417242484559148
15.200999999997014,2.7997982392025667,1.7735572920813105
15.400999999996904,2.841528856508914,1.799392379782475
15.600999999996793,2.882576950608951,1.8319251431830184
15.800999999996682,2.925955168735202,1.881403486339817
16.000999999996573,2.967116872426127,1.9311493730851923
16.200999999996817,2.9969243131696497,1.9918798710624999
16.40099999999706,3.029447739815566,2.031243378930667
16.600999999997306,3.058731358691358,2.0728246041311555
16.80099999999755,3.0978955925557288,2.1095460720484165
17.000999999997795,3.1365293735820012,2.1438877755838597
17.20099999999804,3.1764905252479303,2.181086974305518
17.400999999998284,3.219929896282995,2.20615679267796
17.60099999999853,3.2642387877570496,2.2260220650098708
17.800999999998773,3.3008092515522027,2.2536708116182456
18.000999999999017,3.3362525497887976,2.278254588602593
18.20099999999926,3.3619095227988978,2.3191236653075316
18.400999999999506,3.3807527029198394,2.3556524763979447
18.60099999999975,3.404653958372771,2.3888577495670456
18.799999999999994,3.4274080916391507,2.427109038538365
19.000000000000238,3.4502766898291655,2.467745450471392
19.200000000000482,3.471709127713534,2.50188596080957
19.400000000000727,3.488616047343439,2.552623538173932
19.60000000000097,3.500963044749137,2.6140808130016606
19.800000000001216,3.514561508899578,2.6575933972782266
20.00000000000146,3.528688120854646,2.7029123736130973
