Time (s),X (m),Y (m)
0.001,0.0010647643868879006,0.0005914538325516247
0.20000000000000015,1.0334259592142073e-05,-0.0005886609142445157
0.4000000000000003,0.008378361912118363,0.0015812905026629778
0.6000000000000004,0.020079387897261793,0.006617482384528869
0.8000000000000006,0.03881063382382647,0.009038594770992146
1.0000000000000007,0.053563008002624986,0.01763704791581496
1.2009999999999785,0.07060179221808047,0.018931020021398372
1.4009999999999565,0.07898735737159313,0.01194519693316587
1.6009999999999345,0.09662022145701225,0.006143984284736583
1.8009999999999124,0.13026082863665792,-0.004298862412881547
2.0009999999998906,0.16367083864310505,-0.018028326792633508
2.2009999999998686,0.1924706597989769,-0.03790347597180722
2.4009999999998466,0.1976494781457258,-0.058636654352958256
2.6009999999998246,0.21325596961112475,-0.08030843530268093
2.8009999999998025,0.2428640060834819,-0.10434873931590544
3.0009999999997805,0.27429644600311165,-0.13699041377845103
3.2009999999997585,0.3039005948089001,-0.16756593873786374
3.4009999999997365,0.3290850116610918,-0.20541578108331338
3.6009999999997144,0.35803721290145035,-0.23924141158279885
3.8009999999996924,0.37577560889402517,-0.269742734248917
4.000999999999671,0.41055246944991547,-0.3018388751805817
4.200999999999738,0.4343559903386316,-0.3398686864946731
4.400999999999804,0.44514973630514443,-0.3736836539325545
4.600999999999871,0.4682560848719294,-0.4111323287627286
4.800999999999938,0.49620652457988496,-0.44867666547890067
5.000000000000004,0.52882437461876,-0.47821842953945204
5.200000000000071,0.5464181458796827,-0.5049062837801839
5.400000000000138,0.5768172123454921,-0.5308858836980642
5.600000000000205,0.6068726121795859,-0.5499452675651163
5.800000000000272,0.6342196089218068,-0.5650905598353843
6.000000000000338,0.6707891363014425,-0.583448378070533
6.200000000000405,0.7155485848635683,-0.6089887031062152
6.400000000000472,0.7620864088374654,-0.6407626964751489
6.600000000000539,0.8067317202162391,-0.6740153624251416
6.800000000000606,0.8369177138216076,-0.7044972873010733
7.000000000000672,0.8619674489685041,-0.7319672434423024
7.200000000000739,0.8906170006549345,-0.7618178575141136
7.400000000000806,0.9253128131248614,-0.7957415480656852
7.600000000000873,0.9696080124907839,-0.8289887665342657
7.8000000000009395,1.0105596518471212,-0.8643447782528086
8.000000000001005,1.046522545285317,-0.9042018610301168
8.200000000000895,1.0760142890947182,-0.9416710212380082
8.400000000000784,1.111404969749334,-0.9699018093263231
8.600000000000673,1.1430777964970678,-0.9977981544122214
8.800000000000562,1.17908466314138,-1.0236883225801878
9.000000000000451,1.2247112570334748,-1.0509698069745128
9.20000000000034,1.275071309966041,-1.0820631466469723
9.40000000000023,1.324106900573365,-1.1193029714663314
9.600000000000119,1.3676702991373766,-1.1589895965759938
9.800000000000008,1.4010242625646097,-1.1914289923929304
10.000999999999896,1.4401963997238767,-1.2214471785790582
10.200999999999786,1.4753810410819268,-1.2539561540491415
10.400999999999675,1.509087273113531,-1.2878741092789217
10.600999999999564,1.5304951956731698,-1.319670761836345
10.800999999999453,1.5524642405018354,-1.3486087537026006
11.000999999999342,1.5767999609249117,-1.3692672250302789
11.200999999999231,1.611096734727425,-1.3910091595383485
11.40099999999912,1.6431999490573261,-1.409995602439975
11.60099999999901,1.6816870207724426,-1.4167989785044743
11.800999999998899,1.7216036362594325,-1.4238567025936295
12.000999999998788,1.7669927750415744,-1.4300593266547683
12.200999999998677,1.8213166989561214,-1.434227976500066
12.400999999998566,1.8583410418351936,-1.44294003156788
12.600999999998455,1.8924102767134388,-1.455710993584566
12.800999999998345,1.9217894544385632,-1.4670890289466405
13.000999999998234,1.9683336593178389,-1.476037074075389
13.200999999998123,2.008734178813421,-1.489376355957576
13.400999999998012,2.0565445392782276,-1.508961603374946
13.600999999997901,2.114917630500001,-1.5284137797243604
13.80099999999779,2.169327884972089,-1.551384999800189
14.00099999999768,2.2205953639291236,-1.5887578414719878
14.200999999997569,2.257081938600313,-1.6380677414260065
14.400999999997458,2.301227960661893,-1.6823245220158658
14.600999999997347,2.3642053539290675,-1.71826047509308
14.800999999997236,2.4168774211426816,-1.7487008200795142
15.000999999997125,2.4712178570719296,-1.77515303148004
15.200999999997014,2.522798327365568,-1.808265951303244
15.400999999996904,2.5656884676032634,-1.8508962963919278
15.600999999996793,2.60300035439151,-1.8957297251894667
15.800999999996682,2.649670150080983,-1.9392405632787448
16.000999999996573,2.6987196223968164,-1.981171282991836
16.200999999996817,2.7425984749615755,-2.014423376607254
16.40099999999706,2.785049876654557,-2.0563386641689982
16.600999999997306,2.83223052905847,-2.0967758944907944
16.80099999999755,2.875356479130624,-2.1288474884527386
17.000999999997795,2.9161068918190938,-2.1571666449194056
17.20099999999804,2.9619814552401227,-2.181323490844991
17.400999999998284,3.0117942283870875,-2.1993067667592827
17.60099999999853,3.056109618192001,-2.2178850667489485
17.800999999998773,3.09971490213814,-2.2269458905815296
18.000999999999017,3.142162645422772,-2.2354938862290035
18.20099999999926,3.1775893658888386,-2.251108727123352
18.400999999999506,3.2215064835018357,-2.270488330224727
18.60099999999975,3.2586414709353786,-2.295264794444419
18.799999999999994,3.3018269387365153,-2.3318394603681605
19.000000000000238,3.3411355902820503,-2.369513091276087
19.200000000000482,3.386448447340792,-2.403439635701355
19.400000000000727,3.4224881934297438,-2.4368250686732464
19.60000000000097,3.4557606608303675,-2.4695043091694857
19.800000000001216,3.4945157297317433,-2.5048384940766577
20.00000000000146,3.540385501057446,-2.5333349535482474
