Time (s),X (m),Y (m)
0.001,-0.00013259955118837574,0.0009689812320744445
0.20000000000000015,0.0022820501710304505,0.0043874388347806765
0.4000000000000003,0.00324483477267023,0.015125007344153216
0.6000000000000004,0.014918371308656921,0.01678240431081959
0.8000000000000006,0.03953148634719053,0.008254861604405713
1.0000000000000007,0.0722715368360153,0.00025940542120442305
1.2009999999999785,0.11771649873265495,-0.03091363415572209
1.4009999999999565,0.1667529866490413,-0.08388046119178517
1.6009999999999345,0.22139420790579434,-0.13648731707527428
1.8009999999999124,0.27852541259657065,-0.20639190764868143
2.0009999999998906,0.3352998232817427,-0.2755376090527598
2.2009999999998686,0.38302351690721875,-0.34755624005010505
2.4009999999998466,0.42498168337430253,-0.43821455913064944
2.6009999999998246,0.46529439029873404,-0.526243954301207
2.8009999999998025,0.5055205530095769,-0.6056270500053704
3.0009999999997805,0.5395401552695154,-0.6784654344810582
3.2009999999997585,0.5375741130560623,-0.7530153286383611
3.4009999999997365,0.4931080300511893,-0.8234683136158529
3.6009999999997144,0.4501617798470695,-0.8942765009571891
3.8009999999996924,0.40545941483903836,-0.9709049882347555
4.000999999999671,0.3503846557850178,-1.0430442154297335
4.200999999999738,0.2883724647522457,-1.1042794753492056
4.400999999999804,0.2173594589292282,-1.1596028316441596
4.600999999999871,0.1438877584123058,-1.2089727264732395
4.800999999999938,0.06288743582541306,-1.2413210775730996
5.000000000000004,-0.01865029229699787,-1.2443186442194594
5.200000000000071,-0.10230919980609882,-1.215759196047083
5.400000000000138,-0.18420454639890593,-1.1782298339546682
5.600000000000205,-0.2531862356959595,-1.1211700910303468
5.800000000000272,-0.3122842881943849,-1.0501061304259336
6.000000000000338,-0.35389797282534846,-0.9679111186606771
6.200000000000405,-0.3724860746800486,-0.8850323910228229
6.400000000000472,-0.3629476509939954,-0.8065669302220553
6.600000000000539,-0.3315762528225062,-0.7380909210957783
6.800000000000606,-0.2879931587824715,-0.6847015233162298
7.000000000000672,-0.22812785603303706,-0.6604876680891452
7.200000000000739,-0.16021881709850527,-0.667271747280824
7.400000000000806,-0.09020599596379894,-0.6953085476072872
7.600000000000873,-0.021956909538614483,-0.7361754146102295
7.8000000000009395,0.04298189914051057,-0.7949018015344097
8.000000000001005,0.10289732380320529,-0.8647504867912524
8.200000000000895,0.14635002300762665,-0.9419038009208371
8.400000000000784,0.15915288829218346,-1.0222231648058884
8.600000000000673,0.14718874145400046,-1.0995485006621817
8.800000000000562,0.09462455962135774,-1.164558976843748
9.000000000000451,0.03957818890909658,-1.2263396485578113
9.20000000000034,-0.029257231965073387,-1.258786950606805
9.40000000000023,-0.10509345160529084,-1.2692937500555146
9.600000000000119,-0.18040784605388976,-1.2839883907210707
9.800000000000008,-0.2603531602618994,-1.2829476932394868
10.000999999999896,-0.3428733020359588,-1.2689545449327888
10.200999999999786,-0.4156315387318167,-1.229623591266633
10.400999999999675,-0.4831471888996513,-1.1748744762315282
10.600999999999564,-0.547531762380496,-1.106598448905696
10.800999999999453,-0.6162962229042537,-1.0425811723868565
11.000999999999342,-0.6608752192114326,-0.9708023934037343
11.200999999999231,-0.6595528577729343,-0.8951855690701163
11.40099999999912,-0.637680741050922,-0.8193281404218216
11.60099999999901,-0.6139876976497679,-0.7376352917153367
11.800999999998899,-0.5808567682471909,-0.6540471779302478
12.000999999998788,-0.5288183211898162,-0.5762775418728903
12.200999999998677,-0.45772652381783646,-0.5176624313356367
12.400999999998566,-0.371069717616511,-0.47480513899441446
12.600999999998455,-0.2741208155605901,-0.43642717668007397
12.800999999998345,-0.17623965216642795,-0.3949219640470259
13.000999999998234,-0.07807496421257987,-0.35069934539496334
13.200999999998123,0.012342659578126762,-0.29889562170725237
13.400999999998012,0.1051764623235856,-0.25874640480245314
13.600999999997901,0.19563006127227037,-0.2180790272476335
13.80099999999779,0.2874743664902209,-0.17686372535341252
14.00099999999768,0.37597569965982036,-0.12895079097548473
14.200999999997569,0.4669044113778005,-0.11538356280563881
14.400999999997458,0.5565467799681011,-0.13411843398385578
14.600999999997347,0.6460241305786049,-0.17134597591229675
14.800999999997236,0.7203886574769781,-0.22732858185844948
15.000999999997125,0.7764270420553717,-0.2922690203548546
15.200999999997014,0.7870344719293587,-0.35905241930404636
15.400999999996904,0.782027324813271,-0.4334706367191603
15.600999999996793,0.7498694919016529,-0.49433324434908227
15.800999999996682,0.7023595024727975,-0.5540593327460218
16.000999999996573,0.6417493155289283,-0.5821141826868241
16.200999999996817,0.5750174964425488,-0.5910923422179702
16.40099999999706,0.5025418859452628,-0.5797787464357901
16.600999999997306,0.43335006892701106,-0.5478267286595424
16.80099999999755,0.37858228178938497,-0.4940270530539302
17.000999999997795,0.3251612197095826,-0.4350903054222691
17.20099999999804,0.2870488675886393,-0.37742060585952447
17.400999999998284,0.29948647207782036,-0.31280208274085014
17.60099999999853,0.3457232634369247,-0.2490851267334042
17.800999999998773,0.40487807801410675,-0.19532577025140654
18.000999999999017,0.4819097359795718,-0.1626279473298339
18.20099999999926,0.5674037772300436,-0.1344003778351476
18.400999999999506,0.6523438128864505,-0.11752839411846863
18.60099999999975,0.7370383108751859,-0.13647823656218128
18.799999999999994,0.8165569286828729,-0.18074575187221711
19.000000000000238,0.8861948995770583,-0.23765252042078647
19.200000000000482,0.9484468146836093,-0.2976579515490519
19.400000000000727,1.00461856506066,-0.3653078760377291
19.60000000000097,1.0427498690236487,-0.43840161858093213
19.800000000001216,1.0440407287828206,-0.5159169606406704
20.00000000000146,1.0160788914095291,-0.5888617782790984
