Time (s),X (m),Y (m)
0.001,0.0012355833006349724,0.00017906049427360518
0.20000000000000015,-0.002561014624979745,-0.000833640340057061
0.4000000000000003,-0.009330931066123403,-0.003234604034638119
0.6000000000000004,0.0010642611771206653,-0.001672668577593217
0.8000000000000006,0.019952823397662363,-0.001671676849369442
1.0000000000000007,0.04481438586214061,-0.005800513848740796
1.2009999999999785,0.05833089291206361,-0.004757940927857784
1.4009999999999565,0.06700354862022884,-0.004766343717708976
1.6009999999999345,0.07350690923625394,-0.011211573038545438
1.8009999999999124,0.09236071504247811,-0.026940145112641485
2.0009999999998906,0.11296888329669066,-0.036352684852954266
2.2009999999998686,0.13958557137094169,-0.04665067134570189
2.4009999999998466,0.16075531710252655,-0.05586950567855001
2.6009999999998246,0.19045775053985878,-0.07504392249143077
2.8009999999998025,0.21897278213734123,-0.09281140247636764
3.0009999999997805,0.24526431229291135,-0.10888793828653973
3.2009999999997585,0.2592500645081773,-0.12175210383683033
3.4009999999997365,0.26398476530902437,-0.1347877526347411
3.6009999999997144,0.27155475196922546,-0.14926140660476633
3.8009999999996924,0.2928135393191704,-0.1670572652884615
4.000999999999671,0.32678249509177754,-0.19386711062685946
4.200999999999738,0.3621511959162277,-0.21562818857596366
4.400999999999804,0.39381249665160317,-0.23431120880214498
4.600999999999871,0.4237222563805706,-0.25064187267231025
4.800999999999938,0.44775810613744715,-0.2688377218113755
5.000000000000004,0.4708010793276009,-0.2834052211350361
5.200000000000071,0.5111362030261614,-0.3083986933368534
5.400000000000138,0.5560626082726753,-0.33768870468546625
5.600000000000205,0.6058407036025263,-0.36534219169280807
5.800000000000272,0.6521164641976586,-0.38909264425888146
6.000000000000338,0.694165724539657,-0.4165592453846036
6.200000000000405,0.7413987956871809,-0.4513605597514169
6.400000000000472,0.7867510079445612,-0.48703783674569345
6.600000000000539,0.8362316527888111,-0.5283685081499581
6.800000000000606,0.8828307229416527,-0.5691497693623946
7.000000000000672,0.9171498051082723,-0.6126420975481585
7.200000000000739,0.9276727689882323,-0.6568000146119042
7.400000000000806,0.9179512229191128,-0.7081417938898789
7.600000000000873,0.8986522618086936,-0.7678409824896408
7.8000000000009395,0.871505825549572,-0.8307188249254228
8.000000000001005,0.8405370538526516,-0.8913755413762441
8.200000000000895,0.802419178193929,-0.9463390687693228
8.400000000000784,0.7664227387032378,-0.9931353471734091
8.600000000000673,0.7298766522418803,-1.044600315310633
8.800000000000562,0.6844218409678071,-1.1015827867492354
9.000000000000451,0.6334669065777769,-1.1581985911395347
9.20000000000034,0.5849618667177272,-1.2190779552355027
9.40000000000023,0.5330911130157108,-1.2819408776163481
9.600000000000119,0.4858025348681497,-1.3402108190887663
9.800000000000008,0.43479518982432785,-1.39106514024088
10.000999999999896,0.38546078524778304,-1.4277285352447213
10.200999999999786,0.3480691505400311,-1.4439545342910107
10.400999999999675,0.30845821009166946,-1.4390528166473817
10.600999999999564,0.2894468619260775,-1.4240582462907474
10.800999999999453,0.2656941997030391,-1.4001489597780978
11.000999999999342,0.24232259569619916,-1.3745205795501143
11.200999999999231,0.2039962451308369,-1.3433090682280955
11.40099999999912,0.1563273337569418,-1.3097989472277094
11.60099999999901,0.10032494471981614,-1.2703106388775485
11.800999999998899,0.0410289171635475,-1.2264354249733287
12.000999999998788,-0.019073136705072078,-1.1764026681099042
12.200999999998677,-0.08162188331858135,-1.119243075710803
12.400999999998566,-0.1378688181282976,-1.0786633937819377
12.600999999998455,-0.18541197411169566,-1.0452374121830807
12.800999999998345,-0.22876801617329343,-1.0133338962060754
13.000999999998234,-0.2727668682738919,-0.9703214132213617
13.200999999998123,-0.316398333633531,-0.9130169282786829
13.400999999998012,-0.34823783074953596,-0.8538928601697156
13.600999999997901,-0.3674925755531859,-0.798703668750142
13.80099999999779,-0.37094111605432684,-0.7547019529436801
14.00099999999768,-0.35766005354388863,-0.7070063168209281
14.200999999997569,-0.3395717721739155,-0.6601295698534486
14.400999999997458,-0.31946364796623367,-0.6202422761495373
14.600999999997347,-0.2992566645285836,-0.5895509562751832
14.800999999997236,-0.27197296969934004,-0.5485291410287066
15.000999999997125,-0.2438986434420604,-0.5085891599409474
15.200999999997014,-0.2173179063042377,-0.4591488862681645
15.400999999996904,-0.17838827854999043,-0.4014656515901664
15.600999999996793,-0.13555861050799872,-0.3407734393025498
15.800999999996682,-0.09737400142662704,-0.29416478842593735
16.000999999996573,-0.06651555127299331,-0.25692177169291347
16.200999999996817,-0.031228403509490923,-0.21942570584427643
16.40099999999706,0.0045684541488389355,-0.17790272392783535
16.600999999997306,0.05002846069731361,-0.12256936822679608
16.80099999999755,0.09888455987807274,-0.06343344626154283
17.000999999997795,0.13496808996286125,-0.011252233697760183
17.20099999999804,0.16532016381738537,0.033353932821086105
17.400999999998284,0.19549476189639114,0.07437144187541257
17.60099999999853,0.23678971571219534,0.09548084875741816
17.800999999998773,0.2932205962996192,0.08988148761916477
18.000999999999017,0.340638953963496,0.07073039357558614
18.20099999999926,0.3876803792964983,0.044090175301267145
18.400999999999506,0.43784623009545304,0.009929117680066735
18.60099999999975,0.48014020318822204,-0.024689286531353508
18.799999999999994,0.5225031527786487,-0.05604893853578757
19.000000000000238,0.5667584598927397,-0.07984743802760569
19.200000000000482,0.5892513533520557,-0.10599965502704689
19.400000000000727,0.6237604427538607,-0.13455930770142638
19.60000000000097,0.6653836312576634,-0.15468342885698472
19.800000000001216,0.6953238233933707,-0.17384283918603938
20.00000000000146,0.738628891002165,-0.20031069829359202
