Time (s),X (m),Y (m)
0.001,0.0007356649194092869,-0.0008930179339548115
0.20000000000000015,0.00203123474045334,0.0018186875039216083
0.4000000000000003,0.012956070644373067,-0.01224338499152418
0.6000000000000004,0.024280270979830067,-0.027047688999211422
0.8000000000000006,0.035151410330064095,-0.054390183618520944
1.0000000000000007,0.04595855213908236,-0.09611552165656068
1.2009999999999785,0.05635407568287291,-0.12300243390912546
1.4009999999999565,0.07412729970905,-0.147281524064496
1.6009999999999345,0.0962592960573134,-0.18478659216196702
1.8009999999999124,0.12191487679808445,-0.2237276694980411
2.0009999999998906,0.1525886983312949,-0.25639684244022526
2.2009999999998686,0.18539823329617053,-0.28356042987059155
2.4009999999998466,0.20996784183136558,-0.3205676363168614
2.6009999999998246,0.23218664434994696,-0.35641952456090503
2.8009999999998025,0.25378315412013136,-0.3944282892878259
3.0009999999997805,0.27272211855359463,-0.44499674566089875
3.2009999999997585,0.2945949095370623,-0.496041869950351
3.4009999999997365,0.32495939593677603,-0.5380054402633137
3.6009999999997144,0.35595782485971295,-0.5754961021799557
3.8009999999996924,0.3833507704112611,-0.6176265168256689
4.000999999999671,0.41523077264872416,-0.6551484757303684
4.200999999999738,0.44878840358021654,-0.6818858132263044
4.400999999999804,0.47892907309948507,-0.7214039728080904
4.600999999999871,0.5144222160973714,-0.7482413821927717
4.800999999999938,0.5459291847519752,-0.7687275014890879
5.000000000000004,0.5716477789133725,-0.802090949520304
5.200000000000071,0.5993952663131853,-0.8439062812605622
5.400000000000138,0.6118420211133833,-0.8982539073670052
5.600000000000205,0.6269816653806526,-0.9464961595454854
5.800000000000272,0.6504500609010035,-0.9868886772379696
6.000000000000338,0.676124758670654,-1.0325385029387748
6.200000000000405,0.7003840033608911,-1.081688453500894
6.400000000000472,0.7200542392278029,-1.134358069090411
6.600000000000539,0.7331281179163532,-1.192465036073518
6.800000000000606,0.7477577668327609,-1.246011866265783
7.000000000000672,0.7502719281626986,-1.2945099481996074
7.200000000000739,0.7328506699045134,-1.342282218291653
7.400000000000806,0.7123614622009299,-1.387824450988936
7.600000000000873,0.7013695332761802,-1.431622041376661
7.8000000000009395,0.6648780671847744,-1.470164220530451
8.000000000001005,0.6207775955815749,-1.5090788702850821
8.200000000000895,0.5797069802659494,-1.5367205869316933
8.400000000000784,0.5429896879741719,-1.570512295978286
8.600000000000673,0.49562148429854397,-1.6029360089964575
8.800000000000562,0.44571633618928874,-1.6315398710157873
9.000000000000451,0.3969621406131159,-1.6595744777091033
9.20000000000034,0.35064041654452366,-1.687964965058833
9.40000000000023,0.29881964720370524,-1.7133618513053976
9.600000000000119,0.24712054260922048,-1.734752723892202
9.800000000000008,0.1960998846856422,-1.7513295432595635
10.000999999999896,0.14846975997666254,-1.7595156156216154
10.200999999999786,0.10183871955417394,-1.7515058044030525
10.400999999999675,0.0665786589893115,-1.7120320302895844
10.600999999999564,0.028722136922988167,-1.6833814803706704
10.800999999999453,-0.013892510084036535,-1.6513978098275721
11.000999999999342,-0.057262122003518004,-1.6161839282459287
11.200999999999231,-0.08870582557347176,-1.5789388254861985
11.40099999999912,-0.1006912006584202,-1.537533215173034
11.60099999999901,-0.10468854137526191,-1.4830071138693919
11.800999999998899,-0.10972773284253534,-1.430764215740755
12.000999999998788,-0.09265219467576856,-1.3775079699322315
12.200999999998677,-0.06377230981057583,-1.3275674956955803
12.400999999998566,-0.05445391605593967,-1.2818381019408323
12.600999999998455,-0.02664242970111549,-1.2379284009308908
12.800999999998345,0.008268950818207051,-1.1929299602009016
13.000999999998234,0.02963642392786428,-1.150465038955937
13.200999999998123,0.060035415224819366,-1.1103364693806757
13.400999999998012,0.08435897117297725,-1.0686101945645663
13.600999999997901,0.11911828821321087,-1.0373900971003953
13.80099999999779,0.16361071361769214,-1.0155537918471136
14.00099999999768,0.20774961884678442,-0.9966549806634544
14.200999999997569,0.244539780710047,-0.9702855264112222
14.400999999997458,0.2771196235544973,-0.9393061923836229
14.600999999997347,0.3212010096866349,-0.9125824534506072
14.800999999997236,0.37814829395553473,-0.8940121087515057
15.000999999997125,0.4271630198088201,-0.8884973021931388
15.200999999997014,0.4778058725761383,-0.8927384429018655
15.400999999996904,0.5246774040918393,-0.9119699099748692
15.600999999996793,0.5645849777601595,-0.9501057902002316
15.800999999996682,0.6031929682526141,-1.0030089327762155
16.000999999996573,0.6319999974683828,-1.0648067424365053
16.200999999996817,0.6553504576576821,-1.1239018726592804
16.40099999999706,0.6707456281201711,-1.1822150731063188
16.600999999997306,0.6826489070502265,-1.2388110139357642
16.80099999999755,0.6930121994372131,-1.2953707808781105
17.000999999997795,0.714981911688947,-1.3488376681939447
17.20099999999804,0.73557603534139,-1.4016475251333695
17.400999999998284,0.7462094621215183,-1.4533949767663084
17.60099999999853,0.7350521883489659,-1.5075240462351263
17.800999999998773,0.7122506440654446,-1.5641385241742454
18.000999999999017,0.6748765052566157,-1.6201981792962117
18.20099999999926,0.6488263906701754,-1.6744003469589013
18.400999999999506,0.6168198115899166,-1.715788700583427
18.60099999999975,0.5834492228317694,-1.7501804213122458
18.799999999999994,0.5462058587252279,-1.7761236503485145
19.000000000000238,0.5049997497063496,-1.7908597335308944
19.200000000000482,0.4607563392398154,-1.7679809550756407
19.400000000000727,0.42115445780035615,-1.7348508976104313
19.60000000000097,0.38197626558934766,-1.697632338466534
19.800000000001216,0.3440982914305945,-1.655911635100545
20.00000000000146,0.30800845385325176,-1.6221239264684486
