Time (s),X (m),Y (m)
0.001,0.0012161128565605834,0.00026688599193002506
0.20000000000000015,0.0052097541112138,0.0011672337262544916
0.4000000000000003,0.009421987156713578,0.001243143577741166
0.6000000000000004,0.011718818050792024,0.0006993057977282331
0.8000000000000006,0.013992342016583531,0.0012078666821751212
1.0000000000000007,0.015115307245494562,0.003927293212673637
1.2009999999999785,0.025243688225821122,0.005155321200344371
1.4009999999999565,0.03226894767553184,0.003287152644395831
1.6009999999999345,0.039870620594904566,0.0024183283277715586
1.8009999999999124,0.04939875257217365,0.0001357432800506658
2.0009999999998906,0.05445139496024707,-0.0026002413792989188
2.2009999999998686,0.06069101029061944,-0.006468005377865281
2.4009999999998466,0.06365309264509778,-0.01004612745214741
2.6009999999998246,0.07152092418200715,-0.007419545707056515
2.8009999999998025,0.08851305833416429,-0.005497079413247951
3.0009999999997805,0.09727370235188708,-0.00704757280789351
3.2009999999997585,0.10153858103733458,-0.008755981612380812
3.4009999999997365,0.10709643921140281,-0.009142369226735282
3.6009999999997144,0.11505618817468413,-0.011744895320751516
3.8009999999996924,0.12271331221129227,-0.015512466257915207
4.000999999999671,0.13021115638939734,-0.0211699185501422
4.200999999999738,0.13553603612373086,-0.025710579869468418
4.400999999999804,0.13734252702613312,-0.029502988966744702
4.600999999999871,0.1472972411359855,-0.030181504686716567
4.800999999999938,0.15671172183156418,-0.03725403342515455
5.000000000000004,0.1587568760614547,-0.041478092314014225
5.200000000000071,0.16616589721849223,-0.04421748871383408
5.400000000000138,0.17775665656926024,-0.046740824522823625
5.600000000000205,0.18767144549528414,-0.05077470525310447
5.800000000000272,0.19552630393109008,-0.053678181217004975
6.000000000000338,0.2043954470559806,-0.05682119201984672
6.200000000000405,0.20981074971038766,-0.05767148074083275
6.400000000000472,0.2175578280355657,-0.05852099368158496
6.600000000000539,0.22771998437786486,-0.06532060356911873
6.800000000000606,0.23813340672135377,-0.07145560348344517
7.000000000000672,0.24616232399947938,-0.07819796228039129
7.200000000000739,0.25805369904589887,-0.08224989590242907
7.400000000000806,0.2709091371228972,-0.08728597240740926
7.600000000000873,0.28161071323480147,-0.09174719320334566
7.8000000000009395,0.2924972847573916,-0.09816671761010223
8.000000000001005,0.30420140520395095,-0.10447602590835292
8.200000000000895,0.3201552692191508,-0.10945015204384251
8.400000000000784,0.329395499239891,-0.11389551640337392
8.600000000000673,0.33676792940866296,-0.120171267211975
8.800000000000562,0.3485786377899433,-0.12777574778907697
9.000000000000451,0.3616081966618979,-0.13526963701252892
9.20000000000034,0.37102787258283043,-0.14100774990777332
9.40000000000023,0.38126082612457135,-0.14696652168115668
9.600000000000119,0.3921688738641519,-0.1510988112761875
9.800000000000008,0.40205957275287274,-0.15538877670215923
10.000999999999896,0.4133866450405455,-0.15900035808165308
10.200999999999786,0.4272047660365755,-0.16512128797712886
10.400999999999675,0.4360423285586415,-0.17100706491813206
10.600999999999564,0.44682689111963453,-0.17574843195572204
10.800999999999453,0.4573223138794418,-0.1815796635253935
11.000999999999342,0.46645617234248565,-0.18593592228752426
11.200999999999231,0.4767047389885941,-0.19002244455161682
11.40099999999912,0.4928321392825126,-0.1947768847907625
11.60099999999901,0.5070009322680824,-0.20272433610206014
11.800999999998899,0.5139998553750587,-0.20546897662863942
12.000999999998788,0.5253501565933268,-0.20721820829680526
12.200999999998677,0.5406934795982767,-0.21126257413694435
12.400999999998566,0.5551648129835882,-0.21884819794585858
12.600999999998455,0.5652644944595354,-0.22450398091929077
12.800999999998345,0.5791046668289581,-0.23203453772807897
13.000999999998234,0.5901822942326183,-0.23907248617627186
13.200999999998123,0.6021622948426056,-0.2459766752739744
13.400999999998012,0.6136827321308365,-0.25138100467472835
13.600999999997901,0.6262529058093109,-0.25921991980145165
13.80099999999779,0.639398832868666,-0.26593740280723255
14.00099999999768,0.6501373334343736,-0.275068797685327
14.200999999997569,0.658620571957161,-0.281587376043531
14.400999999997458,0.672940820903438,-0.2898747986835684
14.600999999997347,0.6833141624343333,-0.2953987475094045
14.800999999997236,0.6970099158248061,-0.29951261247444816
15.000999999997125,0.7115247272329169,-0.3067790320378196
15.200999999997014,0.7258921953133309,-0.31483309529372333
15.400999999996904,0.7381289077501332,-0.32094514095934107
15.600999999996793,0.7506401063275587,-0.33029816374243187
15.800999999996682,0.7651598848640422,-0.34053812912880976
16.000999999996573,0.7723849586403159,-0.34672733229153585
16.200999999996817,0.7802898524306672,-0.3530725608655364
16.40099999999706,0.7930383154067897,-0.35881729482776364
16.600999999997306,0.8016846022755101,-0.3661833491400422
16.80099999999755,0.8108597503758471,-0.3707732544225612
17.000999999997795,0.823195347507774,-0.37652594614666
17.20099999999804,0.8327316752215079,-0.3825738328516682
17.400999999998284,0.8467909054732139,-0.3904471332283874
17.60099999999853,0.853411968213727,-0.3954145943079317
17.800999999998773,0.8588394235534627,-0.40033755985324887
18.000999999999017,0.8711295267057882,-0.4071853559246075
18.20099999999926,0.8752432863128429,-0.411827686899137
18.400999999999506,0.8859448316808147,-0.41634250625088676
18.60099999999975,0.8997452145737342,-0.42081989365656347
18.799999999999994,0.915257935768679,-0.43023153167252787
19.000000000000238,0.9261099760405479,-0.43582351138286657
19.200000000000482,0.9413280689498765,-0.44025320816375385
19.400000000000727,0.9553702686226246,-0.44879792149735304
19.60000000000097,0.9672114656170241,-0.4567223886081767
19.800000000001216,0.9783052350245495,-0.4623109395004553
20.00000000000146,0.9861389588074966,-0.4638879694977124
