Time (s),X (m),Y (m)
0.001,-0.0006729371591054965,0.000515584144559974
0.20000000000000015,0.005074111513541691,-0.002282251264929471
0.4000000000000003,0.008726563038758742,-0.00138263278671654
0.6000000000000004,0.02495872707716116,0.0061997704491381775
0.8000000000000006,0.04779292076084312,0.014774366645386049
1.0000000000000007,0.07952797537349113,0.012989574405082615
1.2009999999999785,0.11075782709708046,0.00755099775768723
1.4009999999999565,0.14208031980989883,-0.008192110762688836
1.6009999999999345,0.16828887890144908,-0.034698538257638155
1.8009999999999124,0.1839954252661467,-0.06870383136501808
2.0009999999998906,0.1886699654858591,-0.11988425601310736
2.2009999999998686,0.19301642882799128,-0.16882747718817537
2.4009999999998466,0.18572917443705647,-0.2153518651686257
2.6009999999998246,0.1692425810738353,-0.2568961323535231
2.8009999999998025,0.12544995431245543,-0.2871611729389877
3.0009999999997805,0.06869782269775788,-0.29777269251938987
3.2009999999997585,0.016435365572669784,-0.28090041705401486
3.4009999999997365,-0.02512989203824419,-0.25550313007209785
3.6009999999997144,-0.04542928055563478,-0.22044493754350367
3.8009999999996924,-0.054790191308586915,-0.18241566033129533
4.000999999999671,-0.06175587887336605,-0.1360555084176366
4.200999999999738,-0.06976985073068437,-0.09401390658573885
4.400999999999804,-0.06620901977701851,-0.04276018697093752
4.600999999999871,-0.04098786715051961,0.01074212603444212
4.800999999999938,0.007798843257616,0.06833273024106967
5.000000000000004,0.06684143557257483,0.10602451975419688
5.200000000000071,0.12625774546782303,0.12828274660611977
5.400000000000138,0.19617552441157468,0.13722841291500296
5.600000000000205,0.2605282538419985,0.1321568390903326
5.800000000000272,0.3294653658848601,0.11490443003080647
6.000000000000338,0.39150820528108043,0.09683223472383673
6.200000000000405,0.42774865343390495,0.06758233473057818
6.400000000000472,0.4393287593632773,0.02160134052481764
6.600000000000539,0.4392821634693279,-0.027659904302062072
6.800000000000606,0.41642845324381716,-0.07526244551259298
7.000000000000672,0.38187582243725865,-0.10850468112698199
7.200000000000739,0.34392952506179153,-0.12782715577896586
7.400000000000806,0.2960622623344356,-0.12972667599234322
7.600000000000873,0.244620977030992,-0.10706014019183113
7.8000000000009395,0.19514584486191305,-0.07281740069802611
8.000000000001005,0.16599461333005258,-0.018495708258467008
8.200000000000895,0.14850269548000913,0.03964078556365704
8.400000000000784,0.15350745824025974,0.09771211576633981
8.600000000000673,0.16350027378026505,0.15917579783260433
8.800000000000562,0.1799015898631841,0.22360576446492228
9.000000000000451,0.21718496918844057,0.2782533995262974
9.20000000000034,0.26802228130192457,0.31177960751517353
9.40000000000023,0.3331952877460331,0.3199058910279071
9.600000000000119,0.4052467655851297,0.3150404713475874
9.800000000000008,0.47078044496321414,0.30500255155964157
10.000999999999896,0.5174866369333396,0.2760960434914013
10.200999999999786,0.5375487933428623,0.22970281157616948
10.400999999999675,0.5344696009617589,0.17326160809216132
10.600999999999564,0.4946490649450988,0.11262092862779635
10.800999999999453,0.4481668180639683,0.06644084901240897
11.000999999999342,0.37447776867064625,0.04422624481799172
11.200999999999231,0.30249796308029414,0.0341789876826712
11.40099999999912,0.2284924468866011,0.04023371445630998
11.60099999999901,0.1524763731206059,0.0653951112119103
11.800999999998899,0.08063170497840681,0.09749457254550374
12.000999999998788,0.02754623642131124,0.130851120557903
12.200999999998677,-0.00029467223468462525,0.18360188140847644
12.400999999998566,-0.0014347810653293736,0.24361963087012126
12.600999999998455,0.005173148083783605,0.3054081567980138
12.800999999998345,0.03136481318361936,0.3747352526061107
13.000999999998234,0.05847834891127436,0.44529108348861735
13.200999999998123,0.09820192593796967,0.5101151145158016
13.400999999998012,0.14979540751192916,0.5547434842253107
13.600999999997901,0.19838390272496512,0.5744963920662324
13.80099999999779,0.2571104552504831,0.5792458301545467
14.00099999999768,0.31854346775267106,0.5787731777347693
14.200999999997569,0.3774293352163121,0.5767034225440754
14.400999999997458,0.4400757291793649,0.5687990981444235
14.600999999997347,0.510621534903188,0.5528279981737015
14.800999999997236,0.5791654639099862,0.5447244983252685
15.000999999997125,0.6471867415160173,0.5305577018427615
15.200999999997014,0.6972251487234792,0.4880887772398134
15.400999999996904,0.7185216161795648,0.4350708416241754
15.600999999996793,0.7184008828427456,0.3710312732703799
15.800999999996682,0.7197117057693347,0.30645364638617506
16.000999999996573,0.7017655745884022,0.2575433887475061
16.200999999996817,0.6739992379252685,0.21926458397058088
16.40099999999706,0.6370468401275362,0.19401305321176468
16.600999999997306,0.5907401380251616,0.18710451027743905
16.80099999999755,0.5344838156164222,0.19294836256880768
17.000999999997795,0.47665210489556004,0.2025133316658122
17.20099999999804,0.4149612305359415,0.2206362393344992
17.400999999998284,0.3551123809225032,0.2446508886840053
17.60099999999853,0.323151655879495,0.28902817217778354
17.800999999998773,0.31409106490357536,0.34125924400494345
18.000999999999017,0.3329850531588124,0.3960225750406536
18.20099999999926,0.3592443756522803,0.4347869534802974
18.400999999999506,0.40404183096781854,0.4522878267457431
18.60099999999975,0.4584772365662004,0.4470331582902906
18.799999999999994,0.5241432016148799,0.4278075317606332
19.000000000000238,0.5821989730166104,0.3831507242831511
19.200000000000482,0.6119324534442262,0.33122098946008094
19.400000000000727,0.6210523193653135,0.27690248199866824
19.60000000000097,0.5980118313376334,0.22971887674591415
19.800000000001216,0.5573140715080317,0.20293521165114467
20.00000000000146,0.5044808191517531,0.2081256978958741
