Time (s),X (m),Y (m)
0.001,0.0011130987088041246,0.0005155841445599734
0.20000000000000015,-0.003286696842961257,-0.0029675259890366013
0.4000000000000003,-0.0002909779198441517,-0.0036501362625729556
0.6000000000000004,-0.00020901968266748625,-0.007075652008206713
0.8000000000000006,0.01151843274114811,-0.0088599226400573
1.0000000000000007,0.03953996913203398,-0.004985200769336873
1.2009999999999785,0.06606360583609734,-0.004086463269975356
1.4009999999999565,0.090285224500323,-0.0013524759848338912
1.6009999999999345,0.10088021379389528,-0.003182456438852549
1.8009999999999124,0.12281902911591126,-0.004112403735646902
2.0009999999998906,0.1331207867472308,-0.009841651695263189
2.2009999999998686,0.15593233499927617,-0.017041178604549467
2.4009999999998466,0.17640697067526798,-0.029487521514656813
2.6009999999998246,0.2092424815569652,-0.04618782057757833
2.8009999999998025,0.24419537554657705,-0.06472452782027319
3.0009999999997805,0.2607032747222946,-0.08359984383074641
3.2009999999997585,0.2845878546427416,-0.10431980341423368
3.4009999999997365,0.31740291044860147,-0.1284518670243657
3.6009999999997144,0.3617001085678259,-0.15393211296718903
3.8009999999996924,0.4062054839934182,-0.1800915987680649
4.000999999999671,0.4390832495590465,-0.21160722688581357
4.200999999999738,0.46935031569430147,-0.24697993800487114
4.400999999999804,0.498405111182518,-0.28435698867620474
4.600999999999871,0.5173692190967746,-0.32169707643968054
4.800999999999938,0.5496556012550086,-0.37072466537213133
5.000000000000004,0.5962215522497073,-0.4254629134814911
5.200000000000071,0.650577516378889,-0.4821015135180827
5.400000000000138,0.7138197784428761,-0.5434477913236446
5.600000000000205,0.7751894024579657,-0.6043084517222326
5.800000000000272,0.8359845312583846,-0.6669758714489217
6.000000000000338,0.8788277130225711,-0.7199038648107894
6.200000000000405,0.898785172338981,-0.7790450063980005
6.400000000000472,0.8902347308078442,-0.8313310986129024
6.600000000000539,0.8633709969845568,-0.8765247231293123
6.800000000000606,0.8233656202093413,-0.918908620237068
7.000000000000672,0.7789485745838447,-0.9635983985968266
7.200000000000739,0.7329950497416984,-1.0091547215531202
7.400000000000806,0.6817919694364732,-1.0531734653826088
7.600000000000873,0.6294849242149902,-1.1046865774633567
7.8000000000009395,0.5788673782158194,-1.1531087286063992
8.000000000001005,0.5274313031075885,-1.216805231325471
8.200000000000895,0.4730172129290798,-1.2873485094564172
8.400000000000784,0.4186895399907702,-1.3546385985066487
8.600000000000673,0.3612358242379461,-1.4183167141548334
8.800000000000562,0.3023386937309549,-1.4895044808975397
9.000000000000451,0.23850004115388382,-1.5713568247176182
9.20000000000034,0.17667626456176072,-1.6377286144706746
9.40000000000023,0.115109049000253,-1.7029946799405367
9.600000000000119,0.05528257392606309,-1.7543124186727928
9.800000000000008,-0.0020047720330614266,-1.8132746913584175
10.000999999999896,-0.05251649708293921,-1.8714105007614161
10.200999999999786,-0.10194360771736187,-1.9356188487365862
10.400999999999675,-0.1583016022558715,-2.00615701285583
10.600999999999564,-0.21015733497900982,-2.062527852113783
10.800999999999453,-0.2651395338997435,-2.1094796087580248
11.000999999999342,-0.3223374681802454,-2.1608270451370313
11.200999999999231,-0.3751394256731648,-2.2175909874633333
11.40099999999912,-0.4238094339329917,-2.2829859371312105
11.60099999999901,-0.47187499274521244,-2.3394640548871273
11.800999999998899,-0.5257255705026043,-2.40507058907628
12.000999999998788,-0.5856113341419504,-2.4753712878542173
12.200999999998677,-0.6509051540037296,-2.5512919090335
12.400999999998566,-0.7104233761327295,-2.6205036418952052
12.600999999998455,-0.7671005145489029,-2.670129968507538
12.800999999998345,-0.8262750577537259,-2.716817137875179
13.000999999998234,-0.8780968415322601,-2.767259847514382
13.200999999998123,-0.9270344323931125,-2.824737889914897
13.400999999998012,-0.9781789382819626,-2.8935171498823187
13.600999999997901,-1.0312635028128918,-2.957883159112444
13.80099999999779,-1.086059214775218,-3.005869850445008
14.00099999999768,-1.1426872131576147,-3.0441762754682316
14.200999999997569,-1.2067776739086677,-3.084744361667433
14.400999999997458,-1.2763050029260468,-3.132958615964149
14.600999999997347,-1.3493753336434715,-3.191073965222438
14.800999999997236,-1.419736721711926,-3.2487701523815447
15.000999999997125,-1.4888902426938546,-3.3022484705050514
15.200999999997014,-1.5618495118679254,-3.359459024145674
15.400999999996904,-1.6443941083497748,-3.4186368310896187
15.600999999996793,-1.736595096510341,-3.4793459786555125
15.800999999996682,-1.8346855024644761,-3.530485654061161
16.000999999996573,-1.904512173185206,-3.5686400845625283
16.200999999996817,-1.9580685396484747,-3.588773810007481
16.40099999999706,-2.0212388431657318,-3.586919511216346
16.600999999997306,-2.078795764031888,-3.560094768351109
16.80099999999755,-2.1383162328961047,-3.516473939763427
17.000999999997795,-2.202746637703524,-3.4612915248906306
17.20099999999804,-2.2626165498794575,-3.398825733023225
17.400999999998284,-2.3104384340725677,-3.333248152610512
17.60099999999853,-2.3681799569194593,-3.268816970213192
17.800999999998773,-2.426567998958677,-3.2040204099519465
18.000999999999017,-2.487874779726491,-3.137684727873537
18.20099999999926,-2.556856844542294,-3.0663236587897167
18.400999999999506,-2.6216228279665317,-2.998045692473722
18.60099999999975,-2.676461794356486,-2.9264151447720392
18.799999999999994,-2.7077534844203357,-2.867459820624525
19.000000000000238,-2.7140026221922193,-2.810448634524485
19.200000000000482,-2.701144709878991,-2.7548499933407
19.400000000000727,-2.6740429977189644,-2.704570858394473
19.60000000000097,-2.638375337599914,-2.6512037558721633
19.800000000001216,-2.595298501755081,-2.588542102745324
20.00000000000146,-2.54731807530048,-2.5306157309016295
