Time (s),X (m),Y (m)
0.001,-0.0005698399629515257,-0.0006628221997479689
0.20000000000000015,0.006647782720315288,0.001465163223613621
0.4000000000000003,0.01783332799518795,0.002085933947563578
0.6000000000000004,0.03885858707861912,0.004822978392390923
0.8000000000000006,0.0593684288536619,0.010377897096407324
1.0000000000000007,0.08359836083239619,0.016875860581687156
1.2009999999999785,0.09362012627691564,0.012185574074255521
1.4009999999999565,0.10438609702864082,0.005437366312418707
1.6009999999999345,0.12370129546563463,0.0041438022619518615
1.8009999999999124,0.14332285545885384,-0.0009555362625077408
2.0009999999998906,0.17004141721646399,-0.001536668491999359
2.2009999999998686,0.1935833920251695,-0.004560141371756816
2.4009999999998466,0.22939140693334997,0.002993261993614009
2.6009999999998246,0.2631916764216359,0.003978026374704892
2.8009999999998025,0.29757508083403045,0.014434856756946094
3.0009999999997805,0.3317511952702256,0.022959598231180038
3.2009999999997585,0.3517873164567423,0.02088005126859274
3.4009999999997365,0.37245686657868554,0.012505807720229556
3.6009999999997144,0.38423889358587104,-0.004468703326621139
3.8009999999996924,0.4169288973177879,-0.017291699229144624
4.000999999999671,0.44222806702549833,-0.029498488787771133
4.200999999999738,0.45954474434226317,-0.047390148591245476
4.400999999999804,0.4765487053728416,-0.05614174229957965
4.600999999999871,0.4967250163360624,-0.06610366505120535
4.800999999999938,0.5271135148303723,-0.08024891410196495
5.000000000000004,0.551005672235514,-0.09481683083577835
5.200000000000071,0.5636116678597228,-0.11461198386655788
5.400000000000138,0.5860733160220591,-0.13940452066674403
5.600000000000205,0.6160407814776072,-0.15779952757370916
5.800000000000272,0.6585284865137035,-0.1732418605948783
6.000000000000338,0.6834321146832495,-0.1884411399701253
6.200000000000405,0.7092573208600413,-0.20200122066063977
6.400000000000472,0.7420910159102324,-0.2171660515023607
6.600000000000539,0.7864061083694045,-0.22885092397516854
6.800000000000606,0.8110418936551276,-0.24636632555918903
7.000000000000672,0.8395983270829359,-0.2606093388682439
7.200000000000739,0.8747151121185017,-0.27242725224840975
7.400000000000806,0.9130665530766673,-0.2853370350295731
7.600000000000873,0.9522909618702713,-0.30088924850625065
7.8000000000009395,0.9978031045501209,-0.31155304025150093
8.000000000001005,1.0285092484424034,-0.32113969070594117
8.200000000000895,1.051386691752905,-0.3326248072024072
8.400000000000784,1.0798332720951926,-0.3481476418786855
8.600000000000673,1.118159339042859,-0.36065416050416454
8.800000000000562,1.1578795370507455,-0.37854715761319235
9.000000000000451,1.2006750115845646,-0.39560400564891784
9.20000000000034,1.23771833071721,-0.4112319757342722
9.40000000000023,1.2647962627313938,-0.42962006614569653
9.600000000000119,1.294064057324757,-0.4482048475742486
9.800000000000008,1.3238273499732325,-0.4671378712059942
10.000999999999896,1.3579102668549945,-0.4908059262153663
10.200999999999786,1.386866398314609,-0.5135134556795053
10.400999999999675,1.4101080494182268,-0.5311916200094647
10.600999999999564,1.4413913803977307,-0.5455114858031824
10.800999999999453,1.4794730969899652,-0.5552788713227848
11.000999999999342,1.516636380763609,-0.5688386446778385
11.200999999999231,1.5446862195157534,-0.5847124194979298
11.40099999999912,1.5725146159466188,-0.6042936211184262
11.60099999999901,1.6069974180547373,-0.6204004527408062
11.800999999998899,1.645047449245902,-0.6315468725044167
12.000999999998788,1.6792159437781602,-0.6384279800454756
12.200999999998677,1.7203838003498073,-0.6472976763150797
12.400999999998566,1.740978930729089,-0.6605069202220696
12.600999999998455,1.760709644218433,-0.6725045301095813
12.800999999998345,1.7872130916622937,-0.6816659346031796
13.000999999998234,1.8225583878434035,-0.6808752018960662
13.200999999998123,1.8677995092046362,-0.6772952196478021
13.400999999998012,1.922816414110562,-0.6687738573011942
13.600999999997901,1.9778435832949308,-0.6633878681231924
13.80099999999779,2.015037152991001,-0.6571957960531616
14.00099999999768,2.037333528244285,-0.6537168042323545
14.200999999997569,2.066351582422946,-0.6548907431034574
14.400999999997458,2.111168544424329,-0.6555240402674077
14.600999999997347,2.1479895474905555,-0.6644919667757572
14.800999999997236,2.174437063251297,-0.6846511456027377
15.000999999997125,2.2122959261687134,-0.7100489919378414
15.200999999997014,2.2562833597924685,-0.7307299284365945
15.400999999996904,2.3018420259328276,-0.7423738467575454
15.600999999996793,2.3487724519308006,-0.7487446299442149
15.800999999996682,2.38322216695417,-0.751441903673662
16.000999999996573,2.4196061618500897,-0.7471610579841925
16.200999999996817,2.4676530251011144,-0.7395314807152074
16.40099999999706,2.5080969397212467,-0.7350523653940614
16.600999999997306,2.5575358562380526,-0.7383626183429501
16.80099999999755,2.592653769572327,-0.7496943108290263
17.000999999997795,2.622378703590455,-0.7694777096228907
17.20099999999804,2.667911297031618,-0.7958715771160693
17.400999999998284,2.718837036312393,-0.8224572010313029
17.60099999999853,2.7724245669475547,-0.8465035700879734
17.800999999998773,2.7909583392006243,-0.8722612129326514
18.000999999999017,2.7942313160810968,-0.9014288039564451
18.20099999999926,2.7974246103572717,-0.9231818157963704
18.400999999999506,2.8374663118541146,-0.939873282516594
18.60099999999975,2.877363057241708,-0.9585319127410444
18.799999999999994,2.919152219015986,-0.9756410575625313
19.000000000000238,2.959093484113407,-0.9939548285853805
19.200000000000482,3.006884043891913,-1.0127086212855325
19.400000000000727,3.071976137516401,-1.0275299183971145
19.60000000000097,3.1290482412544978,-1.033741221554917
19.800000000001216,3.180349622983793,-1.035477561669401
20.00000000000146,3.2360380510176383,-1.039048814829957
