Time (s),X (m),Y (m)
0.001,0.0005727611008870025,0.0009689812320744445
0.20000000000000015,-0.0015385185113680042,-0.004474264585993321
0.4000000000000003,0.003746270601211723,-0.003545321749130328
0.6000000000000004,0.0125029661636555,-0.0049784619243782345
0.8000000000000006,0.028728020407776143,-0.014513375620372939
1.0000000000000007,0.049611260939480324,-0.020066181231076164
1.2009999999999785,0.07312800944761398,-0.029757505967074056
1.4009999999999565,0.10089327853842273,-0.034637665603202125
1.6009999999999345,0.12972910271597426,-0.05122429262444897
1.8009999999999124,0.16361126236461496,-0.03295835356628768
2.0009999999998906,0.19140228346162866,-0.025030226350726794
2.2009999999998686,0.2217453156763478,-0.029728128219269075
2.4009999999998466,0.2527838791371351,-0.02736507712200083
2.6009999999998246,0.2891857307904597,-0.026304634282095816
2.8009999999998025,0.32020521504052746,-0.026713458309870305
3.0009999999997805,0.3539239331467489,-0.02136566485524936
3.2009999999997585,0.3924319092276164,-0.013798208549907227
3.4009999999997365,0.434198992299168,-0.01852400190597184
3.6009999999997144,0.4694852029780529,-0.019851936858527715
3.8009999999996924,0.506007661321376,-0.02223152517382211
4.000999999999671,0.5412968134508195,-0.03339081790645751
4.200999999999738,0.5824667558814487,-0.03815196470360861
4.400999999999804,0.6269021367411561,-0.032009735572667425
4.600999999999871,0.6799747273127865,-0.016179183266456332
4.800999999999938,0.7214892233215244,-0.013195772318927724
5.000000000000004,0.7628466747904195,-0.01225688052679943
5.200000000000071,0.8046517038161225,-0.01030374797438331
5.400000000000138,0.8463077008979079,-0.014878754879764386
5.600000000000205,0.8871833860412278,-0.026322802020434147
5.800000000000272,0.9110240587704717,-0.0414652941796593
6.000000000000338,0.9371194131839373,-0.06491206779172742
6.200000000000405,0.9755129266705642,-0.09863643980734554
6.400000000000472,1.003462028286856,-0.13712056536128692
6.600000000000539,1.0114428697307232,-0.17834252985922672
6.800000000000606,1.0190087357513569,-0.21709308458312426
7.000000000000672,1.0200544731503307,-0.2541503469064153
7.200000000000739,1.0294019386342703,-0.2966385742255696
7.400000000000806,1.0451363232261826,-0.3432536847016737
7.600000000000873,1.0454058512185864,-0.3852787240940475
7.8000000000009395,1.0456335719654255,-0.42451670661300345
8.000000000001005,1.0619907106577997,-0.472376912547288
8.200000000000895,1.0796313251764091,-0.5226959356764723
8.400000000000784,1.088212705116531,-0.5712291944952838
8.600000000000673,1.088160970190504,-0.6167865822980642
8.800000000000562,1.0968202324178986,-0.6659586266038997
9.000000000000451,1.1053313571467096,-0.7157854771999861
9.20000000000034,1.1184690397747112,-0.768275699158227
9.40000000000023,1.1194261999818644,-0.8170920649495683
9.600000000000119,1.1288390996038695,-0.8607632890273985
9.800000000000008,1.144091669537348,-0.905822813399463
10.000999999999896,1.1442983048092092,-0.9530052026663935
10.200999999999786,1.1541781367310426,-1.005256480929268
10.400999999999675,1.1715557315198286,-1.0599706844702161
10.600999999999564,1.1796998177820561,-1.1112539118026938
10.800999999999453,1.17754869489735,-1.1592831687285294
11.000999999999342,1.1760682380467522,-1.2007811115050406
11.200999999999231,1.1707208938523839,-1.2424495227736367
11.40099999999912,1.1722686440211956,-1.2883854250704905
11.60099999999901,1.1725616730893833,-1.3301385024944832
11.800999999998899,1.1618550404820276,-1.3672065239999216
12.000999999998788,1.1573625581266076,-1.417029198892623
12.200999999998677,1.1494720101787923,-1.4609115991253736
12.400999999998566,1.1401088781648958,-1.50422051906682
12.600999999998455,1.1313008416428756,-1.5296901277433577
12.800999999998345,1.103253332853283,-1.5541437492840227
13.000999999998234,1.058301401187477,-1.5810961612470928
13.200999999998123,1.0173808865770173,-1.5942303765941384
13.400999999998012,0.9749667849404159,-1.5977120364978314
13.600999999997901,0.9254822624561359,-1.602132502576261
13.80099999999779,0.8826215859103751,-1.6025611930122752
14.00099999999768,0.8421042715262907,-1.5987911149134713
14.200999999997569,0.7927673429761553,-1.599229629733209
14.400999999997458,0.7380920637601793,-1.5969418633349288
14.600999999997347,0.6875560702397013,-1.5941029894807044
14.800999999997236,0.6375923609753652,-1.59891436661086
15.000999999997125,0.5871120153699666,-1.6012374299597396
15.200999999997014,0.5413864720907849,-1.59787767554263
15.400999999996904,0.48921691312949656,-1.5910663949848982
15.600999999996793,0.4353910793136819,-1.576099595803509
15.800999999996682,0.39447061271103484,-1.5456013883353865
16.000999999996573,0.36954491373058695,-1.504921074140956
16.200999999996817,0.33461482700852935,-1.461207061976922
16.40099999999706,0.3044803402810582,-1.4270741452707492
16.600999999997306,0.27888265078075897,-1.4022643361939093
16.80099999999755,0.2550568166187204,-1.3695517560431936
17.000999999997795,0.24388011548593092,-1.3258851733328896
17.20099999999804,0.21202133489824623,-1.284497518854717
17.400999999998284,0.18138047656047457,-1.2461631087776226
17.60099999999853,0.15528010553660823,-1.203500997293207
17.800999999998773,0.1345718668807598,-1.1561637014615858
18.000999999999017,0.09718193283319002,-1.1206890197347814
18.20099999999926,0.05717646491593271,-1.0897594124756806
18.400999999999506,0.0021633594079934772,-1.067713043193409
18.60099999999975,-0.040806598877901584,-1.0420320392434486
18.799999999999994,-0.09914041485035452,-1.0227427779505418
19.000000000000238,-0.15868674355917478,-1.006193064819871
19.200000000000482,-0.21732626231547933,-0.9905582292878231
19.400000000000727,-0.27562140988202494,-0.9761438233418643
19.60000000000097,-0.30361323414381397,-0.9625732989326109
19.800000000001216,-0.3177317598953452,-0.9333158008680056
20.00000000000146,-0.32016485666787425,-0.8935017490271168
