Time (s),X (m),Y (m)
0.001,0.0012473251573109415,-8.987223813608099e-05
0.20000000000000015,0.004078037069283348,-0.0008591956131348115
0.4000000000000003,0.013245236767822586,-0.00034548905796950396
0.6000000000000004,0.02348148513188743,-0.005928673910274766
0.8000000000000006,0.04194471400855753,-0.011754441780222481
1.0000000000000007,0.07514774392824376,-0.0229117543678241
1.2009999999999785,0.11061681333664336,-0.0389659967479139
1.4009999999999565,0.15239523574831057,-0.055933682060862876
1.6009999999999345,0.20502619688377338,-0.07910866385520116
1.8009999999999124,0.25438699715189195,-0.10323274907710898
2.0009999999998906,0.3022833143628053,-0.12763675664734137
2.2009999999998686,0.3510043772740198,-0.15426889507179634
2.4009999999998466,0.39138416624116246,-0.1743157383200051
2.6009999999998246,0.4170728788546031,-0.21631330579034908
2.8009999999998025,0.4277877697408503,-0.2616891571405987
3.0009999999997805,0.4240189817776646,-0.3180238526815338
3.2009999999997585,0.4094915831772597,-0.36984194632202
3.4009999999997365,0.377435997667881,-0.4098740424972046
3.6009999999997144,0.32429352669124795,-0.4332225475013533
3.8009999999996924,0.26354751826147005,-0.44060683873162476
4.000999999999671,0.2157967843690477,-0.44011537516050847
4.200999999999738,0.17175872789901375,-0.4304186289013213
4.400999999999804,0.1271791841185374,-0.4143181256300139
4.600999999999871,0.07958850908843791,-0.3944743701231183
4.800999999999938,0.028927298803800225,-0.355588411490868
5.000000000000004,-0.018648512019633003,-0.3066333549198655
5.200000000000071,-0.04954912281144738,-0.25636426041477256
5.400000000000138,-0.06000840035702591,-0.20195722787052153
5.600000000000205,-0.05014416394511832,-0.1455543962735256
5.800000000000272,-0.03199616988653076,-0.0904051810635519
6.000000000000338,-0.004615933662489484,-0.043597658997048636
6.200000000000405,0.03910949954305818,-0.014464174828730877
6.400000000000472,0.09188246540350385,0.0018037821004365463
6.600000000000539,0.14346581444952175,0.0011903538143168914
6.800000000000606,0.19680611202018944,-0.01187057595249802
7.000000000000672,0.2572588811829839,-0.04154540792263409
7.200000000000739,0.3151653069403408,-0.09088467579217886
7.400000000000806,0.34995239006095913,-0.14132417162044794
7.600000000000873,0.3568618431462907,-0.18619647120396282
7.8000000000009395,0.3488699755928683,-0.2377039642505293
8.000000000001005,0.3192212305963169,-0.27466807776699176
8.200000000000895,0.2864264473622831,-0.2893238060151644
8.400000000000784,0.25547984790898143,-0.2865143802736169
8.600000000000673,0.2159300819277416,-0.2627065950055178
8.800000000000562,0.18376909098563202,-0.20589560731578796
9.000000000000451,0.16954841727362255,-0.1428039397860003
9.20000000000034,0.17543221324002506,-0.08536699196737497
9.40000000000023,0.1926716459040665,-0.026852330949956954
9.600000000000119,0.20903962176137053,0.029541352556709106
9.800000000000008,0.23553239247278113,0.0866650356313778
10.000999999999896,0.27068338415790305,0.12594068229800204
10.200999999999786,0.3146388016228789,0.13087461903484232
10.400999999999675,0.3595079674043488,0.12243171261313235
10.600999999999564,0.38497869438342286,0.09595179222330733
10.800999999999453,0.3814913731087811,0.042755910499982355
11.000999999999342,0.36570460445554287,-0.01693361614084739
11.200999999999231,0.3421499946153967,-0.08098931597128624
11.40099999999912,0.3213879376081134,-0.14027651990050416
11.60099999999901,0.2926579052786494,-0.20146448568342296
11.800999999998899,0.24447620562686423,-0.25749128532278587
12.000999999998788,0.19301372346096995,-0.2934130027192416
12.200999999998677,0.14162892715094388,-0.30285644210509727
12.400999999998566,0.09716968262281671,-0.2983580229835888
12.600999999998455,0.04029538067844066,-0.28612352806951136
12.800999999998345,-0.026067026867918897,-0.2678337059755925
13.000999999998234,-0.09688392526217632,-0.24597115952779994
13.200999999998123,-0.16823108514257995,-0.2223097450964734
13.400999999998012,-0.24016239352896662,-0.19406918152321845
13.600999999997901,-0.3162276729218695,-0.1570806179831313
13.80099999999779,-0.3942261085707629,-0.11108992572571762
14.00099999999768,-0.4669492630866309,-0.06334147235086084
14.200999999997569,-0.54010834060923,-0.025595935121790567
14.400999999997458,-0.5897570392531011,0.01507042447159018
14.600999999997347,-0.5994276993969269,0.06936274302613851
14.800999999997236,-0.5830470386499149,0.13551115408578554
15.000999999997125,-0.5556255696419565,0.2033796880566422
15.200999999997014,-0.5037735601576513,0.25933028149398174
15.400999999996904,-0.4446830093846664,0.28657851097707243
15.600999999996793,-0.37321418218935865,0.2920215778923629
15.800999999996682,-0.3008399122441421,0.2884166044162558
16.000999999996573,-0.22985898858672862,0.26898949255774346
16.200999999996817,-0.17491199462770435,0.2230487596855339
16.40099999999706,-0.15798917715777555,0.16682399645672163
16.600999999997306,-0.1723251437581595,0.10448346393092409
16.80099999999755,-0.20201636718405022,0.04680473589115356
17.000999999997795,-0.2314235221170672,-0.0016145282481228693
17.20099999999804,-0.2635124985314346,-0.037648867068590865
17.400999999998284,-0.3003718334002687,-0.05178315875434058
17.60099999999853,-0.34194185869548593,-0.048517314901091325
17.800999999998773,-0.3855228717351441,-0.032230674798816784
18.000999999999017,-0.4333251812258116,-0.00788233677521087
18.20099999999926,-0.48511531371757266,0.03179926252141832
18.400999999999506,-0.5237708933768009,0.08683354797403732
18.60099999999975,-0.5367100174778281,0.14108643211730354
18.799999999999994,-0.5268672280652297,0.1961264419649066
19.000000000000238,-0.500474070551698,0.25176255079299253
19.200000000000482,-0.4676031744430349,0.2864327373863553
19.400000000000727,-0.4245110529229912,0.293560152024351
19.60000000000097,-0.37728820891557757,0.28327011204324926
19.800000000001216,-0.3226272197370525,0.26337418012795866
20.00000000000146,-0.26348286039650454,0.2354543353723631
