Time (s),X (m),Y (m)
0.001,0.00013020853671323254,0.0010272443824616275
0.20000000000000015,0.0027155315597727136,-0.0029492628965622036
0.4000000000000003,0.008017603814502946,-0.013186053642080227
0.6000000000000004,0.030269820786583166,-0.020850054491587795
0.8000000000000006,0.05266010678879454,-0.04680731252174247
1.0000000000000007,0.06457822284474599,-0.08097579013938726
1.2009999999999785,0.06297604630893823,-0.1213752367453831
1.4009999999999565,0.03893682068918666,-0.16144264524165103
1.6009999999999345,-0.005609116551415522,-0.1916982208982155
1.8009999999999124,-0.05723740021390347,-0.23449319884510558
2.0009999999998906,-0.10472838206906407,-0.28590941957714283
2.2009999999998686,-0.1520697952749292,-0.32758547224038376
2.4009999999998466,-0.19959705053937166,-0.34725102286723
2.6009999999998246,-0.2543125827891524,-0.3500867710374704
2.8009999999998025,-0.3114820424553051,-0.3512064284956392
3.0009999999997805,-0.3651377809747191,-0.3352365639319202
3.2009999999997585,-0.40694838068544237,-0.29552002628835405
3.4009999999997365,-0.45621044007591965,-0.24860393048207313
3.6009999999997144,-0.49612592658010546,-0.19554796921462494
3.8009999999996924,-0.5046511335083452,-0.13700647739454427
4.000999999999671,-0.4929151674306267,-0.07586211516287823
4.200999999999738,-0.46769969321836197,-0.02558544297902248
4.400999999999804,-0.42647260522836666,-0.01329792779478015
4.600999999999871,-0.37466854131387917,-0.02488668964168811
4.800999999999938,-0.32039770316663213,-0.05620089355212333
5.000000000000004,-0.269581532673684,-0.1081788456188751
5.200000000000071,-0.21328722709423253,-0.15487691080918206
5.400000000000138,-0.16534144384960422,-0.20521108690211226
5.600000000000205,-0.14437875907779968,-0.26142743726304013
5.800000000000272,-0.13949115096906844,-0.3244896939927854
6.000000000000338,-0.14889196556301543,-0.3930926260153083
6.200000000000405,-0.17949720767877966,-0.4595215545786801
6.400000000000472,-0.21618050515004666,-0.5240001259819165
6.600000000000539,-0.26227062721389927,-0.5908603620052568
6.800000000000606,-0.32052402917452333,-0.6318413390545581
7.000000000000672,-0.3914130353824394,-0.6368099187035806
7.200000000000739,-0.4600506333544441,-0.6249583495855305
7.400000000000806,-0.5094961061771444,-0.6001673380162829
7.600000000000873,-0.5141180623722841,-0.562375635943255
7.8000000000009395,-0.49620433880086967,-0.5144131165494359
8.000000000001005,-0.46091444005594256,-0.4574069471785878
8.200000000000895,-0.41057420533422667,-0.4101819375083532
8.400000000000784,-0.3505096554297805,-0.357907341714498
8.600000000000673,-0.2879902474211367,-0.3337486398757564
8.800000000000562,-0.22912491618814718,-0.3442854956904935
9.000000000000451,-0.1616852249532788,-0.36970943451250793
9.20000000000034,-0.11066320897244125,-0.4135384364312751
9.40000000000023,-0.09109782956265351,-0.4697869287725978
9.600000000000119,-0.09883539518720655,-0.5277127312569974
9.800000000000008,-0.12873238119488908,-0.5671496061197882
10.000999999999896,-0.1756114364057888,-0.5868227488213058
10.200999999999786,-0.2325059337100505,-0.5738945917952627
10.400999999999675,-0.2949280199591091,-0.5429816281517388
10.600999999999564,-0.35118859092506793,-0.4945987154924475
10.800999999999453,-0.40175643166659963,-0.43542551513269206
11.000999999999342,-0.4478792713476392,-0.368754358452151
11.200999999999231,-0.46568057206133034,-0.29676274633500643
11.40099999999912,-0.45702135182968007,-0.23467628452450434
11.60099999999901,-0.43269512789612674,-0.17024634352371734
11.800999999998899,-0.393352718687592,-0.11615895097694805
12.000999999998788,-0.34135093809342737,-0.07830135852927027
12.200999999998677,-0.29074070796268825,-0.062104733047741126
12.400999999998566,-0.234109702534714,-0.07359200781068136
12.600999999998455,-0.1753021489891852,-0.09682358790842
12.800999999998345,-0.11248904144357859,-0.1292435275410013
13.000999999998234,-0.04950302695680595,-0.16799993508398878
13.200999999998123,0.013028832187816624,-0.20959865544306017
13.400999999998012,0.06755636311298063,-0.2594742679364254
13.600999999997901,0.09925062046168764,-0.30985012540354656
13.80099999999779,0.1030303714873059,-0.3399054236746456
14.00099999999768,0.07639604697382166,-0.35304114438762957
14.200999999997569,0.02799874435045106,-0.35225118240903897
14.400999999997458,-0.03826728339326846,-0.34914937239702093
14.600999999997347,-0.10089829497641947,-0.3373586112501087
14.800999999997236,-0.15452383185626367,-0.31335351888269036
15.000999999997125,-0.1830542123698558,-0.2728124008911371
15.200999999997014,-0.16690864620277568,-0.2328941404295326
15.400999999996904,-0.13284989496318078,-0.18553316738946307
15.600999999996793,-0.08895749241966401,-0.13911389712824992
15.800999999996682,-0.03503548706350603,-0.1056120672997885
16.000999999996573,0.024370107692932075,-0.11110734838606474
16.200999999996817,0.08546087489200149,-0.12996169483494943
16.40099999999706,0.14834714643332825,-0.15202901069077931
16.600999999997306,0.18293707805780593,-0.19347057771749854
16.80099999999755,0.18875665960087712,-0.2486745600523099
17.000999999997795,0.17947002298536482,-0.3090484781641633
17.20099999999804,0.15297844166589677,-0.3784661281476399
17.400999999998284,0.11044156725478246,-0.4244278573276413
17.60099999999853,0.050376938863186435,-0.443639938719084
17.800999999998773,-0.014871136918432185,-0.4392983324034324
18.000999999999017,-0.07672901708957909,-0.4197031105916323
18.20099999999926,-0.12027244774628278,-0.3825126693108579
18.400999999999506,-0.14081642807032793,-0.33824531834723265
18.60099999999975,-0.13387779149175658,-0.28572811113256036
18.799999999999994,-0.11093450318530455,-0.24057838668874773
19.000000000000238,-0.07520112396723944,-0.18698632417878935
19.200000000000482,-0.031394651457652294,-0.14829925374094927
19.400000000000727,0.02321358169103707,-0.12378407922192529
19.60000000000097,0.0807212130554797,-0.1305446758576172
19.800000000001216,0.13588258535330575,-0.15482610116827777
20.00000000000146,0.1832196925053032,-0.18942872021694718
