Time (s),X (m),Y (m)
0.001,0.0011890620069237587,-0.00035268032603768894
0.20000000000000015,0.0018132096188373712,5.0651833945601364e-05
0.4000000000000003,0.003706666146331875,0.0008018971136632426
0.6000000000000004,0.006222790616431821,0.0002760126581607484
0.8000000000000006,0.010533845678454522,-0.001431441871792876
1.0000000000000007,0.011164847333161936,-0.0034766426312677987
1.2009999999999785,0.011417449662392507,-0.003095202120976848
1.4009999999999565,0.012239550072497694,-0.0028750266672507418
1.6009999999999345,0.01305613889555577,-0.0026653153732264174
1.8009999999999124,0.012282221428993769,-0.0027444712588970237
2.0009999999998906,0.01886112028916688,-0.003511195511309522
2.2009999999998686,0.02407254567699404,-0.00476296678751041
2.4009999999998466,0.02986352390298408,-0.007104683457577215
2.6009999999998246,0.035348506613709814,-0.008027801348980686
2.8009999999998025,0.041095935477747966,-0.008787979287436397
3.0009999999997805,0.04860740771024532,-0.009720776213769898
3.2009999999997585,0.053590634786336834,-0.011026636132867062
3.4009999999997365,0.059375369421764024,-0.01154371956894624
3.6009999999997144,0.0653888418783416,-0.01206245983862058
3.8009999999996924,0.07028455741636057,-0.01117335935518167
4.000999999999671,0.07673752132189944,-0.010075929505904342
4.200999999999738,0.08079402628248322,-0.008636724195850614
4.400999999999804,0.08454583335541505,-0.007229075741167774
4.600999999999871,0.08815154322618671,-0.005206089761135362
4.800999999999938,0.09355590385929237,-0.003047617309008364
5.000000000000004,0.09736168649017854,-0.0022533066903353627
5.200000000000071,0.10188747049477538,-0.0006026971338746599
5.400000000000138,0.10457870839869621,0.0016358189526794954
5.600000000000205,0.10793380040145469,0.004612812192915984
5.800000000000272,0.10877262412970419,0.00825557302271873
6.000000000000338,0.11134797747096883,0.011424543094319282
6.200000000000405,0.11457030635307591,0.013885317447617182
6.400000000000472,0.11893504844792459,0.01825632295931459
6.600000000000539,0.12348816537772765,0.022107744971151796
6.800000000000606,0.1268312831230434,0.025347297712387144
7.000000000000672,0.12963470856268738,0.028356312392390202
7.200000000000739,0.1325495408079551,0.03219783228020123
7.400000000000806,0.13652000073118467,0.03653787154120231
7.600000000000873,0.14038565623421026,0.04143889296436073
7.8000000000009395,0.14395400538307668,0.0469271814226372
8.000000000001005,0.14858476598673903,0.0518715630661866
8.200000000000895,0.15223820192975826,0.05589952700188791
8.400000000000784,0.1564426223663995,0.0612118089564441
8.600000000000673,0.15972102096941046,0.06627778454969567
8.800000000000562,0.16306796133470064,0.07088892707360894
9.000000000000451,0.16592062458379256,0.07483756763479146
9.20000000000034,0.16861379631202006,0.0794732837780775
9.40000000000023,0.17196786107375409,0.08250233475095145
9.600000000000119,0.1745750481715818,0.08744532017123145
9.800000000000008,0.1779165637862821,0.09258002422937855
10.000999999999896,0.18042430591207095,0.09794975450336521
10.200999999999786,0.182778430778641,0.10184542547933027
10.400999999999675,0.18478828055288068,0.10602673475593298
10.600999999999564,0.18713156934420633,0.11153249593005536
10.800999999999453,0.1895970361711763,0.11673516984176675
11.000999999999342,0.19171742211558293,0.12278264766219832
11.200999999999231,0.19487065399663475,0.12925961256948856
11.40099999999912,0.197412960619337,0.13507124857614786
11.60099999999901,0.200153442419228,0.14171418772409322
11.800999999998899,0.2028509630295175,0.14682893679880812
12.000999999998788,0.20576094340296894,0.15491765741100225
12.200999999998677,0.20718907567194383,0.15944278604452822
12.400999999998566,0.20895809480492974,0.16343735718050267
12.600999999998455,0.21096668233435434,0.16957800502606263
12.800999999998345,0.21287251747048336,0.17530938915353816
13.000999999998234,0.2140483552559102,0.17994080377049765
13.200999999998123,0.215918682833599,0.1867414437896432
13.400999999998012,0.2174536434658921,0.19329835954645258
13.600999999997901,0.2189195713967988,0.19864308921149432
13.80099999999779,0.2207674668863,0.20558869715544018
14.00099999999768,0.22230957064272114,0.21106625953158406
14.200999999997569,0.22377879433302578,0.21585669766153104
14.400999999997458,0.22487448734426432,0.22032363337965885
14.600999999997347,0.22579018672642623,0.22540145472460527
14.800999999997236,0.2266572480890692,0.2305280232149674
15.000999999997125,0.2279369663525346,0.23431662210636492
15.200999999997014,0.22880751745879271,0.23985040171180846
15.400999999996904,0.22938235959103517,0.24462319680417702
15.600999999996793,0.23028453646296618,0.24997260845139774
15.800999999996682,0.23111884990707007,0.2546758653368071
16.000999999996573,0.23197420088749546,0.25919295352634336
16.200999999996817,0.23213060087678988,0.26378774470637173
16.40099999999706,0.23291754837088166,0.2684227371848465
16.600999999997306,0.23316702717685783,0.27291205579442485
16.80099999999755,0.2335775796189484,0.2773657066237687
17.000999999997795,0.23401513085123068,0.2815195875002516
17.20099999999804,0.23389290675853483,0.28567255504009914
17.400999999998284,0.23384106064495547,0.28975051657866074
17.60099999999853,0.23410048002348754,0.2938230989717533
17.800999999998773,0.23396004338446696,0.29757760939848416
18.000999999999017,0.23362782461722434,0.3016808108731607
18.20099999999926,0.23313955988522614,0.30582551734697333
18.400999999999506,0.23231009868147898,0.30983722356582105
18.60099999999975,0.23119537888980715,0.31396410511189865
18.799999999999994,0.2298725856084661,0.3179205023264858
19.000000000000238,0.22854168968009517,0.32151463103681227
19.200000000000482,0.22710973282727523,0.32541609272144584
19.400000000000727,0.22643601017241605,0.32934753111623466
19.60000000000097,0.22494188737986012,0.3331919058761272
19.800000000001216,0.22314789019103695,0.33753906445391785
20.00000000000146,0.2211073698701198,0.3415663982287309
