Time (s),X (m),Y (m)
0.001,-0.0005698399629515257,-0.0006628221997479689
0.20000000000000015,0.0046737245937411446,0.0026697087715987517
0.4000000000000003,0.004817164739072056,-0.0004734460883209636
0.6000000000000004,0.01390998477174381,0.0006711417897450568
0.8000000000000006,0.025303012833545756,-0.0015102338306750124
1.0000000000000007,0.03369100927728129,-0.008394490774637425
1.2009999999999785,0.042968304912176916,-0.008901346039734808
1.4009999999999565,0.05936301339236036,-0.004712686259543691
1.6009999999999345,0.07586907792314995,0.005074084332241463
1.8009999999999124,0.09374186263760137,0.007907126132687486
2.0009999999998906,0.11637259116518847,0.0007833721362684736
2.2009999999998686,0.13701963133881243,-0.0004138533918817615
2.4009999999998466,0.15954585064252316,-0.002715873392616657
2.6009999999998246,0.17685380439562312,6.626884735702081e-05
2.8009999999998025,0.19296112775515473,-4.733944397193674e-05
3.0009999999997805,0.20309850183495232,-0.00011675404991596131
3.2009999999997585,0.217113870849606,0.006437007032655519
3.4009999999997365,0.23269892141147502,0.007340662676631695
3.6009999999997144,0.25717777740898723,0.022435537160549336
3.8009999999996924,0.2811090393691502,0.039823231838939384
4.000999999999671,0.31049097066855424,0.05164390076281481
4.200999999999738,0.3283273659035884,0.05337158558735756
4.400999999999804,0.34776300476908,0.0629223020981087
4.600999999999871,0.36623117577115316,0.07490016356273746
4.800999999999938,0.38988221567412146,0.09071829370005084
5.000000000000004,0.40971350734398165,0.09962025829265578
5.200000000000071,0.4300637038698786,0.12175377624812612
5.400000000000138,0.44805735767629895,0.14202983118430396
5.600000000000205,0.4697833917372614,0.15407182792277613
5.800000000000272,0.4843528806122458,0.1753058148378898
6.000000000000338,0.5016640069409704,0.1940040351601397
6.200000000000405,0.5201332188270414,0.21581970762145553
6.400000000000472,0.5382653057060133,0.2382462892345446
6.600000000000539,0.5563652424569617,0.2645926465512551
6.800000000000606,0.5709401858746644,0.27734132672246903
7.000000000000672,0.5858983764838378,0.2973271227445856
7.200000000000739,0.6036873006772597,0.3128990336552241
7.400000000000806,0.6236729334869868,0.32884362883738427
7.600000000000873,0.6338814286479589,0.34922464942411197
7.8000000000009395,0.6498476365972298,0.3761736064848705
8.000000000001005,0.6650639674009232,0.3944405473134922
8.200000000000895,0.6746537956019822,0.404726738853036
8.400000000000784,0.682548795147733,0.4207316407998478
8.600000000000673,0.6929396499441988,0.44164973430433635
8.800000000000562,0.709946734556125,0.45848711086074684
9.000000000000451,0.727583983748365,0.479948194219768
9.20000000000034,0.746318718832079,0.5066249774238742
9.40000000000023,0.7570073116056997,0.534308945232594
9.600000000000119,0.7621396955133148,0.5655244079699863
9.800000000000008,0.7622104503891065,0.5976336225179858
10.000999999999896,0.7695604780558734,0.6267333705350678
10.200999999999786,0.7814392789569802,0.6427675893780328
10.400999999999675,0.7939438950273722,0.6548690930471013
10.600999999999564,0.8092881438098616,0.6703036379598917
10.800999999999453,0.8242899024931519,0.7001188235310715
11.000999999999342,0.8434608117519624,0.7296562242722269
11.200999999999231,0.858155960680741,0.7571533077770547
11.40099999999912,0.8656262051730376,0.7765829091510112
11.60099999999901,0.8741263879567865,0.8081123160833086
11.800999999998899,0.8909470949624887,0.8271027467007754
12.000999999998788,0.9052428827412745,0.8490926945160051
12.200999999998677,0.9116086011416508,0.8740507277512128
12.400999999998566,0.9144415760435609,0.8953996766109424
12.600999999998455,0.9186809871607579,0.9141446135137143
12.800999999998345,0.916340046706344,0.939939684779191
13.000999999998234,0.9163000328611588,0.9686593441587094
13.200999999998123,0.9127120692129048,0.9935109571653378
13.400999999998012,0.9141008318192779,1.0204317289799334
13.600999999997901,0.917768089863474,1.0438699237921054
13.80099999999779,0.9204172725279042,1.0676467876385372
14.00099999999768,0.9304816724574062,1.0881142145602913
14.200999999997569,0.9393270420247571,1.1085013853108845
14.400999999997458,0.9489761072468146,1.130874837704638
14.600999999997347,0.957888162292168,1.1558713458133696
14.800999999997236,0.9696625865915406,1.1881696992507127
15.000999999997125,0.9816369512155209,1.2156962280873986
15.200999999997014,0.9919283210941252,1.2384763951179325
15.400999999996904,1.0055195712095273,1.2634656358663903
15.600999999996793,1.0183895159613445,1.2858106140817533
15.800999999996682,1.0312666718317318,1.3055938223871477
16.000999999996573,1.0400194217587744,1.3250945823195934
16.200999999996817,1.0477281043968578,1.3465933940550892
16.40099999999706,1.0532695886933956,1.378202098176938
16.600999999997306,1.060784443211028,1.40301597673682
16.80099999999755,1.0633581588070635,1.4235291661161589
17.000999999997795,1.0700157623493611,1.4508870856003797
17.20099999999804,1.079007492505656,1.4704121647093418
17.400999999998284,1.0884157554280514,1.4957670736034805
17.60099999999853,1.0957301367134202,1.5167523400883187
17.800999999998773,1.1050679881731869,1.5327923396513081
18.000999999999017,1.1129990021752416,1.5628246860979311
18.20099999999926,1.1261637929584114,1.5790520127382257
18.400999999999506,1.1432483097527089,1.602195015457629
18.60099999999975,1.1570091153342834,1.61254124268773
18.799999999999994,1.166828445224743,1.6293941253023045
19.000000000000238,1.168960181672218,1.6639953592881929
19.200000000000482,1.1765690288445725,1.6950076169859178
19.400000000000727,1.1846832308665187,1.7196024736180433
19.60000000000097,1.1850385371803704,1.7434020471874012
19.800000000001216,1.1901512013528652,1.7609655897457877
20.00000000000146,1.1958059049368397,1.785343693239447
