Time (s),X (m),Y (m)
0.001,-0.0002955033697106609,0.0008930179339548111
0.20000000000000015,0.00379862657096957,-0.003666173833831737
0.4000000000000003,0.007306419182475964,-0.007303077394480134
0.6000000000000004,0.011025069853750215,-0.0005245687839646362
0.8000000000000006,0.02402703039687561,0.0018191585378836213
1.0000000000000007,0.04074236525358149,0.0044731107863783485
1.2009999999999785,0.05847882855984172,-0.007281959034190844
1.4009999999999565,0.07393087943097772,-0.005555602777948667
1.6009999999999345,0.09371140990156591,-0.005917001349487683
1.8009999999999124,0.10862056942875094,-0.011433240006512583
2.0009999999998906,0.12366505437081891,-0.01909964913090526
2.2009999999998686,0.14273127071782596,-0.018137550348275265
2.4009999999998466,0.15428718007012154,-0.03267187984465635
2.6009999999998246,0.1677942991016381,-0.055180015179132354
2.8009999999998025,0.1784433238049476,-0.0752978455690065
3.0009999999997805,0.18793568851581774,-0.09106143261244028
3.2009999999997585,0.19952439991420648,-0.09902388489418294
3.4009999999997365,0.21177219838207356,-0.1090573055268095
3.6009999999997144,0.22725533506050904,-0.128230258640336
3.8009999999996924,0.2483201406285536,-0.16143913354610992
4.000999999999671,0.26812598508408325,-0.19437044913983745
4.200999999999738,0.2819800745876636,-0.2135393954783379
4.400999999999804,0.2940824114364378,-0.2324560472464814
4.600999999999871,0.311480573199639,-0.2387428504461751
4.800999999999938,0.3264935447238346,-0.2450013226651014
5.000000000000004,0.3444486129891286,-0.26045755845249347
5.200000000000071,0.3510947224438472,-0.28244231504847894
5.400000000000138,0.35880971388510785,-0.30133111396590423
5.600000000000205,0.37682214570606987,-0.31104112003867235
5.800000000000272,0.3861597101883901,-0.3356018427989522
6.000000000000338,0.39999097399024186,-0.36110082744456445
6.200000000000405,0.4022834587188576,-0.3906017430268294
6.400000000000472,0.41611529488077953,-0.41106406910927845
6.600000000000539,0.42526015892282637,-0.4411765984526571
6.800000000000606,0.4315271311057704,-0.4717456651402146
7.000000000000672,0.43649828961912607,-0.500496457789734
7.200000000000739,0.44272295832990904,-0.5282837684111836
7.400000000000806,0.4533465537805984,-0.5555654636330302
7.600000000000873,0.47015754808578714,-0.5760200884273153
7.8000000000009395,0.4719742775961623,-0.6002128987061153
8.000000000001005,0.4789301957594687,-0.6292924493189066
8.200000000000895,0.48487784492117864,-0.6521042429225844
8.400000000000784,0.495450640775897,-0.676791100412399
8.600000000000673,0.5066164672771221,-0.6999838544376717
8.800000000000562,0.5288899612007066,-0.7179595693759329
9.000000000000451,0.5410121263724575,-0.7424803738053541
9.20000000000034,0.5427082427708968,-0.7701155346377373
9.40000000000023,0.5504809861566403,-0.800139794068359
9.600000000000119,0.5575043994641388,-0.8308785895645132
9.800000000000008,0.5605311006474819,-0.8649898850439871
10.000999999999896,0.5578153003537676,-0.8953791086184538
10.200999999999786,0.5439417757318861,-0.9199095418127685
10.400999999999675,0.5395440275716087,-0.9434591450481253
10.600999999999564,0.5403259613398335,-0.9752222317356046
10.800999999999453,0.5202704485127382,-1.0033541121436151
11.000999999999342,0.5073536079821671,-1.0280764637065745
11.200999999999231,0.4827816087572444,-1.0435643753177106
11.40099999999912,0.4499251538334284,-1.0579911097944803
11.60099999999901,0.433613040756455,-1.0712497270598218
11.800999999998899,0.41460195010208234,-1.0810176033456798
12.000999999998788,0.38840752239462345,-1.09567745809027
12.200999999998677,0.36432872900500013,-1.1155055863537466
12.400999999998566,0.34426202305953063,-1.1358098679214466
12.600999999998455,0.3128391267706672,-1.1523744828672544
12.800999999998345,0.2906404997062259,-1.170303084300657
13.000999999998234,0.27293147865191425,-1.181557015205839
13.200999999998123,0.24958171424360084,-1.1904526635676407
13.400999999998012,0.22412105169620186,-1.2005354109364033
13.600999999997901,0.20927227646332144,-1.2186032540304805
13.80099999999779,0.18825934585926507,-1.2331518526612983
14.00099999999768,0.16724326287195398,-1.244327625519673
14.200999999997569,0.15065266587998122,-1.2567767417718287
14.400999999997458,0.13334152154887313,-1.2711721309592772
14.600999999997347,0.11696390382265555,-1.2883176926898432
14.800999999997236,0.09958118129989392,-1.3001853943531534
15.000999999997125,0.08225931901461918,-1.311393928341127
15.200999999997014,0.0636265881851281,-1.3284498928983033
15.400999999996904,0.04398716200560432,-1.3436061922199725
15.600999999996793,0.028853564961291687,-1.3637640505815387
15.800999999996682,0.004524053570711186,-1.3808953313294876
16.000999999996573,-0.018432031756281237,-1.3947720946648432
16.200999999996817,-0.044363942917651285,-1.4046143360335606
16.40099999999706,-0.06379390615999389,-1.4193451414862712
16.600999999997306,-0.08547190455829687,-1.4356104412971926
16.80099999999755,-0.10942942045290353,-1.4417503009069148
17.000999999997795,-0.135994757025683,-1.4459705526233955
17.20099999999804,-0.15606914475898756,-1.4587124183169367
17.400999999998284,-0.18264512084341655,-1.469332926784069
17.60099999999853,-0.21305765162415546,-1.473416265538501
17.800999999998773,-0.2348955924267931,-1.4827881881214084
18.000999999999017,-0.25454420016592383,-1.4957352561474957
18.20099999999926,-0.27907927800727267,-1.5077346394724787
18.400999999999506,-0.30452409488381643,-1.5173989156771832
18.60099999999975,-0.33143143800071595,-1.5247544563525657
18.799999999999994,-0.3560695086499947,-1.5277485127791888
19.000000000000238,-0.3831179413903999,-1.5382262103445905
19.200000000000482,-0.4115320834492614,-1.5395325777555393
19.400000000000727,-0.43921089362721105,-1.5446442725970422
19.60000000000097,-0.4649654887587723,-1.5397839745689401
19.800000000001216,-0.49661288030379214,-1.5400762822320604
20.00000000000146,-0.5299952535050799,-1.538345772957664
