Time (s),X (m),Y (m)
0.001,0.00048696676677933824,-0.0009960320817112695
0.20000000000000015,0.0022146810738187923,-0.005222826710791037
0.4000000000000003,0.003816828963573656,-0.0035523078404747772
0.6000000000000004,0.008770127575782652,-0.0059937977562809905
0.8000000000000006,0.016256300555260724,-0.010498134689255157
1.0000000000000007,0.020880802176713384,-0.010786660855420706
1.2009999999999785,0.025429343618786304,-0.009213521082742489
1.4009999999999565,0.030120165169431272,-0.004659271887628254
1.6009999999999345,0.03437043616245973,-0.009025941477654235
1.8009999999999124,0.0320173337398849,0.0020308863104192016
2.0009999999998906,0.03274605976851053,0.0016691104096543518
2.2009999999998686,0.033415766905734196,0.008043039851218885
2.4009999999998466,0.035439748823327934,0.008453930494575523
2.6009999999998246,0.0391687263409112,0.007521049325234246
2.8009999999998025,0.039838233894471844,0.021257496898753534
3.0009999999997805,0.0448292204887045,0.02564368523298792
3.2009999999997585,0.050363862168789214,0.024971684771644857
3.4009999999997365,0.05596230796391047,0.023818571360199242
3.6009999999997144,0.061818806043642247,0.020053460904878875
3.8009999999996924,0.0640109431468429,0.027851739866709378
4.000999999999671,0.07115949285990722,0.027157569576863636
4.200999999999738,0.0768614643814903,0.027356141439051594
4.400999999999804,0.08452739876898731,0.026592239301309068
4.600999999999871,0.09249043891597186,0.02577243351228249
4.800999999999938,0.10076500985454742,0.02404121140077179
5.000000000000004,0.10865794058896744,0.02479292863137944
5.200000000000071,0.11620483422674252,0.02463335822062578
5.400000000000138,0.1257648452177077,0.026293627766859635
5.600000000000205,0.13589080581631513,0.02567207801277835
5.800000000000272,0.14689904546720048,0.024014426897808444
6.000000000000338,0.15433017886527223,0.02501412497036704
6.200000000000405,0.16716384316292213,0.026463391465739554
6.400000000000472,0.17735869652357925,0.028191838530233798
6.600000000000539,0.18852043798663395,0.02968643129646404
6.800000000000606,0.19631753914193154,0.033350206536195526
7.000000000000672,0.2039702996294651,0.036195665913981254
7.200000000000739,0.21445051005653834,0.03883112698136577
7.400000000000806,0.2227678265461635,0.04313760593826209
7.600000000000873,0.23199615368064605,0.04889125435174285
7.8000000000009395,0.23675970424725298,0.0539992612877322
8.000000000001005,0.23999334639021916,0.05851739155348723
8.200000000000895,0.24965114702526667,0.06326924398087597
8.400000000000784,0.25726342039689554,0.06817622920617464
8.600000000000673,0.2639881602745741,0.0737712900782161
8.800000000000562,0.2708488832949391,0.07959870338948623
9.000000000000451,0.2801211927027557,0.08484135675853176
9.20000000000034,0.28589856723652524,0.09174251563877936
9.40000000000023,0.2911610699196333,0.09752761039251265
9.600000000000119,0.29816967127506916,0.10388526593323999
9.800000000000008,0.30697988936237525,0.10946072358799346
10.000999999999896,0.31482240555056407,0.11516582026891625
10.200999999999786,0.3168422705089291,0.12178111359566755
10.400999999999675,0.3211904155143889,0.12870125466501706
10.600999999999564,0.32781254005481714,0.13501641603826808
10.800999999999453,0.32780239573447584,0.1415081979463364
11.000999999999342,0.331064894365678,0.14799035749973186
11.200999999999231,0.33284058539192607,0.15569996117027765
11.40099999999912,0.3351565273988022,0.16318263851103482
11.60099999999901,0.33872082550197763,0.17023629738983098
11.800999999998899,0.33913600660805965,0.17695852726568323
12.000999999998788,0.34120866795783816,0.18478289227871916
12.200999999998677,0.3386854592655437,0.1915152413638344
12.400999999998566,0.3416335859110955,0.19966996061621087
12.600999999998455,0.3367826665965895,0.20791279337050778
12.800999999998345,0.3277302881223653,0.21600783451043798
13.000999999998234,0.3196899223637302,0.22026596913693047
13.200999999998123,0.31938480671728897,0.22797735116750845
13.400999999998012,0.31532549057401105,0.23448283346726828
13.600999999997901,0.31577155275200536,0.24306783419309738
13.80099999999779,0.31525450016397516,0.25056200865972067
14.00099999999768,0.3133769865668579,0.2598994438582388
14.200999999997569,0.31349843029641855,0.271209495543866
14.400999999997458,0.3138764531814239,0.2810616518890596
14.600999999997347,0.31331585086637276,0.2919014814545454
14.800999999997236,0.3124913120399213,0.30222502152596836
15.000999999997125,0.3145006668490581,0.3147435736986911
15.200999999997014,0.3134948937250869,0.32618221273919407
15.400999999996904,0.3130173501646362,0.338913664386258
15.600999999996793,0.3108326282314944,0.35709607755994954
15.800999999996682,0.30572694696183716,0.3624880278612435
16.000999999996573,0.3012675363662871,0.36768516652965727
16.200999999996817,0.2965015343271943,0.3746322526423383
16.40099999999706,0.2909766960908023,0.37834561710576897
16.600999999997306,0.28838689270094187,0.3852557084165195
16.80099999999755,0.28425246783411506,0.39202042631378925
17.000999999997795,0.28117420874952426,0.4019194576184905
17.20099999999804,0.27703813753409473,0.40859014525067133
17.400999999998284,0.2726199085815823,0.41769090462745734
17.60099999999853,0.2664510997824798,0.4230834631739542
17.800999999998773,0.2619570379612203,0.4332672453871221
18.000999999999017,0.25616135978837495,0.44102915856842045
18.20099999999926,0.25045984198430143,0.44986294712328706
18.400999999999506,0.24439913396230672,0.45068602304160943
18.60099999999975,0.23853409323714272,0.45848887132717936
18.799999999999994,0.23317364825960873,0.4652717610040172
19.000000000000238,0.226928966067541,0.47255278863423444
19.200000000000482,0.22116114892972208,0.4832378034091324
19.400000000000727,0.2150980485715612,0.4917769050645465
19.60000000000097,0.20815495128729436,0.49602593704659703
19.800000000001216,0.20095537467670727,0.5033660864845343
20.00000000000146,0.19468787349178673,0.5132466127576818
