Time (s),X (m),Y (m)
0.001,0.000949226864630559,-0.0007291460897812452
0.20000000000000015,0.0009644626939987273,0.0019363527414723559
0.4000000000000003,0.014013104389904302,0.006576075354501701
0.6000000000000004,0.029564206354260558,0.021120865719226393
0.8000000000000006,0.05641076459712525,0.024892262588864303
1.0000000000000007,0.09177865581623969,0.020708755258925893
1.2009999999999785,0.13123875041901434,0.017972777414839176
1.4009999999999565,0.16235143129368723,0.004725694468312348
1.6009999999999345,0.17582753466539483,-0.02323401786331983
1.8009999999999124,0.17553858168999487,-0.05134296694463232
2.0009999999998906,0.1471535475475079,-0.08173409591833018
2.2009999999998686,0.09694364651791257,-0.0998464863839968
2.4009999999998466,0.055537613451328606,-0.11412489616453292
2.6009999999998246,0.01761668470967514,-0.09296325856334003
2.8009999999998025,-0.017770934239421412,-0.05322892194447772
3.0009999999997805,-0.05148782306409458,-0.017523984161645988
3.2009999999997585,-0.07562317088140948,0.030379005700394576
3.4009999999997365,-0.08848048188896529,0.08769114751826378
3.6009999999997144,-0.09519906819601462,0.1474624684152256
3.8009999999996924,-0.0969433910320446,0.20038906924326366
4.000999999999671,-0.07834422601805902,0.2498879514284404
4.200999999999738,-0.06161492301301728,0.3135792740660971
4.400999999999804,-0.055479811640582584,0.3783155503661482
4.600999999999871,-0.0441868575788605,0.443143606677805
4.800999999999938,-0.024243290884342333,0.4977155051709357
5.000000000000004,0.008837938968519934,0.5401656953343068
5.200000000000071,0.06857082826579103,0.5622907965055512
5.400000000000138,0.12141781061302544,0.5832611676594407
5.600000000000205,0.18321672393068641,0.5892431708114424
5.800000000000272,0.2452993403110234,0.5830118991833834
6.000000000000338,0.301349154808263,0.5616192987738746
6.200000000000405,0.3417611081067833,0.5241664467028099
6.400000000000472,0.3671757598850306,0.47999877706863725
6.600000000000539,0.36387370582643763,0.4228004912947043
6.800000000000606,0.3474016547234764,0.35968173153719724
7.000000000000672,0.3241338614806468,0.29853803865468587
7.200000000000739,0.2900881989508816,0.2534740637345191
7.400000000000806,0.2525078884232705,0.23838213831868924
7.600000000000873,0.20391252345023064,0.25765466498655265
7.8000000000009395,0.15519183781667484,0.27631909813658884
8.000000000001005,0.11642766824378102,0.32725510626736415
8.200000000000895,0.08970065309382928,0.390694880855965
8.400000000000784,0.06676224978436944,0.4447955527666159
8.600000000000673,0.06576259948677717,0.5119148261612891
8.800000000000562,0.07392459005358203,0.5758258317669854
9.000000000000451,0.0957961239093121,0.6255440294852036
9.20000000000034,0.1408246467252829,0.6526110511419584
9.40000000000023,0.1942793451791017,0.6678778602865078
9.600000000000119,0.250520520903062,0.6780577722542332
9.800000000000008,0.3138057173666445,0.6751861612473165
10.000999999999896,0.3761369802756051,0.656357416827951
10.200999999999786,0.4150770092270421,0.602912398110333
10.400999999999675,0.4334256972630029,0.5416461241079541
10.600999999999564,0.43548320453417294,0.47519530685069544
10.800999999999453,0.42134581292343903,0.4084880447931918
11.000999999999342,0.3884715568759741,0.35460616541061174
11.200999999999231,0.3470820758610602,0.32412703559354955
11.40099999999912,0.30040405811724646,0.3071338268851741
11.60099999999901,0.2510466789010115,0.3112520918939787
11.800999999998899,0.21707167987272893,0.34037620965135257
12.000999999998788,0.20256697987891437,0.39773474523589686
12.200999999998677,0.1965089070306547,0.46365445227659935
12.400999999998566,0.19884683147523632,0.5375748838628629
12.600999999998455,0.2137979938546815,0.6163113410619486
12.800999999998345,0.22533278060457756,0.6910921951773163
13.000999999998234,0.2567128039914957,0.7540371317646394
13.200999999998123,0.30712717815195034,0.7965614793466654
13.400999999998012,0.35995076262899894,0.8322434682289169
13.600999999997901,0.4116853238347719,0.8655303735377803
13.80099999999779,0.4660153040149378,0.8835454712308117
14.00099999999768,0.5059086332174167,0.8760146557778041
14.200999999997569,0.5292970015508075,0.851584896823383
14.400999999997458,0.508524282848183,0.8211517270180488
14.600999999997347,0.4564949785982551,0.8019276934026691
14.800999999997236,0.39625414779363466,0.7973987911281675
15.000999999997125,0.34092670345307263,0.7992224982933546
15.200999999997014,0.2971380546678919,0.828390438982353
15.400999999996904,0.27145386710812536,0.8831867703021329
15.600999999996793,0.2577610937266631,0.9507114535730633
15.800999999996682,0.2454289420510789,1.0161019364698836
16.000999999996573,0.2326613002834559,1.0833209752886108
16.200999999996817,0.2206749850637706,1.1504150378664943
16.40099999999706,0.2315420542945458,1.2183560207669342
16.600999999997306,0.26900994117690225,1.2851574331714
16.80099999999755,0.3169841073442541,1.3449019506565665
17.000999999997795,0.3762636169179403,1.385255905640469
17.20099999999804,0.4468942220895371,1.4043168805126829
17.400999999998284,0.524490575895718,1.4078670640561965
17.60099999999853,0.6020131629760266,1.4023013263443298
17.800999999998773,0.6793340300832723,1.3838304742870586
18.000999999999017,0.7538098106437537,1.3678680438781592
18.20099999999926,0.8131875209351229,1.3275691293109992
18.400999999999506,0.8492139376012127,1.2707747766755757
18.60099999999975,0.8577393293193917,1.2074375485799345
18.799999999999994,0.8555633038108087,1.142586377975855
19.000000000000238,0.8451189091968452,1.0729740991251608
19.200000000000482,0.8236053415475278,1.011865465297502
19.400000000000727,0.7841011722207762,0.9690823587709708
19.60000000000097,0.7322897072547917,0.9516798797955801
19.800000000001216,0.6732680741886374,0.9557625083719573
20.00000000000146,0.6219489560834192,0.9745457209333527
