Time (s),X (m),Y (m)
0.001,-0.0005698399629515257,-0.0006628221997479689
0.20000000000000015,0.004824222661279047,0.0019023788325654085
0.4000000000000003,0.015552265821342623,0.0013155172389560218
0.6000000000000004,0.03000666892671646,-0.0004731454181127951
0.8000000000000006,0.057652460714824404,0.0022837362917975685
1.0000000000000007,0.08603055690536147,0.003008055117235532
1.2009999999999785,0.11747125351073408,-0.0015935440847153997
1.4009999999999565,0.14009442489044233,-0.017299863375127997
1.6009999999999345,0.16773465682316957,-0.053277075013181824
1.8009999999999124,0.19490834861123735,-0.09571365987314974
2.0009999999998906,0.21727974570846487,-0.13539793614289772
2.2009999999998686,0.22723426528131538,-0.1779752653311023
2.4009999999998466,0.22812949739519942,-0.22700269257914735
2.6009999999998246,0.2275332747786895,-0.2712293732405927
2.8009999999998025,0.22598770163020956,-0.3181756574890215
3.0009999999997805,0.21592510270704876,-0.35943333188027815
3.2009999999997585,0.18857656972917622,-0.39942003932720543
3.4009999999997365,0.14390703925730744,-0.4450982991319933
3.6009999999997144,0.09444472990128101,-0.4877251962359512
3.8009999999996924,0.04351601279610794,-0.5277328403959697
4.000999999999671,-0.0075807244314622145,-0.5589191607977273
4.200999999999738,-0.05718128885464217,-0.586348547018117
4.400999999999804,-0.1045172471179186,-0.6091479785311115
4.600999999999871,-0.1554956536356264,-0.6402122067251595
4.800999999999938,-0.20991011029829412,-0.6766902666383158
5.000000000000004,-0.26714009545139517,-0.7157552321882333
5.200000000000071,-0.3236886250602387,-0.7485824504498318
5.400000000000138,-0.3832942477694856,-0.7838098781092498
5.600000000000205,-0.44970334032302856,-0.8044123974398814
5.800000000000272,-0.5190467064861857,-0.800484924663158
6.000000000000338,-0.5808686296081291,-0.7804823448750657
6.200000000000405,-0.6402800222299428,-0.7453200013893974
6.400000000000472,-0.6937401190548581,-0.6997151243490703
6.600000000000539,-0.737946144050062,-0.6477455307862857
6.800000000000606,-0.778496743441531,-0.5900282352507642
7.000000000000672,-0.811014937865759,-0.5325298309203608
7.200000000000739,-0.8366493036114188,-0.46715624865290684
7.400000000000806,-0.8422108867510806,-0.3912020421971658
7.600000000000873,-0.818597947015898,-0.33768838801918777
7.8000000000009395,-0.7798665669560066,-0.28285315862677624
8.000000000001005,-0.7307127483054469,-0.22555132463766478
8.200000000000895,-0.6786853998777476,-0.1740202834314294
8.400000000000784,-0.6210713528367824,-0.12812454215765862
8.600000000000673,-0.5626137159918809,-0.08413641980056454
8.800000000000562,-0.4983943407582519,-0.038329013904340674
9.000000000000451,-0.42908402198227735,0.004208924777915062
9.20000000000034,-0.36772376049964295,0.031690533450600016
9.40000000000023,-0.3165560917952415,0.02325791762777263
9.600000000000119,-0.2740769142114823,-0.010447857065293628
9.800000000000008,-0.23669760491284234,-0.04624910550138891
10.000999999999896,-0.2055220570367968,-0.0869545359795864
10.200999999999786,-0.19712143905990193,-0.1335820098388686
10.400999999999675,-0.21727861636634543,-0.1851516642508305
10.600999999999564,-0.2601674647101175,-0.24581090394703334
10.800999999999453,-0.3191544698514454,-0.30630989612494114
11.000999999999342,-0.3835205284373324,-0.3574386958344789
11.200999999999231,-0.44521867850567576,-0.40162203036485383
11.40099999999912,-0.5056511861595165,-0.46330155212690083
11.60099999999901,-0.5679912572154512,-0.5204917563524686
11.800999999998899,-0.6371263529499772,-0.5807217277951006
12.000999999998788,-0.7138491262899681,-0.637208751323142
12.200999999998677,-0.791768823304326,-0.6900513962177526
12.400999999998566,-0.87299766092679,-0.7248099870325585
12.600999999998455,-0.9423773097311298,-0.7297558684278161
12.800999999998345,-1.0026583446373263,-0.7168872330221788
13.000999999998234,-1.0547074374812189,-0.6936727058501485
13.200999999998123,-1.1144704416808515,-0.6608371140231476
13.400999999998012,-1.1987469999597393,-0.6246082593620285
13.600999999997901,-1.2792615802742426,-0.5853099381145648
13.80099999999779,-1.3419139301284586,-0.5545732826427907
14.00099999999768,-1.4162125609849574,-0.5358080295131968
14.200999999997569,-1.4806292436258703,-0.531243558218747
14.400999999997458,-1.5388642339740704,-0.5393051652922607
14.600999999997347,-1.599846442164531,-0.5541547553745861
14.800999999997236,-1.660430747136339,-0.5562594344993179
15.000999999997125,-1.7119879577105608,-0.5420507376622363
15.200999999997014,-1.7621158386634648,-0.5031248901530831
15.400999999996904,-1.8074634661888644,-0.4453339557148746
15.600999999996793,-1.847040081222809,-0.381381918767862
15.800999999996682,-1.8773659989479135,-0.3018941319419483
16.000999999996573,-1.8963907915782345,-0.21684986019505229
16.200999999996817,-1.9003038273695219,-0.13793892387511245
16.40099999999706,-1.8853079090821463,-0.053417417603382415
16.600999999997306,-1.864204263461115,0.0174738199851364
16.80099999999755,-1.8442268671905186,0.09087570459527698
17.000999999997795,-1.8160445575076076,0.156808623592764
17.20099999999804,-1.7762814048291713,0.21391521407723227
17.400999999998284,-1.723225709722974,0.27552652081646456
17.60099999999853,-1.6667787169152097,0.326583835162291
17.800999999998773,-1.6128229241463992,0.3626828190194523
18.000999999999017,-1.555447729373873,0.3739968636400017
18.20099999999926,-1.513800869090037,0.36076165013278005
18.400999999999506,-1.4704288231440867,0.3279918579291106
18.60099999999975,-1.4148690799107662,0.2872141963477033
18.799999999999994,-1.3460234002011975,0.2457570116817903
19.000000000000238,-1.285609066111814,0.20153367630136612
19.200000000000482,-1.220849806451205,0.1536609920578989
19.400000000000727,-1.1647980537554063,0.09962419489260564
19.60000000000097,-1.1217957854201392,0.04393421685037506
19.800000000001216,-1.0735162358501489,-0.017587167861671076
20.00000000000146,-1.0272791828463417,-0.0793414954715989
