Time (s),X (m),Y (m)
0.001,4.1020280575708355e-05,0.0010155025257856582
0.20000000000000015,0.001588733542487208,-0.0009574500661305206
0.4000000000000003,0.0024206777850740244,0.0002058648652832464
0.6000000000000004,0.004694367503831544,-0.0015792728393575761
0.8000000000000006,0.006303904648260225,-0.0038306362581361376
1.0000000000000007,0.007264333715931509,-0.004788236126648156
1.2009999999999785,0.009122798674663106,-0.0062689037779846074
1.4009999999999565,0.010839572770726554,-0.008246859227107122
1.6009999999999345,0.011892005697304375,-0.00813110162077227
1.8009999999999124,0.013675308632398004,-0.008540630869039985
2.0009999999998906,0.015116420631730196,-0.009293031192177035
2.2009999999998686,0.015580041126156813,-0.008674756937563727
2.4009999999998466,0.016006562868194355,-0.008890105476871609
2.6009999999998246,0.017036882796810884,-0.008403072436163533
2.8009999999998025,0.01906692766096811,-0.009063015227137853
3.0009999999997805,0.020956657026905343,-0.010713397659619732
3.2009999999997585,0.022558422489466,-0.011970789329999868
3.4009999999997365,0.025089543708918086,-0.01338929061858879
3.6009999999997144,0.026626671114113765,-0.01373205414598092
3.8009999999996924,0.028493136890608048,-0.014913714821514774
4.000999999999671,0.030603227343756208,-0.01537644591920684
4.200999999999738,0.032240420197035595,-0.01641100736936296
4.400999999999804,0.034080921876983306,-0.01701578752693414
4.600999999999871,0.03584373349968754,-0.01782019455899501
4.800999999999938,0.03866399279761028,-0.018798931533967857
5.000000000000004,0.04028247265008783,-0.01930953343102943
5.200000000000071,0.041593896859036056,-0.019136529182241506
5.400000000000138,0.043167486082343186,-0.01892241073724359
5.600000000000205,0.04546462746962366,-0.01808281719069769
5.800000000000272,0.04746695943032078,-0.018301062944291735
6.000000000000338,0.04970094073209179,-0.018363923752398915
6.200000000000405,0.051451560474736265,-0.017229139947427002
6.400000000000472,0.05293087722552231,-0.017096779053339336
6.600000000000539,0.05419742869129703,-0.016454561586546932
6.800000000000606,0.05572450609586069,-0.01606049608385097
7.000000000000672,0.05732567151174709,-0.015234983292527341
7.200000000000739,0.05858472626362122,-0.01424399274958936
7.400000000000806,0.06011435330793355,-0.013703010765376653
7.600000000000873,0.06196083129500873,-0.012626448825978522
7.8000000000009395,0.06310842555155287,-0.011370792898122258
8.000000000001005,0.06334200182894957,-0.010314628608093962
8.200000000000895,0.06463583318695995,-0.009383985537343991
8.400000000000784,0.06629938404476428,-0.008199103943535839
8.600000000000673,0.06715450669372731,-0.006648456513167431
8.800000000000562,0.0679670732940333,-0.005327737636040993
9.000000000000451,0.06985912208158081,-0.0035222485444073347
9.20000000000034,0.07191516005258382,-0.0016349585128430184
9.40000000000023,0.07341486320702084,0.0002908460278576527
9.600000000000119,0.07587470913653363,0.0022355630319418336
9.800000000000008,0.07828746184841975,0.004737557209866981
10.000999999999896,0.08057593295300132,0.007132927126012014
10.200999999999786,0.0820860625489683,0.0087923741965673
10.400999999999675,0.08360666633847137,0.010868200406866074
10.600999999999564,0.08562280802036223,0.013327806761253539
10.800999999999453,0.0863539943922187,0.01482219756897572
11.000999999999342,0.08688204334800816,0.01677600434900429
11.200999999999231,0.08786764208620927,0.01890868211052569
11.40099999999912,0.08973099260119137,0.022006293180001853
11.60099999999901,0.0911533295299494,0.02532055774092385
11.800999999998899,0.09233547262196867,0.028437871765682868
12.000999999998788,0.09274702465403749,0.03126690163918673
12.200999999998677,0.09309204655039775,0.03430816864099425
12.400999999998566,0.09394835050209312,0.037464769298258226
12.600999999998455,0.09398402855469096,0.0403499790682007
12.800999999998345,0.09437070907397783,0.043571632323562516
13.000999999998234,0.09417247187968446,0.04659281301186685
13.200999999998123,0.09419225208292077,0.04986179772381557
13.400999999998012,0.09399654089907257,0.0528730220250221
13.600999999997901,0.09408750518011351,0.05499593575921665
13.80099999999779,0.0943243880406815,0.05725155127098445
14.00099999999768,0.09385759924615344,0.060039207017930286
14.200999999997569,0.09299970372001186,0.06232698473466112
14.400999999997458,0.09213435005607279,0.06457847628269961
14.600999999997347,0.09170243559043582,0.06665314804645522
14.800999999997236,0.09109673506625784,0.06836063600564754
15.000999999997125,0.08957679241655923,0.07031931555938149
15.200999999997014,0.08835022348358117,0.07276744260413785
15.400999999996904,0.08683144301437214,0.0737548616539554
15.600999999996793,0.08563186247005704,0.07554721346649483
15.800999999996682,0.08338429356704842,0.0771688159835101
16.000999999996573,0.08165908545679859,0.07940011547556809
16.200999999996817,0.07934098300689872,0.08140891611896166
16.40099999999706,0.07701764238442246,0.08392853438441952
16.600999999997306,0.07453765229726117,0.08625063761623626
16.80099999999755,0.07236265519089197,0.08894481778806097
17.000999999997795,0.070167775504928,0.09105972469639448
17.20099999999804,0.06776122531738588,0.0924848787962515
17.400999999998284,0.06580440787183424,0.0939550866046237
17.60099999999853,0.0641330768597188,0.09543924898850614
17.800999999998773,0.06196228762168305,0.09691217697597153
18.000999999999017,0.059795829187738986,0.09851800701600165
18.20099999999926,0.05777742509643806,0.10003621525479849
18.400999999999506,0.055190732325937526,0.101695505263966
18.60099999999975,0.05256706511988108,0.10310176021344783
18.799999999999994,0.04958454634500817,0.103756301790456
19.000000000000238,0.04659530460676737,0.10486207741171541
19.200000000000482,0.043273893266478555,0.1056601367141168
19.400000000000727,0.03974541019658698,0.10664537866705363
19.60000000000097,0.0370674069592306,0.10691810571656961
19.800000000001216,0.033801146114399855,0.10765560205548051
20.00000000000146,0.030709988950369825,0.10823103534583212
