Time (s),X (m),Y (m)
0.001,0.0008829029745972832,-0.0007899207378008392
0.20000000000000015,-0.00032895493487873514,0.0020006186437622146
0.4000000000000003,0.004626831657809042,0.013547877095706729
0.6000000000000004,0.015357887673162906,0.023821621450420456
0.8000000000000006,0.03039001466085061,0.028077035462063478
1.0000000000000007,0.056882687575365014,0.04521018070171909
1.2009999999999785,0.07627260762567711,0.03950625062669776
1.4009999999999565,0.08719011055752987,0.02708180566088326
1.6009999999999345,0.09134538705769313,0.005364547992198594
1.8009999999999124,0.1038487513072816,-0.029957009996122008
2.0009999999998906,0.10974897985480066,-0.07371235308556545
2.2009999999998686,0.09519256341331511,-0.11885451251737425
2.4009999999998466,0.07831369517875439,-0.1616802593136266
2.6009999999998246,0.05589632793754183,-0.19652000775364942
2.8009999999998025,0.02954577493414946,-0.21696249324206296
3.0009999999997805,-0.013904116445684329,-0.22573286614768448
3.2009999999997585,-0.06261386289241175,-0.21368071002279007
3.4009999999997365,-0.11765593586760634,-0.18557552665540625
3.6009999999997144,-0.17256137012379363,-0.1471898699389638
3.8009999999996924,-0.22374553072822356,-0.11479775359229266
4.000999999999671,-0.26632507680949025,-0.07156329511676217
4.200999999999738,-0.3028698221436889,-0.029976605471161762
4.400999999999804,-0.3258135858039457,0.015724974651582263
4.600999999999871,-0.3291982220726551,0.07374127265895243
4.800999999999938,-0.3207160224964971,0.1467463900422782
5.000000000000004,-0.3122044322670109,0.23104436965827424
5.200000000000071,-0.30369979237729045,0.30820850426590757
5.400000000000138,-0.29412346227595193,0.3847207393764621
5.600000000000205,-0.268923660697788,0.44731074222482053
5.800000000000272,-0.22977166988504316,0.49828812875801864
6.000000000000338,-0.18746940393060801,0.5217814994504409
6.200000000000405,-0.14585886467517856,0.5174514005260803
6.400000000000472,-0.11504136672119243,0.4962714547040373
6.600000000000539,-0.09108848453292635,0.45843579608042606
6.800000000000606,-0.056631115563881,0.4220841442963824
7.000000000000672,-0.01712399794279368,0.3892339455342479
7.200000000000739,0.007454190047912233,0.3499450890788281
7.400000000000806,0.004775391153749719,0.3043836281516506
7.600000000000873,-0.019419017533179733,0.25790583610760365
7.8000000000009395,-0.06162234372854154,0.22317539772449982
8.000000000001005,-0.13247507703763084,0.1993228304201025
8.200000000000895,-0.21044238628752854,0.19195382996517693
8.400000000000784,-0.28689420553643163,0.1948409097120563
8.600000000000673,-0.36257543946564347,0.20770596632428728
8.800000000000562,-0.4264270450500113,0.2373537591201463
9.000000000000451,-0.46954466396627914,0.2738748714080246
9.20000000000034,-0.4812183593718817,0.32280755683314943
9.40000000000023,-0.4837191826823837,0.37541239500957563
9.600000000000119,-0.46822833056487373,0.42025780437337024
9.800000000000008,-0.4332628630398175,0.44795416386300685
10.000999999999896,-0.3838146019710073,0.4538537267593783
10.200999999999786,-0.32725752460748136,0.45264997086769243
10.400999999999675,-0.27700975770411734,0.4391987155759855
10.600999999999564,-0.2516375456519398,0.3952169979673377
10.800999999999453,-0.25410669444070116,0.33929326048217
11.000999999999342,-0.2522837945092173,0.2822182974002357
11.200999999999231,-0.2693281130608929,0.22921885017845825
11.40099999999912,-0.3005841122088589,0.18590151451916914
11.60099999999901,-0.34126830777812167,0.14345251628151579
11.800999999998899,-0.3848629914255893,0.11938144562919083
12.000999999998788,-0.43145846611094213,0.11584455228233458
12.200999999998677,-0.4644584442078718,0.13696890398083197
12.400999999998566,-0.4762563730063939,0.17721920585636655
12.600999999998455,-0.4908076280649113,0.2266147779792353
12.800999999998345,-0.49204104493863143,0.277303198630133
13.000999999998234,-0.48084776944068724,0.3253937969216877
13.200999999998123,-0.42963816330137095,0.36468077683000866
13.400999999998012,-0.36771447554594333,0.3836622742680758
13.600999999997901,-0.2983552765682025,0.3786131893372014
13.80099999999779,-0.22438645079664934,0.36977052865562504
14.00099999999768,-0.1465206795903569,0.3475173284627385
14.200999999997569,-0.07513153959741689,0.32234674341504344
14.400999999997458,-0.012425019138234891,0.2911709002983532
14.600999999997347,0.050258495321460955,0.24903881028963606
14.800999999997236,0.09929229344734908,0.20586803865723075
15.000999999997125,0.11837515097632459,0.14528685499608196
15.200999999997014,0.12422868585397953,0.08822893868253741
15.400999999996904,0.10464257266007199,0.03532779740381695
15.600999999996793,0.06191451218839244,-0.005441915166720123
15.800999999996682,0.005714033195758087,-0.021211125797262136
16.000999999996573,-0.05529330917276926,-0.020237736480064987
16.200999999996817,-0.10472188114357567,0.009276197747632275
16.40099999999706,-0.13216604182460975,0.055093998681518756
16.600999999997306,-0.14409993120849554,0.10428537564210479
16.80099999999755,-0.1482972532440902,0.15617513382160564
17.000999999997795,-0.11496337892627952,0.19985846071233887
17.20099999999804,-0.0732739533051106,0.2368888380291751
17.400999999998284,-0.023311592872333003,0.25849842845265003
17.60099999999853,0.030223459540858134,0.2604008064105005
17.800999999998773,0.07622952773357633,0.23641311243578983
18.000999999999017,0.1035766255042318,0.18712678192894097
18.20099999999926,0.12640743882553448,0.13475890220793688
18.400999999999506,0.13492550914937346,0.08194945422705532
18.60099999999975,0.1196450071004628,0.02901469622542388
18.799999999999994,0.08017822608380323,-0.004248512715179838
19.000000000000238,0.029009387119748167,-0.02772177114645639
19.200000000000482,-0.02349940493789246,-0.039823146077917676
19.400000000000727,-0.08239649798187926,-0.03303824145554547
19.60000000000097,-0.12602445390586464,0.017004223844878735
19.800000000001216,-0.16046165222825232,0.07417125100689012
20.00000000000146,-0.17215395920517337,0.13134244712997475
