Time (s),X (m),Y (m)
0.001,-0.0007489004572251305,0.00035268032603768894
0.20000000000000015,0.0046598334122964075,0.000280163233711233
0.4000000000000003,0.011129848043220451,0.0045271789267265555
0.6000000000000004,0.011319533209847504,0.016047680743730874
0.8000000000000006,0.0192783268957099,0.025333198831322668
1.0000000000000007,0.03848711827432418,0.028990436967921304
1.2009999999999785,0.07190457016543376,0.022803567068183216
1.4009999999999565,0.10784987549570489,0.00546396245427083
1.6009999999999345,0.13629712010553238,-0.01575053591101138
1.8009999999999124,0.15478391049661566,-0.040252441640333106
2.0009999999998906,0.1675618348429045,-0.05637678427510108
2.2009999999998686,0.15634461637144162,-0.07281475180012094
2.4009999999998466,0.1291327858052254,-0.08136325913999087
2.6009999999998246,0.0963185831877562,-0.08104091698400266
2.8009999999998025,0.07082028915594557,-0.05434851372647167
3.0009999999997805,0.058740977057224364,-0.009032604553855834
3.2009999999997585,0.05643827855229294,0.04025290944817957
3.4009999999997365,0.07245382762560361,0.09342023137353012
3.6009999999997144,0.08527512976833525,0.14337580778993383
3.8009999999996924,0.10632123112837923,0.20680472991407953
4.000999999999671,0.13535294397169148,0.2717045749760278
4.200999999999738,0.16659733968359608,0.32350967360578575
4.400999999999804,0.21353377089268413,0.3519932745322293
4.600999999999871,0.26289058457163716,0.3633076739348878
4.800999999999938,0.31599868763316713,0.36398640473362476
5.000000000000004,0.3714338789922256,0.34661812210137566
5.200000000000071,0.41446951140715504,0.3085464508806353
5.400000000000138,0.4429602034256774,0.27126240864238144
5.600000000000205,0.45829600016445526,0.22408670042289033
5.800000000000272,0.44875147160291806,0.16645331665912008
6.000000000000338,0.4253572002569202,0.1079660817370299
6.200000000000405,0.39522267063941086,0.042997582526758234
6.400000000000472,0.3594943637920805,-0.028668060278418603
6.600000000000539,0.3144860494613879,-0.09245751030657332
6.800000000000606,0.2762401677560501,-0.1386231095829772
7.000000000000672,0.23928446817932003,-0.16307008436597595
7.200000000000739,0.19869234376788397,-0.17077296899642802
7.400000000000806,0.15413963634872654,-0.16888737818436045
7.600000000000873,0.10356763225062396,-0.16138256427073344
7.8000000000009395,0.0637522662077891,-0.12279860096719436
8.000000000001005,0.052616159073061816,-0.06420155524569605
8.200000000000895,0.06102906536391346,-0.004147023568981264
8.400000000000784,0.08214497287117913,0.060952518520843595
8.600000000000673,0.11542746922261618,0.10563701393503719
8.800000000000562,0.1552007860681322,0.12155584411369309
9.000000000000451,0.20412745448807246,0.10963513365485474
9.20000000000034,0.2541864887884291,0.08782956173876304
9.40000000000023,0.29733812364992407,0.0558008306147409
9.600000000000119,0.326761854759927,0.016858373909898285
9.800000000000008,0.344635355857766,-0.0286742795965842
10.000999999999896,0.3515383888457759,-0.09003119097504897
10.200999999999786,0.3481076614192054,-0.16098080517686664
10.400999999999675,0.34315512877122867,-0.22704266608827955
10.600999999999564,0.33055020595227347,-0.2883935510178266
10.800999999999453,0.30540120163998047,-0.3574124433019052
11.000999999999342,0.27852046931374785,-0.4273337220765909
11.200999999999231,0.2484398686335601,-0.4830303697354621
11.40099999999912,0.21048505792742978,-0.512468864828554
11.60099999999901,0.1681020379001172,-0.5309661479331406
11.800999999998899,0.137305323708718,-0.5322575059553877
12.000999999998788,0.12616658157190153,-0.5090525576803988
12.200999999998677,0.12208342804079313,-0.4592322769407774
12.400999999998566,0.12558818857112497,-0.39489849177514674
12.600999999998455,0.1356897391921291,-0.32729484105250267
12.800999999998345,0.14549764157879622,-0.2635794434822807
13.000999999998234,0.1573336451499176,-0.200819827679747
13.200999999998123,0.1841421537621934,-0.13756007447824303
13.400999999998012,0.22877715223348666,-0.09325833759713344
13.600999999997901,0.2853760194780544,-0.07859125899844357
13.80099999999779,0.34126580987821964,-0.0732383856357402
14.00099999999768,0.3989727453197704,-0.07610607995488496
14.200999999997569,0.4641983149086215,-0.10056349194569737
14.400999999997458,0.5222904348442379,-0.12429116251470804
14.600999999997347,0.553664890457303,-0.16718674814680456
14.800999999997236,0.5613061845594922,-0.220872404445194
15.000999999997125,0.5520675293334693,-0.27468712848335736
15.200999999997014,0.5144550409368197,-0.3330434878815587
15.400999999996904,0.47182105200571206,-0.38678588093313365
15.600999999996793,0.41596764673204806,-0.42357044976186925
15.800999999996682,0.3545148184528939,-0.4403605568489633
16.000999999996573,0.29392074711259003,-0.4414529343945513
16.200999999996817,0.2534669892380311,-0.4431897686543368
16.40099999999706,0.20092363507697872,-0.4338143763961936
16.600999999997306,0.14336430600839167,-0.4018233402982357
16.80099999999755,0.10033467348685517,-0.36878372480405297
17.000999999997795,0.08647118800037437,-0.31634555657574703
17.20099999999804,0.08879813690924832,-0.26002598697215235
17.400999999998284,0.11161633404985108,-0.1993904821698139
17.60099999999853,0.1556659346717861,-0.15816837472103834
17.800999999998773,0.21136704051861072,-0.14209322811129874
18.000999999999017,0.2734123177021676,-0.14108940270339354
18.20099999999926,0.33718197466788913,-0.16303427513653054
18.400999999999506,0.3893270794849632,-0.18397204309953055
18.60099999999975,0.4180143530426979,-0.21471141539444388
18.799999999999994,0.4247413847208697,-0.264133911166613
19.000000000000238,0.4016461922959374,-0.3193193498374984
19.200000000000482,0.35060445393715006,-0.37964236675560925
19.400000000000727,0.303918745219856,-0.427595455051027
19.60000000000097,0.2561805318935092,-0.45867939386496837
19.800000000001216,0.2165868420354004,-0.4797291858697425
20.00000000000146,0.1725910423498448,-0.48350177799767763
