Time (s),X (m),Y (m)
0.001,4.1020280575708355e-05,-0.0010155025257856578
0.20000000000000015,0.0019457134366075593,0.0018481020216134447
0.4000000000000003,0.004435008099313297,0.0025587165992895077
0.6000000000000004,0.006421372929872053,0.0025560367630239806
0.8000000000000006,0.00867890960007217,0.0035598686802865705
1.0000000000000007,0.010408511291174724,0.002758492823698474
1.2009999999999785,0.01212496151050409,0.0034745829157274135
1.4009999999999565,0.013723512918459623,0.003425482052926251
1.6009999999999345,0.015052905501589175,0.005174084273754078
1.8009999999999124,0.01680940408360405,0.005903608161438039
2.0009999999998906,0.018543881664752262,0.006488582313087332
2.2009999999998686,0.020744664964368123,0.006695265137207522
2.4009999999998466,0.022613631318048773,0.006493920327642747
2.6009999999998246,0.023734387126994543,0.006387561826275665
2.8009999999998025,0.024415332562082163,0.006267967421313119
3.0009999999997805,0.024602244661840234,0.007130635877441979
3.2009999999997585,0.025388138021587976,0.009015107821390317
3.4009999999997365,0.026501135982207845,0.00946811241367859
3.6009999999997144,0.02783754634039405,0.010052002901903638
3.8009999999996924,0.029104413529938037,0.010373650760576612
4.000999999999671,0.03052879944592471,0.010963636154767257
4.200999999999738,0.03164392155701888,0.012281663568615615
4.400999999999804,0.03333019590635812,0.012545699716564319
4.600999999999871,0.033777160021726114,0.014609165422041704
4.800999999999938,0.03573468224185796,0.01584712407150218
5.000000000000004,0.03599757379836236,0.01802219733232856
5.200000000000071,0.037834363904853105,0.018383392095173038
5.400000000000138,0.038638637795394656,0.020433479807176125
5.600000000000205,0.04030087136110423,0.02182597472551013
5.800000000000272,0.0407642275168025,0.024150685593027302
6.000000000000338,0.04141742803751649,0.026681451297010907
6.200000000000405,0.041600801939389996,0.028436655432546476
6.400000000000472,0.04319456020977693,0.02983542544574372
6.600000000000539,0.04370999358990001,0.03198402088928943
6.800000000000606,0.04479401239904692,0.03469514873884866
7.000000000000672,0.046248696368481626,0.0367259542039097
7.200000000000739,0.047343697862157336,0.03904420303147066
7.400000000000806,0.04678813840697977,0.0412444969644282
7.600000000000873,0.04816213988359372,0.042759755391465336
7.8000000000009395,0.04941852283597634,0.045328140922332935
8.000000000001005,0.05104102688655866,0.04660200812345989
8.200000000000895,0.05139990081252734,0.04881005235749087
8.400000000000784,0.051537009530602085,0.0510723584872893
8.600000000000673,0.05234637370948737,0.0534403259478935
8.800000000000562,0.05374505903724637,0.055674225236009005
9.000000000000451,0.05366000805421725,0.05763260043219197
9.20000000000034,0.05296407334686977,0.05955517942243964
9.40000000000023,0.05190250534273781,0.06172679405139155
9.600000000000119,0.052477242094960394,0.06310586039848938
9.800000000000008,0.05190876074978101,0.06408755539486417
10.000999999999896,0.052103981076940725,0.06470628486680344
10.200999999999786,0.05045654215497072,0.06622926826405492
10.400999999999675,0.049797866284379794,0.06829976935300569
10.600999999999564,0.04988198757402558,0.0694503186688226
10.800999999999453,0.04963874306201848,0.06980830979856713
11.000999999999342,0.04882412188819034,0.07043780590949923
11.200999999999231,0.04769608628680458,0.07135794302300141
11.40099999999912,0.04676289017141227,0.07301429188414175
11.60099999999901,0.046155216771921054,0.07444665801101197
11.800999999998899,0.044339886619725814,0.0755755905245856
12.000999999998788,0.04371072990862263,0.07622417646098957
12.200999999998677,0.04346554605690101,0.07654420904844114
12.400999999998566,0.04339224933263923,0.07700750398380081
12.600999999998455,0.04318385171730009,0.07735371046331488
12.800999999998345,0.04280509475938004,0.07771792582928334
13.000999999998234,0.04258425456243281,0.07821122284561335
13.200999999998123,0.04316743859133799,0.07924450181999243
13.400999999998012,0.04282564515444003,0.08035953676314633
13.600999999997901,0.042756190557357604,0.08149100442944218
13.80099999999779,0.04219131032475074,0.08262807892000593
14.00099999999768,0.04125650924350506,0.0837155807948888
14.200999999997569,0.041171842498702524,0.08531841253596763
14.400999999997458,0.04110452737648195,0.08696812375827528
14.600999999997347,0.041252195988900106,0.0883586186417373
14.800999999997236,0.04054327717846802,0.08947090524849137
15.000999999997125,0.040008324951840354,0.091819877794183
15.200999999997014,0.03911833876743332,0.0926000196161279
15.400999999996904,0.03715736106397032,0.09383268449209582
15.600999999996793,0.034045986187437184,0.0937241319024594
15.800999999996682,0.03222024802146639,0.09499830056961674
16.000999999996573,0.029667655389184228,0.09521369298375372
16.200999999996817,0.02721862091211887,0.09663202037152716
16.40099999999706,0.025937311249690318,0.09801040794019404
16.600999999997306,0.02385874398215792,0.09856422074901768
16.80099999999755,0.02240282585454699,0.09930237102914002
17.000999999997795,0.02079244504482832,0.10023739281350942
17.20099999999804,0.018689924061927512,0.10083190745989103
17.400999999998284,0.01640971776753362,0.10156870679664136
17.60099999999853,0.014069625586686788,0.10102760214486205
17.800999999998773,0.011901576986149841,0.10231685975953718
18.000999999999017,0.008890843979449373,0.10325603200521108
18.20099999999926,0.00642145889097627,0.10453083040530294
18.400999999999506,0.005140691198240727,0.10612407924462976
18.60099999999975,0.003041848038307193,0.10592713590222196
18.799999999999994,0.0010441617047344742,0.10605738205178791
19.000000000000238,-0.00038719728138754807,0.10676495107575139
19.200000000000482,-0.0014464596266463123,0.10685355607122143
19.400000000000727,-0.0022857245953093364,0.10643704555951575
19.60000000000097,-0.003114255713027916,0.106322611630781
19.800000000001216,-0.003771441933014441,0.10627770068569341
20.00000000000146,-0.0043913806610085815,0.10585866823256347
