Time (s),X (m),Y (m)
0.001,-0.0006246028371892732,-0.0005914538325516239
0.20000000000000015,0.0013431539107997361,0.0005186380226451418
0.4000000000000003,0.009094561938220488,0.006155216458181291
0.6000000000000004,0.008203532535697538,0.002084345944689533
0.8000000000000006,0.009853979982682979,0.0016012352677178948
1.0000000000000007,0.009916972301111146,0.0022637216592253017
1.2009999999999785,0.016838797095368715,0.0058258189329845386
1.4009999999999565,0.02549532821197533,0.0027551372322590292
1.6009999999999345,0.03319677364518988,5.746507336041961e-05
1.8009999999999124,0.04109422680799665,0.0031464648386397166
2.0009999999998906,0.052638645124851696,0.0029846162957980634
2.2009999999998686,0.06574781907785732,0.005495774710606945
2.4009999999998466,0.07775736313194619,0.004828526609162467
2.6009999999998246,0.0930944756131565,0.007161757065556019
2.8009999999998025,0.10628059301667586,0.012143282685719174
3.0009999999997805,0.12002877929165538,0.01635637034568761
3.2009999999997585,0.13841492777408246,0.025330963704543668
3.4009999999997365,0.15414513417325323,0.03283916217067587
3.6009999999997144,0.16644564433120349,0.03818712622957923
3.8009999999996924,0.18184708481356793,0.04653802203651619
4.000999999999671,0.1952909417628729,0.05270238807853998
4.200999999999738,0.20803770207512284,0.05827107635027313
4.400999999999804,0.21800155049964084,0.05947244608305735
4.600999999999871,0.23269625493197907,0.06977763560434819
4.800999999999938,0.24670869791081007,0.07447098661341583
5.000000000000004,0.2585965693675456,0.07802684402597437
5.200000000000071,0.2727230407396958,0.08433236288803032
5.400000000000138,0.28940591529890924,0.09305021892335183
5.600000000000205,0.30566290555478165,0.10703839441044503
5.800000000000272,0.3197634278284617,0.11146840239583249
6.000000000000338,0.3335162427227498,0.11579207234474993
6.200000000000405,0.3434941938888463,0.12682158634344431
6.400000000000472,0.35088417590628584,0.13432731198726452
6.600000000000539,0.3659630522417515,0.13895119944967121
6.800000000000606,0.38022873403470514,0.14709473057213332
7.000000000000672,0.3920424433717838,0.1553558059335444
7.200000000000739,0.4066781807010454,0.16235650289817036
7.400000000000806,0.4190821593973032,0.17470506975626587
7.600000000000873,0.43517671317795364,0.1828769543679132
7.8000000000009395,0.44605226911763585,0.1958961941203146
8.000000000001005,0.45613738074461024,0.20449944782571305
8.200000000000895,0.4626333081168485,0.21382892721603483
8.400000000000784,0.467869435347019,0.2285755648313826
8.600000000000673,0.46947263385427634,0.23694715631833738
8.800000000000562,0.4788083284214229,0.24525407842904254
9.000000000000451,0.4847968709606595,0.2557459166898186
9.20000000000034,0.49081449850967507,0.2699830152517554
9.40000000000023,0.5032011265585058,0.2770281041275003
9.600000000000119,0.510316660957967,0.2965456216118922
9.800000000000008,0.5170736957188812,0.31108100713140396
10.000999999999896,0.5237016309660681,0.3315499190539342
10.200999999999786,0.5329739167052511,0.3458569294818988
10.400999999999675,0.5387106586397363,0.36955683925311666
10.600999999999564,0.548960813391475,0.3934959720102583
10.800999999999453,0.5536146594714307,0.40748024571532343
11.000999999999342,0.559039588488565,0.4232436715444367
11.200999999999231,0.5648594544842985,0.4406933835105832
11.40099999999912,0.5745550789833876,0.4516993411188793
11.60099999999901,0.5814132778157935,0.46510151969524527
11.800999999998899,0.5884550940760624,0.47593389826298477
12.000999999998788,0.5893308739240221,0.48514554354763423
12.200999999998677,0.5993493548232776,0.49949045933330066
12.400999999998566,0.6064610386729394,0.513694200361521
12.600999999998455,0.6125525177867832,0.5274917381877487
12.800999999998345,0.6164206736978656,0.5465944381408269
13.000999999998234,0.6188504128928706,0.5627355664053111
13.200999999998123,0.6265983256629021,0.5714533732525523
13.400999999998012,0.6352411460007873,0.5850006050151882
13.600999999997901,0.6411427108774244,0.6108680133496914
13.80099999999779,0.646171596259996,0.6317405656805751
14.00099999999768,0.6507651986754543,0.6446624014454664
14.200999999997569,0.6549148732962464,0.6581757414277518
14.400999999997458,0.6622889252901234,0.6743708032876436
14.600999999997347,0.6635031949036605,0.692331515744391
14.800999999997236,0.6660539370195463,0.711219108318825
15.000999999997125,0.6680404463304153,0.7289116936692281
15.200999999997014,0.6751049554660876,0.7421304710972556
15.400999999996904,0.6847727437891191,0.7547204219274389
15.600999999996793,0.688740531091445,0.7743316559381409
15.800999999996682,0.6895413896939258,0.7932555744329868
16.000999999996573,0.6911989442166643,0.812000695551767
16.200999999996817,0.698020246584232,0.827025094470578
16.40099999999706,0.7070626353978113,0.8398862206816227
16.600999999997306,0.7135976696810797,0.8594885709086899
16.80099999999755,0.7178754683511496,0.8766850350150475
17.000999999997795,0.724420403597493,0.8960619062489817
17.20099999999804,0.7294755359282455,0.9126475673590738
17.400999999998284,0.7330245237556533,0.9278221962720017
17.60099999999853,0.7364639465412504,0.94019125914869
17.800999999998773,0.7472126947405484,0.9541433900676675
18.000999999999017,0.7582234101229344,0.9580246467747011
18.20099999999926,0.769305427629972,0.9732486582093942
18.400999999999506,0.7753399427432865,0.9843231389680249
18.60099999999975,0.778520017043253,0.9976415964818608
18.799999999999994,0.7824925397822796,1.0113136470300415
19.000000000000238,0.7864124704243093,1.0305685154893214
19.200000000000482,0.7900488383860633,1.0462924981481825
19.400000000000727,0.7916984885622597,1.066310216238895
19.60000000000097,0.7949180914829382,1.0863780100923666
19.800000000001216,0.7982748630277025,1.1122767137614888
20.00000000000146,0.8032744820519684,1.1291446860362864
