Time (s),X (m),Y (m)
0.001,-4.680521708071185e-05,0.00099603208171127
0.20000000000000015,0.0019334872882946926,-0.0015644230572504614
0.4000000000000003,0.005915670693420477,-0.0029970300642575293
0.6000000000000004,0.016968015059425395,-0.011394185453498025
0.8000000000000006,0.036792465178886645,-0.030122806837336064
1.0000000000000007,0.06443818453318689,-0.054620218988666584
1.2009999999999785,0.09829225276535468,-0.08148763505518583
1.4009999999999565,0.12852243143337747,-0.10085561995746434
1.6009999999999345,0.1600318794551838,-0.11462279790721364
1.8009999999999124,0.18512435088098986,-0.1399453937779255
2.0009999999998906,0.21818471102590184,-0.15861499112571054
2.2009999999998686,0.2553226368581572,-0.17035667754075298
2.4009999999998466,0.29099313951191497,-0.1874319414712232
2.6009999999998246,0.32175424596109803,-0.21280028330460746
2.8009999999998025,0.3659948681343906,-0.22518911032595085
3.0009999999997805,0.4064563814946481,-0.23954186839258404
3.2009999999997585,0.4420973895459663,-0.2734346444465583
3.4009999999997365,0.478533611498931,-0.3043514119667817
3.6009999999997144,0.5135686079463688,-0.3517979728732603
3.8009999999996924,0.5489466646217586,-0.39028917112065437
4.000999999999671,0.5838275989821763,-0.4291094448987231
4.200999999999738,0.6171526957246993,-0.48168108976450313
4.400999999999804,0.6620334370545966,-0.5231150996581403
4.600999999999871,0.6947339840164168,-0.5646761750731808
4.800999999999938,0.7350863105171395,-0.602023019249422
5.000000000000004,0.7523259737028088,-0.6553792674146514
5.200000000000071,0.7681682468124801,-0.7129732724827921
5.400000000000138,0.7786801771559441,-0.7714624096203294
5.600000000000205,0.7994605423808038,-0.8225527076506646
5.800000000000272,0.7948167870451004,-0.8704290519233092
6.000000000000338,0.7805805881663399,-0.9213542164128702
6.200000000000405,0.7474412672805312,-0.9648084179652715
6.400000000000472,0.7140253743001187,-1.0052828815231025
6.600000000000539,0.6719397804136956,-1.0434935530089084
6.800000000000606,0.6323007063685445,-1.0840413015614476
7.000000000000672,0.5900876013907819,-1.1076580373199423
7.200000000000739,0.5470875861041156,-1.1361656758908318
7.400000000000806,0.49776171519934764,-1.1648224182442743
7.600000000000873,0.4469132937949119,-1.185348381706306
7.8000000000009395,0.4033486043289807,-1.189837038781943
8.000000000001005,0.36062769265311856,-1.1632461902725173
8.200000000000895,0.3159156721885448,-1.1266989337573867
8.400000000000784,0.27746566867063865,-1.0929080466125194
8.600000000000673,0.23892060244725152,-1.055601462868014
8.800000000000562,0.21481770534179825,-1.0165648332069028
9.000000000000451,0.19382331657888982,-0.9737067703127226
9.20000000000034,0.17298247752894652,-0.9313207538449183
9.40000000000023,0.16263449962023624,-0.88393624042535
9.600000000000119,0.1479167389198629,-0.8328957981784868
9.800000000000008,0.13849589878310986,-0.7810585441838521
10.000999999999896,0.15085988112766557,-0.7265381808720038
10.200999999999786,0.16446436691940705,-0.6689940025125789
10.400999999999675,0.1885544452504769,-0.6169469479516765
10.600999999999564,0.22682452335196096,-0.5779684778681657
10.800999999999453,0.2628573049674988,-0.5449403333809184
11.000999999999342,0.3077184147115419,-0.5211828898170859
11.200999999999231,0.3522279455596062,-0.5070812069730942
11.40099999999912,0.4051937592035178,-0.5166379667176466
11.60099999999901,0.4564378255220303,-0.5336448373460874
11.800999999998899,0.5031748766061945,-0.5664048635512772
12.000999999998788,0.5407973261321852,-0.6081886236290626
12.200999999998677,0.5819019754134492,-0.6485351268959869
12.400999999998566,0.6183620948923967,-0.69259784807572
12.600999999998455,0.637067214769116,-0.736287101155455
12.800999999998345,0.6413455117004279,-0.7840173213387439
13.000999999998234,0.6334369196197035,-0.8369382805989304
13.200999999998123,0.5996421747646826,-0.8780706596453045
13.400999999998012,0.5642634900403253,-0.9176597130900715
13.600999999997901,0.5441812918095379,-0.9640518952179659
13.80099999999779,0.506512563823211,-0.9984225497249605
14.00099999999768,0.458138391256624,-1.0223363931647527
14.200999999997569,0.4065391311278544,-1.0395253772475692
14.400999999997458,0.3547695986174525,-1.0378080578681874
14.600999999997347,0.29899510488875336,-1.0233713862224816
14.800999999997236,0.2455855247451338,-1.0030404166840836
15.000999999997125,0.19658475214802398,-0.9980417624519377
15.200999999997014,0.15353753852595764,-0.9979113829991442
15.400999999996904,0.11559731896320316,-0.9769135100695744
15.600999999996793,0.0814514019169323,-0.9389163243112839
15.800999999996682,0.03661461091697353,-0.90737231055031
16.000999999996573,-0.008780713992520303,-0.8747402463141225
16.200999999996817,-0.05389316332184993,-0.8418662495543382
16.40099999999706,-0.08418835735708498,-0.8091501254786685
16.600999999997306,-0.08787469103422658,-0.7715126293064938
16.80099999999755,-0.07548126399326026,-0.7296961193996203
17.000999999997795,-0.03928852796098965,-0.6941913466333868
17.20099999999804,-0.007660103466701522,-0.6596656771791934
17.400999999998284,0.02414707641107935,-0.6244228158514226
17.60099999999853,0.054274081538153364,-0.585322159558895
17.800999999998773,0.08722233838859882,-0.5436621803203626
18.000999999999017,0.14158756142661108,-0.5119269969999862
18.20099999999926,0.1981884089480732,-0.48650344251790223
18.400999999999506,0.24479381352940413,-0.46366795254294885
18.60099999999975,0.29034403696580063,-0.4399597868885985
18.799999999999994,0.33572248203153354,-0.41435306505347663
19.000000000000238,0.37860433309065145,-0.4002879979378678
19.200000000000482,0.42853784088750746,-0.4075743052080259
19.400000000000727,0.48144350394199614,-0.4210393298975579
19.60000000000097,0.5342856422576379,-0.43943715381943577
19.800000000001216,0.5823362047691977,-0.46931248112323243
20.00000000000146,0.6286882028506185,-0.5020941177855955
