Time (s),X (m),Y (m)
0.001,-0.0004427414248986554,-0.0007899207378008392
0.20000000000000015,0.0008710750311134112,-0.00032899765047744196
0.4000000000000003,-0.0009915851192846459,-0.004579522520329483
0.6000000000000004,-0.0015408033213182356,-0.010972812343980367
0.8000000000000006,0.0037536548851447903,-0.0049343704072725885
1.0000000000000007,0.007756121109567507,0.00023363810174938687
1.2009999999999785,0.017901271129345177,0.005838228208224393
1.4009999999999565,0.021121195886640385,0.0052230979465922684
1.6009999999999345,0.028690496804789252,0.0005482668460898836
1.8009999999999124,0.03985693506282604,0.007716467386983175
2.0009999999998906,0.05195294881084554,0.019243083189414114
2.2009999999998686,0.06141667200638072,0.015685165902970363
2.4009999999998466,0.06921463003089308,0.0130683088375533
2.6009999999998246,0.07672908538898594,0.015972160304163544
2.8009999999998025,0.09001466931799161,0.02074511660169764
3.0009999999997805,0.09955213739097923,0.03239474629363344
3.2009999999997585,0.1112309589693346,0.04254208339381988
3.4009999999997365,0.12160393564548694,0.051256712874536474
3.6009999999997144,0.13106504409548742,0.0641835586204926
3.8009999999996924,0.14084268805102537,0.07646184215193257
4.000999999999671,0.15295997229683192,0.08382982414657751
4.200999999999738,0.16299563436235207,0.09006937962496617
4.400999999999804,0.17303319748348245,0.09611735204207199
4.600999999999871,0.18320808670369476,0.09498104138874083
4.800999999999938,0.1896281212075178,0.09906517406595973
5.000000000000004,0.20028149185515223,0.10244141859612801
5.200000000000071,0.21268403336077912,0.11180702003566333
5.400000000000138,0.2201208134356725,0.12393689312695191
5.600000000000205,0.23264335149651896,0.13432438610688313
5.800000000000272,0.24382873520199072,0.13964158488188078
6.000000000000338,0.2543125156587965,0.1484902989045972
6.200000000000405,0.26409032363666923,0.1587600239161258
6.400000000000472,0.27269891438124055,0.17241083039293492
6.600000000000539,0.27860950080824903,0.1839531948103124
6.800000000000606,0.28545170277327236,0.19368910532404932
7.000000000000672,0.2959370107176296,0.2037384503911037
7.200000000000739,0.3023711625738522,0.21155914547917207
7.400000000000806,0.3090029701731053,0.22402374184005738
7.600000000000873,0.31431308226643434,0.23462346261006423
7.8000000000009395,0.31671425886017746,0.2503145913525465
8.000000000001005,0.3227050818908769,0.2690585460360215
8.200000000000895,0.3340926369072343,0.28217172733043344
8.400000000000784,0.33799679714361913,0.29444907595243364
8.600000000000673,0.34340287524769336,0.30049794553985854
8.800000000000562,0.3455803066114307,0.30495108892232486
9.000000000000451,0.35129295345487377,0.3145422305517956
9.20000000000034,0.35352988134185653,0.32050220910238725
9.40000000000023,0.3588685778221047,0.3288604682826307
9.600000000000119,0.3614809905914326,0.3396900227024558
9.800000000000008,0.368718548852666,0.3497076837325481
10.000999999999896,0.3746705908781027,0.36251008663266665
10.200999999999786,0.38006229939006153,0.37027741587946184
10.400999999999675,0.3843525712775718,0.38470093233507213
10.600999999999564,0.38740122569057106,0.39713986570898324
10.800999999999453,0.38937173454080876,0.41227045680351915
11.000999999999342,0.3885869733158577,0.42945627790329316
11.200999999999231,0.3903817925706199,0.4466200909644167
11.40099999999912,0.3897932332151758,0.4647332301200574
11.60099999999901,0.3946893207068622,0.4793903962743621
11.800999999998899,0.3918157581191041,0.4927039118657123
12.000999999998788,0.39063684791977293,0.5033237094987408
12.200999999998677,0.3857065479925196,0.5219539692861115
12.400999999998566,0.38883325053621526,0.5363314653679635
12.600999999998455,0.38898463342437006,0.549666005539799
12.800999999998345,0.38338959364059877,0.5665301759654257
13.000999999998234,0.3772458891733123,0.5820684651232476
13.200999999998123,0.3714544285642312,0.5976770418760827
13.400999999998012,0.36546672490563153,0.611704877034555
13.600999999997901,0.35940813779504827,0.6217456699199901
13.80099999999779,0.35250394551253644,0.6347788756892351
14.00099999999768,0.342293761050375,0.6506693705374058
14.200999999997569,0.3342900296848352,0.6665267676504233
14.400999999997458,0.32334905053236207,0.6826434401908305
14.600999999997347,0.31829104456798496,0.699100555983357
14.800999999997236,0.31054942742275704,0.7090052863083603
15.000999999997125,0.3050054805470857,0.7204039423361771
15.200999999997014,0.2980732442108407,0.733344272439284
15.400999999996904,0.28745954255990513,0.7401197558623108
15.600999999996793,0.2807785554739393,0.750891123396686
15.800999999996682,0.26199297302072716,0.7647219562299381
16.000999999996573,0.2502776813015625,0.7733996092165794
16.200999999996817,0.24172473290761637,0.7844874176408385
16.40099999999706,0.23334090417148998,0.7985665548836783
16.600999999997306,0.22390157607534186,0.8089384244433908
16.80099999999755,0.21445484872737136,0.8216188168153099
17.000999999997795,0.1965260864085558,0.8287050337094848
17.20099999999804,0.17698308174412852,0.8346947994786796
17.400999999998284,0.16420902256158973,0.84407421950892
17.60099999999853,0.15032826878718375,0.8563678704807955
17.800999999998773,0.13650620518586368,0.8690305387916226
18.000999999999017,0.12240293352330453,0.8744811094139866
18.20099999999926,0.11052051041547971,0.8809194697801511
18.400999999999506,0.10104164144918205,0.8893552564960059
18.60099999999975,0.09609745731576794,0.8971129015864289
18.799999999999994,0.08509792357459016,0.9009523669895383
19.000000000000238,0.06764240951380002,0.9045225148308447
19.200000000000482,0.050834358724430345,0.9100442405030446
19.400000000000727,0.039024034703393655,0.9160978075638435
19.60000000000097,0.02909794313381916,0.9212311477429871
19.800000000001216,0.016122243931728165,0.9223311421871374
20.00000000000146,0.0072824720841250645,0.9276700290214791
