Time (s),X (m),Y (m)
0.001,0.0008115346074009382,0.0008446836120385872
0.20000000000000015,-0.0019151997877348496,-0.004890697287864452
0.4000000000000003,0.0004186947751821195,-0.005339327575601467
0.6000000000000004,0.0041619720496147835,-0.005013582934255779
0.8000000000000006,0.01387971173876595,-0.009374695001794428
1.0000000000000007,0.0324872278020724,-0.012796262383757017
1.2009999999999785,0.04874588356577386,-0.01111055208041207
1.4009999999999565,0.06836059257939617,-0.00934344177060192
1.6009999999999345,0.0811104065941498,-0.016312125459369168
1.8009999999999124,0.09416096487610637,-0.019136542512342328
2.0009999999998906,0.11625535007129113,-0.0255769999272118
2.2009999999998686,0.14090957854467914,-0.017587340473703684
2.4009999999998466,0.16355360066243138,-0.009343394388164292
2.6009999999998246,0.1900638281063176,0.005487244008781522
2.8009999999998025,0.21490003983470393,0.006604533840999485
3.0009999999997805,0.23518253962094005,0.016877041039905036
3.2009999999997585,0.256146772438599,0.02156714816179099
3.4009999999997365,0.2815478619937494,0.02605446109410869
3.6009999999997144,0.30839020499164266,0.028913080413163227
3.8009999999996924,0.3355522008644912,0.04562421485579935
4.000999999999671,0.36269555013867266,0.06556389252352607
4.200999999999738,0.38696704875657145,0.08062630542028909
4.400999999999804,0.41345427584071304,0.1070177026601294
4.600999999999871,0.44366946279747466,0.12382707296435715
4.800999999999938,0.4750323911502536,0.1308717090318718
5.000000000000004,0.5049223027350971,0.152571035511455
5.200000000000071,0.5357334589247343,0.18640335015950882
5.400000000000138,0.5621700229258948,0.20837943634071027
5.600000000000205,0.5902447922901142,0.21862762625371196
5.800000000000272,0.6177425652731214,0.2280975550566805
6.000000000000338,0.6493203309915448,0.24796858380799655
6.200000000000405,0.6801193701719433,0.26927396444436563
6.400000000000472,0.70949263746056,0.27747569644489406
6.600000000000539,0.7275753224733428,0.2893014742459992
6.800000000000606,0.748295366682826,0.3158556653312636
7.000000000000672,0.7732283541750394,0.3258263911542035
7.200000000000739,0.7966459876439241,0.34658132173585193
7.400000000000806,0.8212997444893475,0.37257963368438746
7.600000000000873,0.8464571706118055,0.3973119183407746
7.8000000000009395,0.8746365084247513,0.4135221860519606
8.000000000001005,0.9036022334743541,0.44372681525973207
8.200000000000895,0.92777798854875,0.47793816251612925
8.400000000000784,0.9555064561368305,0.5059617166078177
8.600000000000673,0.9769746378579979,0.5301640124268963
8.800000000000562,0.9925410594995793,0.556080052889453
9.000000000000451,1.0068545092237604,0.584638291287069
9.20000000000034,1.0266386711839497,0.6096633417282911
9.40000000000023,1.054684953217048,0.6244801379447885
9.600000000000119,1.0746940498999706,0.6497258126489845
9.800000000000008,1.0970978821246187,0.676805874060985
10.000999999999896,1.1279987363942154,0.703956242922518
10.200999999999786,1.1605247131589622,0.7286893193730972
10.400999999999675,1.1838571178065747,0.7449489701563481
10.600999999999564,1.1997372531818489,0.7746737895690056
10.800999999999453,1.2106313653432486,0.8070239684360386
11.000999999999342,1.2197025847655014,0.8325172931752131
11.200999999999231,1.2309184149778656,0.84502019827192
11.40099999999912,1.243251656492665,0.8672171771864073
11.60099999999901,1.2619212598772644,0.8886250135460962
11.800999999998899,1.2800185840687768,0.918058306155345
12.000999999998788,1.3023054106650103,0.9374736398626028
12.200999999998677,1.3215602415036682,0.9670214454733473
12.400999999998566,1.345931769049557,0.9959166694610085
12.600999999998455,1.37004084735708,1.0240812545620384
12.800999999998345,1.3928484096965372,1.0533383461270514
13.000999999998234,1.41176974371448,1.087004153317903
13.200999999998123,1.4341664229161724,1.1246310009636846
13.400999999998012,1.4578694421321239,1.1572452613238395
13.600999999997901,1.4797981313311093,1.1886150551851
13.80099999999779,1.5028878517061157,1.2172890280855502
14.00099999999768,1.5271375708398325,1.2514377240202743
14.200999999997569,1.5467120326771535,1.2848479608611976
14.400999999997458,1.5639487195263213,1.317351141826772
14.600999999997347,1.5876253798198503,1.335882134213961
14.800999999997236,1.6101178909158707,1.3618411922773133
15.000999999997125,1.627604618985965,1.3735987753830639
15.200999999997014,1.6405482473205224,1.3968585978783927
15.400999999996904,1.6520864118858347,1.4227365966415273
15.600999999996793,1.6636068104488877,1.452983952039269
15.800999999996682,1.6704570033357813,1.480348834362265
16.000999999996573,1.6839550584930252,1.5152226108770235
16.200999999996817,1.6951793274888158,1.5518359130567896
16.40099999999706,1.7046183489518447,1.5877004436901652
16.600999999997306,1.713282754874689,1.6112399428901032
16.80099999999755,1.7134345589505087,1.648955894973667
17.000999999997795,1.7172841799936254,1.6774267097587565
17.20099999999804,1.7180414334555296,1.7173554873602226
17.400999999998284,1.7149141702324944,1.7587096992341196
17.60099999999853,1.7145433436324353,1.7991049020897423
17.800999999998773,1.7142549296484022,1.828620173923222
18.000999999999017,1.713855424557127,1.8541911736696894
18.20099999999926,1.7152445426089657,1.8929214797194145
18.400999999999506,1.7260799972768908,1.9233070991100893
18.60099999999975,1.7384444534757109,1.941828988121059
18.799999999999994,1.750313124573045,1.9697992412633378
19.000000000000238,1.7595014121585097,2.000182332736826
19.200000000000482,1.7708545646057665,2.0278947306971844
19.400000000000727,1.7831929858789757,2.0656110657004105
19.60000000000097,1.7935346536585424,2.0973391303849978
19.800000000001216,1.804699215437002,2.1313617812261545
20.00000000000146,1.8212274654572085,2.157186121009155
