Time (s),X (m),Y (m)
0.001,0.0011130987088041246,-0.000515584144559974
0.20000000000000015,0.0001478787987337768,0.0019966048251429994
0.4000000000000003,0.0021132361506603177,0.0005040672056143614
0.6000000000000004,0.010399625292457235,-0.0029771142506996927
0.8000000000000006,0.016999738877399195,0.0006121248992079347
1.0000000000000007,0.02155461990560905,0.004900923890038757
1.2009999999999785,0.02488152901449607,0.008011423414150095
1.4009999999999565,0.030999985263572637,0.016352206063567912
1.6009999999999345,0.042916213728458275,0.024160777427750767
1.8009999999999124,0.0597729155700272,0.03267311580470459
2.0009999999998906,0.07463632831344354,0.03609739625002868
2.2009999999998686,0.08045318057735008,0.0429776743391075
2.4009999999998466,0.09262191302441324,0.04674533407201287
2.6009999999998246,0.10510270273732611,0.04540183291309645
2.8009999999998025,0.11999016331430741,0.038371654816619194
3.0009999999997805,0.14154206799467198,0.029195955504616754
3.2009999999997585,0.16498411379316216,0.02821088470293908
3.4009999999997365,0.1855924605059631,0.02545642308647768
3.6009999999997144,0.2067170379366633,0.013611960543026557
3.8009999999996924,0.22741439383401588,0.008711834561858966
4.000999999999671,0.24352364124279804,0.0014347037640817725
4.200999999999738,0.2626501276113336,-0.011707768553953555
4.400999999999804,0.2882238557321086,-0.02357722365299443
4.600999999999871,0.3109701867836291,-0.027246290899040015
4.800999999999938,0.33238732917318714,-0.031334160961004914
5.000000000000004,0.353377976217287,-0.03413845215157368
5.200000000000071,0.378702011734798,-0.044820059245412824
5.400000000000138,0.39945935600452176,-0.05160313409097851
5.600000000000205,0.4141284116151293,-0.05904973959976908
5.800000000000272,0.42552219291063875,-0.07421084878797286
6.000000000000338,0.44262399161468274,-0.08165072660389798
6.200000000000405,0.460965543733975,-0.08840707993421168
6.400000000000472,0.47871583308464144,-0.09604547011276227
6.600000000000539,0.5029952014559015,-0.11180042728826628
6.800000000000606,0.5234333969841278,-0.12038256106232766
7.000000000000672,0.5401552766574882,-0.12908282016721573
7.200000000000739,0.5625092334632823,-0.13851219624499586
7.400000000000806,0.5841938044053734,-0.15092698008140756
7.600000000000873,0.6004880254427012,-0.16482130790889563
7.8000000000009395,0.6132397331771086,-0.17496241258509188
8.000000000001005,0.6209882148987735,-0.19519919105748545
8.200000000000895,0.6289579369557998,-0.20803766317619327
8.400000000000784,0.6312085645687737,-0.2301536584659594
8.600000000000673,0.6359265263093345,-0.25274924217706457
8.800000000000562,0.6350677366691868,-0.27931773370675933
9.000000000000451,0.6331678507487833,-0.29682123245012787
9.20000000000034,0.6300545502598461,-0.31304102168958925
9.40000000000023,0.6289102744360605,-0.3358701390691461
9.600000000000119,0.6279534092276878,-0.3640667259075335
9.800000000000008,0.623968967883162,-0.38580717457745534
10.000999999999896,0.6145896575549361,-0.4125359134977494
10.200999999999786,0.6124575080176435,-0.4321500087479057
10.400999999999675,0.6038084186000395,-0.459049461187913
10.600999999999564,0.5928551071791097,-0.4814775563914271
10.800999999999453,0.582785576375403,-0.5075393341347441
11.000999999999342,0.5674846083865066,-0.5366943219395632
11.200999999999231,0.5558822082967498,-0.563454132511324
11.40099999999912,0.5444811249322998,-0.5857925513063955
11.60099999999901,0.5346751591997204,-0.6077104656085002
11.800999999998899,0.5254733997487254,-0.6352707740924308
12.000999999998788,0.5103687120646323,-0.6671218760739432
12.200999999998677,0.4965837325774275,-0.6967981229957089
12.400999999998566,0.4800507256171346,-0.7211650993235236
12.600999999998455,0.46054044239355146,-0.7459209643114275
12.800999999998345,0.43880193950434015,-0.7721783296488763
13.000999999998234,0.40983237471846756,-0.792968384185448
13.200999999998123,0.3944651115832435,-0.8110427092337036
13.400999999998012,0.3809010806522343,-0.8211914838617096
13.600999999997901,0.3659469317600361,-0.8332138287819796
13.80099999999779,0.3493726304498848,-0.8369057654512874
14.00099999999768,0.33097569681433864,-0.8391256200276372
14.200999999997569,0.29950440002001594,-0.8394950849790829
14.400999999997458,0.2718829230802265,-0.8373989750374068
14.600999999997347,0.25109130362285287,-0.8379760135821661
14.800999999997236,0.22658388224160486,-0.8332388088751329
15.000999999997125,0.19949711275592663,-0.8235127853465392
15.200999999997014,0.17938244664742367,-0.8230501675913645
15.400999999996904,0.16099787853105518,-0.820078936879842
15.600999999996793,0.1341650527599504,-0.8105208456834313
15.800999999996682,0.10848832858094308,-0.8032591615287072
16.000999999996573,0.08557749547848319,-0.7992629755577797
16.200999999996817,0.05688491457287174,-0.7869936170345206
16.40099999999706,0.02696084486384091,-0.7736606949024549
16.600999999997306,-0.0010371120436390496,-0.7641595104429802
16.80099999999755,-0.033100536895653954,-0.7511959048492973
17.000999999997795,-0.06300622308137184,-0.7348666227063394
17.20099999999804,-0.08985926250054302,-0.7209243621869657
17.400999999998284,-0.11099259752817192,-0.709110782102791
17.60099999999853,-0.12743220515056303,-0.6930846325629775
17.800999999998773,-0.1444027962817306,-0.677573234213165
18.000999999999017,-0.15804032775558685,-0.6609416880465796
18.20099999999926,-0.16661440326693952,-0.6490515635072259
18.400999999999506,-0.17562479949538867,-0.622487152190364
18.60099999999975,-0.17754909920183606,-0.6015963717264099
18.799999999999994,-0.1798286648319495,-0.5723146098685943
19.000000000000238,-0.18090963647472416,-0.5490978779909239
19.200000000000482,-0.18307103060941868,-0.5262147346255849
19.400000000000727,-0.18309898388630488,-0.4993125366730918
19.60000000000097,-0.17794147620411035,-0.4727653715489812
19.800000000001216,-0.16878762517628143,-0.4471149317878174
20.00000000000146,-0.16626585475864655,-0.42524879841100033
