Time (s),X (m),Y (m)
0.001,0.00013020853671323254,0.0010272443824616275
0.20000000000000015,0.0016335515176466927,-0.004170655267311122
0.4000000000000003,0.004810202899185886,0.001942726244940346
0.6000000000000004,0.016537515978300256,0.012097482319312815
0.8000000000000006,0.032271424181023675,0.004830314174143519
1.0000000000000007,0.04886064240872206,0.0013239887251429248
1.2009999999999785,0.06544723059354517,0.005754628173485642
1.4009999999999565,0.08675278675268143,-0.00018016450864064235
1.6009999999999345,0.10564008571982204,-0.001567899387975509
1.8009999999999124,0.11917252708774037,-0.006270730546483524
2.0009999999998906,0.14152385676300944,-0.004639460296350985
2.2009999999998686,0.171279971018826,0.0010540880916964607
2.4009999999998466,0.19441228298623792,-0.005499367556853479
2.6009999999998246,0.22164366234429547,-0.011457511895508473
2.8009999999998025,0.24211429158162767,-0.013645521705189885
3.0009999999997805,0.2691797370399847,-0.011792141763503643
3.2009999999997585,0.2860284994437715,-0.02189991303147776
3.4009999999997365,0.29602872070585506,-0.048541484065144164
3.6009999999997144,0.30516699695610744,-0.0661596427710124
3.8009999999996924,0.3311188505498698,-0.0664297138812901
4.000999999999671,0.3542468188557599,-0.07480154570484318
4.200999999999738,0.37523918661103367,-0.08438973019536798
4.400999999999804,0.40101428508218173,-0.09706280895380529
4.600999999999871,0.43053915460178305,-0.11036833832578956
4.800999999999938,0.47004092151625193,-0.11326462450384206
5.000000000000004,0.5054151184481769,-0.1237932232746138
5.200000000000071,0.5345540156535133,-0.11822625664193345
5.400000000000138,0.5512477843745242,-0.1329103472001175
5.600000000000205,0.5756743616683038,-0.15387885659507983
5.800000000000272,0.5986625826726981,-0.17319626294186463
6.000000000000338,0.6168511288359985,-0.18549351854644144
6.200000000000405,0.6434244529152264,-0.1951241018424713
6.400000000000472,0.676491713141863,-0.20093648784896723
6.600000000000539,0.703340874167397,-0.2097383776770805
6.800000000000606,0.7319151403850156,-0.2251165173881105
7.000000000000672,0.7634890064371476,-0.2307659609870413
7.200000000000739,0.789412520237968,-0.2521847432036758
7.400000000000806,0.8220429622585453,-0.27074294967645174
7.600000000000873,0.8560476244617518,-0.27604256075855016
7.8000000000009395,0.8789962118465457,-0.29177433143566617
8.000000000001005,0.9003789548298572,-0.31488974494139066
8.200000000000895,0.9296805797055856,-0.32386940977662904
8.400000000000784,0.955289347101513,-0.3308491231091344
8.600000000000673,0.9653482814313168,-0.3540828189560383
8.800000000000562,0.9713170021608016,-0.384579530621559
9.000000000000451,0.9810022429091313,-0.41766140399753776
9.20000000000034,1.003087106098569,-0.4435891819464413
9.40000000000023,1.0198274642922638,-0.46993179438369675
9.600000000000119,1.0371362183064703,-0.49383489523015367
9.800000000000008,1.049357030196045,-0.516114459164371
10.000999999999896,1.0646339262275517,-0.542632949157632
10.200999999999786,1.079738286372573,-0.5662612018410231
10.400999999999675,1.1052768403226243,-0.5921582756215232
10.600999999999564,1.1248488078375942,-0.6249911150377254
10.800999999999453,1.15220275332633,-0.6443240708912517
11.000999999999342,1.1707073917773518,-0.6705634938888434
11.200999999999231,1.1824093643625395,-0.693217049199927
11.40099999999912,1.20528822903182,-0.7174572810921894
11.60099999999901,1.2272956565849198,-0.7356805267518011
11.800999999998899,1.2509566004937616,-0.759301255108104
12.000999999998788,1.2680237339268274,-0.7847889373958682
12.200999999998677,1.2829080540497768,-0.8079196232974858
12.400999999998566,1.3011673248632387,-0.8348506448270573
12.600999999998455,1.330305466309451,-0.8609502215608933
12.800999999998345,1.36230983272007,-0.8881940326786338
13.000999999998234,1.3858382604493795,-0.9141584012169506
13.200999999998123,1.3953801738524272,-0.9435317227680653
13.400999999998012,1.4034782192931279,-0.971490467017694
13.600999999997901,1.4203587739289132,-1.004259309823381
13.80099999999779,1.4425671565040492,-1.0304950393247927
14.00099999999768,1.4581541168531835,-1.050202417317315
14.200999999997569,1.4725201739811111,-1.0712410971051651
14.400999999997458,1.4953809090463124,-1.0885950132555444
14.600999999997347,1.5255596315985496,-1.0977129225023314
14.800999999997236,1.5485081928240745,-1.1155302148734394
15.000999999997125,1.5869275817652,-1.1264080368952334
15.200999999997014,1.6301532984371971,-1.135277827632222
15.400999999996904,1.659556505054445,-1.1537284526670073
15.600999999996793,1.6838184519044248,-1.171921253350452
15.800999999996682,1.690603038702486,-1.201473062329388
16.000999999996573,1.7116787871067525,-1.2303373113968237
16.200999999996817,1.7425688215611619,-1.2493488897318041
16.40099999999706,1.7701583661775355,-1.2655153486331323
16.600999999997306,1.7924323106548568,-1.29120666641303
16.80099999999755,1.8191035645519094,-1.3127115759667856
17.000999999997795,1.8400452664874072,-1.3402533128079173
17.20099999999804,1.859825470526543,-1.3630752543095972
17.400999999998284,1.8944745423502602,-1.373305782013672
17.60099999999853,1.9257184926852469,-1.3904451960547455
17.800999999998773,1.9452086381461224,-1.4138357481800508
18.000999999999017,1.9622979660808828,-1.4375183965561822
18.20099999999926,1.983491198521048,-1.4591698893513387
18.400999999999506,2.004897263011793,-1.4842364033630846
18.60099999999975,2.0244904233908865,-1.5050456975284088
18.799999999999994,2.037693047833165,-1.5297041143810595
19.000000000000238,2.0608613562297773,-1.5488954270830686
19.200000000000482,2.085511582163167,-1.5696259024792878
19.400000000000727,2.1153582884057918,-1.5833215215692096
19.60000000000097,2.151708977026205,-1.5833836086653308
19.800000000001216,2.1942321437687418,-1.5850329075860183
20.00000000000146,2.2213898530515945,-1.60020234502666
