Time (s),X (m),Y (m)
0.001,-0.00013259955118837574,0.0009689812320744445
0.20000000000000015,0.0026165703847092913,-0.00450474063920202
0.4000000000000003,0.008735667672179506,-0.006788803342233211
0.6000000000000004,0.015730085146245267,0.0024523755973430428
0.8000000000000006,0.028075836097353864,0.003568073549134545
1.0000000000000007,0.04628890521663537,0.0016996515910467117
1.2009999999999785,0.06683253564534117,0.006379496359143774
1.4009999999999565,0.07911977254622876,-0.006680952495915402
1.6009999999999345,0.08829996262200525,-0.029825380768105918
1.8009999999999124,0.10121359872126366,-0.047050072238585615
2.0009999999998906,0.11520160426326272,-0.056585534952418866
2.2009999999998686,0.12967333892007196,-0.07932371566698357
2.4009999999998466,0.1407080848983643,-0.10571202395230958
2.6009999999998246,0.14437827745036297,-0.1299862356643079
2.8009999999998025,0.15413158257182102,-0.1323382522910438
3.0009999999997805,0.17059427554210185,-0.14805729539842472
3.2009999999997585,0.1925123855896543,-0.1617073097662337
3.4009999999997365,0.20229930313897815,-0.18982211930853335
3.6009999999997144,0.2197786677604468,-0.20622709199745393
3.8009999999996924,0.2338907313858555,-0.22157140332435638
4.000999999999671,0.24659472295228885,-0.23442316878615302
4.200999999999738,0.2560578053225389,-0.2600383585791412
4.400999999999804,0.2702171218504267,-0.2815449218654911
4.600999999999871,0.28462063672861887,-0.3010698255687661
4.800999999999938,0.29178343855567096,-0.32112110917654796
5.000000000000004,0.30791810027704425,-0.3271232379526755
5.200000000000071,0.32539283818108844,-0.33610689759540785
5.400000000000138,0.3379300841010917,-0.36228417926366463
5.600000000000205,0.34976070184922264,-0.3888515562305171
5.800000000000272,0.3671010809338928,-0.4059348594415526
6.000000000000338,0.3935886970219523,-0.4161647863536989
6.200000000000405,0.4138336944080343,-0.43079952812780214
6.400000000000472,0.42555117971426415,-0.4587109192427435
6.600000000000539,0.4363238137324308,-0.4838405890377779
6.800000000000606,0.45330615731829427,-0.5107639172039138
7.000000000000672,0.47343092990888713,-0.5346022733211575
7.200000000000739,0.493808879056233,-0.5548552779226399
7.400000000000806,0.5113241346021796,-0.5746062582902494
7.600000000000873,0.5211039309568964,-0.5964189714338063
7.8000000000009395,0.5262952901009926,-0.6198609855174474
8.000000000001005,0.5408857615549879,-0.6319912264295978
8.200000000000895,0.5574984056081679,-0.6450920393937214
8.400000000000784,0.566210571144891,-0.6678155421265927
8.600000000000673,0.5716397502232824,-0.6919267828719233
8.800000000000562,0.5727382683744734,-0.7229429484730621
9.000000000000451,0.5843532564408633,-0.7402396961317498
9.20000000000034,0.5959389504787153,-0.7571775311856034
9.40000000000023,0.6091339731566727,-0.7761262880566925
9.600000000000119,0.6233385650718954,-0.7950040795265244
9.800000000000008,0.6357111320819718,-0.8210927458960712
10.000999999999896,0.6483005941581548,-0.8474576506888835
10.200999999999786,0.6610200504914475,-0.8727645123190279
10.400999999999675,0.6718342441069421,-0.8989766388293784
10.600999999999564,0.6845663041520472,-0.9252781378999104
10.800999999999453,0.7020649563224955,-0.9417676163862758
11.000999999999342,0.722651832179466,-0.9634099141122864
11.200999999999231,0.7358184541576808,-0.9869082243518916
11.40099999999912,0.7485536652341347,-1.008346291195617
11.60099999999901,0.757871570703255,-1.0376198639316176
11.800999999998899,0.7665799239797576,-1.0734558296047916
12.000999999998788,0.7868983673200992,-1.1019073688885148
12.200999999998677,0.7989991139258825,-1.1198862462224455
12.400999999998566,0.8037629288927605,-1.146691462113317
12.600999999998455,0.805931985455112,-1.1748073113477504
12.800999999998345,0.8068574477791884,-1.1984620723802117
13.000999999998234,0.8034503140763279,-1.223590242420458
13.200999999998123,0.8012037974678357,-1.2506407022055273
13.400999999998012,0.7968322161326543,-1.2775313560608028
13.600999999997901,0.8048331342076176,-1.3061573813720477
13.80099999999779,0.7934698072971478,-1.3318933821179775
14.00099999999768,0.784550458389299,-1.354869928260839
14.200999999997569,0.7729236905963194,-1.3797684054468966
14.400999999997458,0.7607220445203666,-1.401810110605988
14.600999999997347,0.7441381121146363,-1.4230095333639015
14.800999999997236,0.7243097284875087,-1.4388312035256106
15.000999999997125,0.7122981241729841,-1.4554778475250574
15.200999999997014,0.6886184490481722,-1.473759289280464
15.400999999996904,0.6669723786759936,-1.4934886028817531
15.600999999996793,0.6523448563732727,-1.5162361651077454
15.800999999996682,0.6375838404355195,-1.5356983878780937
16.000999999996573,0.6138459428166995,-1.5514502433011361
16.200999999996817,0.608842011407095,-1.5768318917031274
16.40099999999706,0.5919055975937495,-1.6037745731444861
16.600999999997306,0.567059730967585,-1.6246646305239456
16.80099999999755,0.5395016155268376,-1.6459171764931932
17.000999999997795,0.5222517901908456,-1.6688634830079103
17.20099999999804,0.5101770153976922,-1.6925149562168738
17.400999999998284,0.49290536989437306,-1.7050959674753297
17.60099999999853,0.4691288522407297,-1.7203447046547788
17.800999999998773,0.4496669567945886,-1.7373650377491476
18.000999999999017,0.43381006552727436,-1.7516694235994223
18.20099999999926,0.4203946925148264,-1.7720981842751926
18.400999999999506,0.395259692308059,-1.7914557748990694
18.60099999999975,0.36605831280174933,-1.7948552296416773
18.799999999999994,0.354362553222701,-1.817959286893835
19.000000000000238,0.3340926654026705,-1.8294785521337544
19.200000000000482,0.30822849742146324,-1.8357592000068863
19.400000000000727,0.26934140641264004,-1.8398132261851976
19.60000000000097,0.23274383087208286,-1.848158430813154
19.800000000001216,0.20416505288380454,-1.85222887325127
20.00000000000146,0.18028471144249292,-1.8639443789385421
