Time (s),X (m),Y (m)
0.001,0.0012512490639692614,0.0
0.20000000000000015,-0.0012865407732419016,-0.0002192360163105586
0.4000000000000003,0.0036474136736988415,-0.001514960638271699
0.6000000000000004,0.00875296752421997,-0.002050821381492705
0.8000000000000006,0.013459186391748623,-0.002084024732251905
1.0000000000000007,0.01726888792043647,0.0031133039344011164
1.2009999999999785,0.022930857790388174,0.003449467158937814
1.4009999999999565,0.025259877208063976,0.002664437503703426
1.6009999999999345,0.03652576950198998,-0.004587491224400231
1.8009999999999124,0.04437641926857872,-0.011508887468720403
2.0009999999998906,0.0563064678113829,-0.011714334180345566
2.2009999999998686,0.06904406088097217,-0.016345588934137293
2.4009999999998466,0.07971887487198517,-0.017508373967672082
2.6009999999998246,0.08768611013389545,-0.018156904355433944
2.8009999999998025,0.10653297820854735,-0.024333093096240495
3.0009999999997805,0.11483297921132764,-0.032466628536849985
3.2009999999997585,0.12288538005714347,-0.02959166764116447
3.4009999999997365,0.1341072611362715,-0.033530282824347224
3.6009999999997144,0.1527298292487279,-0.03839251462392098
3.8009999999996924,0.1707279007112818,-0.04847530830264706
4.000999999999671,0.1829960103158062,-0.05344795360420904
4.200999999999738,0.20027845466235042,-0.06436816220116376
4.400999999999804,0.22185670320675271,-0.07462566306124321
4.600999999999871,0.24346466924504756,-0.08372075098143467
4.800999999999938,0.25587808733366846,-0.09113320760657824
5.000000000000004,0.269973806864877,-0.09687062185136414
5.200000000000071,0.27338435493461727,-0.10297817505834149
5.400000000000138,0.2964656623459496,-0.11733020042204834
5.600000000000205,0.31865069379967453,-0.12936908822807897
5.800000000000272,0.3350379441002151,-0.14257164983380452
6.000000000000338,0.356506078080754,-0.15591593240591275
6.200000000000405,0.3725607059833754,-0.16803268142416553
6.400000000000472,0.3899289304441649,-0.1759627609460979
6.600000000000539,0.41056471860702726,-0.18477348875208924
6.800000000000606,0.43180216694633666,-0.19603640582526813
7.000000000000672,0.4487595576100745,-0.2076224350048243
7.200000000000739,0.4681961067635192,-0.21546300840070967
7.400000000000806,0.4945010753091632,-0.22729985509358
7.600000000000873,0.5288226454802429,-0.24333922981896827
7.8000000000009395,0.5567378335313979,-0.2548499151639629
8.000000000001005,0.5801618917413499,-0.26461193361591295
8.200000000000895,0.606588948812992,-0.28020328550806367
8.400000000000784,0.6385921781717726,-0.29828751645799
8.600000000000673,0.6622540195718236,-0.31060794476335757
8.800000000000562,0.6869583056049329,-0.3206551886969147
9.000000000000451,0.7133939094062599,-0.3320743021088323
9.20000000000034,0.7307952308533463,-0.343608383734513
9.40000000000023,0.7455458860953675,-0.3533294197314817
9.600000000000119,0.7687403474346621,-0.36495304770467807
9.800000000000008,0.7901078656551351,-0.37754175508770776
10.000999999999896,0.8115929566129739,-0.39022743915949326
10.200999999999786,0.8279106244943535,-0.405205187714835
10.400999999999675,0.8456989824151431,-0.4137604115539826
10.600999999999564,0.8636644638138371,-0.43033577034406784
10.800999999999453,0.8799852675450415,-0.4445919747080635
11.000999999999342,0.9073624316273214,-0.4572295970965694
11.200999999999231,0.9289432658884651,-0.47256579415957983
11.40099999999912,0.9535141581618853,-0.48755237606872026
11.60099999999901,0.9796146828223015,-0.5039768687006744
11.800999999998899,1.000885468752161,-0.511651558461186
12.000999999998788,1.0349469340590738,-0.5379388554420886
12.200999999998677,1.0753991029376586,-0.5703156991100972
12.400999999998566,1.1068108640707828,-0.5878070182150003
12.600999999998455,1.1360202843031824,-0.6166649929079532
12.800999999998345,1.1621937673996792,-0.6485696999891482
13.000999999998234,1.1944775692025926,-0.6665668640445903
13.200999999998123,1.2267128607924176,-0.6926191319654299
13.400999999998012,1.2560629932026428,-0.7146532679013441
13.600999999997901,1.2744730462094784,-0.7293932870716667
13.80099999999779,1.2962009497715765,-0.7466164547206494
14.00099999999768,1.319976436639056,-0.7735218086220631
14.200999999997569,1.3367086337651688,-0.7934795589827612
14.400999999997458,1.3506245983600762,-0.8032975254679271
14.600999999997347,1.3594752312030411,-0.8228202508955094
14.800999999997236,1.3672296671150252,-0.8455200563895323
15.000999999997125,1.3759167478646561,-0.8743976250777585
15.200999999997014,1.375821334726495,-0.9022320739578823
15.400999999996904,1.3743042685077684,-0.9205259553406449
15.600999999996793,1.3773577273180204,-0.9329646034001583
15.800999999996682,1.3727042847248396,-0.9660103242753648
16.000999999996573,1.3624721820412162,-0.9930440069003668
16.200999999996817,1.35292213553963,-1.0309873112742844
16.40099999999706,1.3452182286881627,-1.052904918503905
16.600999999997306,1.3358562632656386,-1.0657026384635793
16.80099999999755,1.3251373307952974,-1.086565170064484
17.000999999997795,1.3101524192551224,-1.1095963421436512
17.20099999999804,1.2920807541350536,-1.139551313615444
17.400999999998284,1.2790112430389726,-1.1722427966164504
17.60099999999853,1.2661509712488,-1.2045145433592686
17.800999999998773,1.2524971005974246,-1.2327066505378659
18.000999999999017,1.2357222143937248,-1.2698077020561722
18.20099999999926,1.2247351829254738,-1.2884138010010366
18.400999999999506,1.2095348741557934,-1.3129428094086801
18.60099999999975,1.1853995491724,-1.3496794103188703
18.799999999999994,1.1673549558619323,-1.3786983000709603
19.000000000000238,1.1561199392685746,-1.402042908638831
19.200000000000482,1.14977829995574,-1.4187346628813495
19.400000000000727,1.1390712605436695,-1.4409719937952012
19.60000000000097,1.1219988279704387,-1.4661074794411186
19.800000000001216,1.0974723945030398,-1.500390272320981
20.00000000000146,1.0772937671531873,-1.535979239916656
