Time (s),X (m),Y (m)
0.001,0.0008115346074009382,-0.0008446836120385868
0.20000000000000015,0.0037761490762809554,-0.004022318258928778
0.4000000000000003,0.006191312518907927,-0.0013919173881510878
0.6000000000000004,0.012095718252186154,-0.0037303989060645283
0.8000000000000006,0.01747194982578962,-0.002078733490733787
1.0000000000000007,0.0258537501103936,-0.005559865574568778
1.2009999999999785,0.03193097408491457,-0.005155815261673812
1.4009999999999565,0.03821785221725366,-0.00732537774674748
1.6009999999999345,0.041469277103347295,-0.005544817308739599
1.8009999999999124,0.047284244890478846,-0.006494996929955978
2.0009999999998906,0.0533616159358572,-0.0069392826636913785
2.2009999999998686,0.057897252322687415,-0.000551679625315959
2.4009999999998466,0.06546030878081986,-0.0039512163446145205
2.6009999999998246,0.07187995593050578,-0.003485565787808413
2.8009999999998025,0.07719282728590801,-0.0014057950450668817
3.0009999999997805,0.0813079863698873,-0.002481350578153894
3.2009999999997585,0.08568664481512446,-0.0017662542231736658
3.4009999999997365,0.09234597824184257,-0.0013099155517735568
3.6009999999997144,0.09733981230347698,-0.0010608720837285916
3.8009999999996924,0.10451840487505065,-0.0023877494192404325
4.000999999999671,0.10932918540137784,-0.0034230234867950815
4.200999999999738,0.11285883370469497,-0.004489405382610001
4.400999999999804,0.117295988787514,-0.003695559489508029
4.600999999999871,0.1233838768862305,-0.003003711262617342
4.800999999999938,0.13413470199945823,-0.004122007155485873
5.000000000000004,0.1394846235382641,-0.0036343362352234134
5.200000000000071,0.14464157573186806,-0.0023742270442376062
5.400000000000138,0.15160283420120024,-0.004187633572098777
5.600000000000205,0.15893947007620082,-0.004928217852107198
5.800000000000272,0.1636930414123585,-0.004054158928067626
6.000000000000338,0.17074623049255974,-0.005602873096786595
6.200000000000405,0.1789833829771842,-0.007418486213704399
6.400000000000472,0.18968050886448087,-0.00922786927356291
6.600000000000539,0.19495109507073008,-0.008876014846217627
6.800000000000606,0.20033828052488334,-0.007886277536795392
7.000000000000672,0.20084266299087197,-0.003340018890200108
7.200000000000739,0.20876364094813102,-0.005451491226989175
7.400000000000806,0.21505386261765436,-0.0036359726884949155
7.600000000000873,0.224254672503881,-0.003388706238193904
7.8000000000009395,0.23117712141776547,-0.004799994393271006
8.000000000001005,0.2340147150912468,-0.0010301237369389426
8.200000000000895,0.23777368041904426,0.0022103858803724998
8.400000000000784,0.24434272078257677,-0.0005069073555143555
8.600000000000673,0.2513890464779242,-0.0010820847388569295
8.800000000000562,0.25768316211968795,-0.0007067362352976278
9.000000000000451,0.2616860696399824,0.0008415902991807558
9.20000000000034,0.2664762316256359,0.0028957156988976035
9.40000000000023,0.27245586255581256,0.003613235456402466
9.600000000000119,0.27870544233256034,0.006458829724446788
9.800000000000008,0.28188043367016763,0.010599822486706927
10.000999999999896,0.2886041249806045,0.011040945051133996
10.200999999999786,0.2950713094852313,0.01307751099737482
10.400999999999675,0.30564932187715516,0.011929399610319306
10.600999999999564,0.3117027193945249,0.01363871087800443
10.800999999999453,0.3193803212559865,0.01310144237213377
11.000999999999342,0.32302350801956914,0.014458059731249903
11.200999999999231,0.32644655561340796,0.017521381354615496
11.40099999999912,0.33082059710530587,0.02150103286146812
11.60099999999901,0.3376901835958091,0.02161020141121224
11.800999999998899,0.34384753381514366,0.021631767084211218
12.000999999998788,0.3484867691575396,0.023370252464566053
12.200999999998677,0.3529268472058404,0.026965343327874546
12.400999999998566,0.35966610824333656,0.030673355205613907
12.600999999998455,0.3655958571592712,0.0322747424967441
12.800999999998345,0.3739976579553003,0.03248424293721596
13.000999999998234,0.37677569648008835,0.036405007050070985
13.200999999998123,0.3852199579471996,0.03746708131300261
13.400999999998012,0.38786953830984355,0.04015374640416579
13.600999999997901,0.3936353801961098,0.042235783959141626
13.80099999999779,0.4003277295459505,0.04351003455792675
14.00099999999768,0.4064193417029069,0.045181646306351075
14.200999999997569,0.4113928063453329,0.04681704924997423
14.400999999997458,0.41575771928939304,0.04955333266472935
14.600999999997347,0.41819808510644757,0.05133949948675601
14.800999999997236,0.4238046204377879,0.05311723282904895
15.000999999997125,0.4311633263888702,0.05306763282886398
15.200999999997014,0.4379766455543401,0.05324233746227754
15.400999999996904,0.43795453945863533,0.056669488811396
15.600999999996793,0.44581665290384276,0.05671137131374372
15.800999999996682,0.44901701119428766,0.059723823663959084
16.000999999996573,0.4602132534891772,0.06054273933026805
16.200999999996817,0.4657933058672753,0.06304773124793811
16.40099999999706,0.4722829069192374,0.06362089756231999
16.600999999997306,0.47700727621474276,0.06661801905804285
16.80099999999755,0.47975290980372587,0.06917263849769455
17.000999999997795,0.48553611794095153,0.07310978064669044
17.20099999999804,0.4893774956520202,0.07477324949586064
17.400999999998284,0.4965324149887906,0.07606525946853473
17.60099999999853,0.5028994454198271,0.07966822062787654
17.800999999998773,0.5058421742935043,0.0823902065197652
18.000999999999017,0.5110246065208552,0.08337117104899233
18.20099999999926,0.5163754555448237,0.08505246403640156
18.400999999999506,0.522395642170089,0.08668589957848764
18.60099999999975,0.5308322212611868,0.08692626396960973
18.799999999999994,0.5344121064651303,0.09012554627554682
19.000000000000238,0.5383923301948741,0.09214801922089794
19.200000000000482,0.5455426935052039,0.09352167879849915
19.400000000000727,0.5491673725705218,0.09542055680578601
19.60000000000097,0.5550207278801527,0.09729655409607585
19.800000000001216,0.5624059282542266,0.0992460417657403
20.00000000000146,0.5693384708618694,0.10253150315100756
