Time (s),X (m),Y (m)
0.001,0.0012355833006349724,0.00017906049427360518
0.20000000000000015,0.005717186344221056,0.0010843502031461093
0.4000000000000003,0.009233448224670624,0.0006684353895364943
0.6000000000000004,0.009248241082096504,-0.0012145484491193751
0.8000000000000006,0.010995434305535848,-0.001798171503852552
1.0000000000000007,0.013847911471669548,-0.0010024676696149689
1.2009999999999785,0.01442249213918642,-0.002900451443178269
1.4009999999999565,0.016609123699951413,-0.000969264586705394
1.6009999999999345,0.0207446507244483,-0.001836086973058677
1.8009999999999124,0.02541331439486401,-0.0029017394099481943
2.0009999999998906,0.030277566869286947,-0.00034011791874158506
2.2009999999998686,0.034172246028013734,-0.0022566261058650904
2.4009999999998466,0.03544059347488306,-0.0020153539624770825
2.6009999999998246,0.04254211997204438,-0.003849343588622698
2.8009999999998025,0.05294116355719717,-0.002432889195862418
3.0009999999997805,0.05837801502952241,-0.0052704317670963655
3.2009999999997585,0.06926434895764771,0.0021049389475511823
3.4009999999997365,0.07909593827359035,0.00241424546805178
3.6009999999997144,0.08560594592249955,0.0022175318718599497
3.8009999999996924,0.09348099104907401,0.002369096972558115
4.000999999999671,0.09973049073356755,0.00024388340339052476
4.200999999999738,0.10659321781310042,-0.0025451649136254595
4.400999999999804,0.11310351720706965,-0.0036582594631502726
4.600999999999871,0.12126806505267573,-0.0032210237171758456
4.800999999999938,0.12289792306372184,-0.006176350259252309
5.000000000000004,0.13327236379703902,-0.005656663714142592
5.200000000000071,0.14059476944958013,-0.007284441643028298
5.400000000000138,0.15049347846863098,-0.004425527207412038
5.600000000000205,0.161346491966911,-0.004630343104904405
5.800000000000272,0.17450193007213485,-0.0026459343974124987
6.000000000000338,0.1860394905592129,-0.00567903241334552
6.200000000000405,0.1928713622008286,-0.008827772373113245
6.400000000000472,0.20157176956442016,-0.010491002282953127
6.600000000000539,0.21593735900030803,-0.014034660729508493
6.800000000000606,0.2243674355204165,-0.022895267406570535
7.000000000000672,0.22859881474451266,-0.026339349438740514
7.200000000000739,0.2423380319498423,-0.026177952091031433
7.400000000000806,0.2523162475472291,-0.02547306213649025
7.600000000000873,0.2653092004466971,-0.02695702988649108
7.8000000000009395,0.2770924274252834,-0.03184320518087535
8.000000000001005,0.28692326039050536,-0.03880486173597404
8.200000000000895,0.29691779788658057,-0.04337042225368493
8.400000000000784,0.3076071298783705,-0.0435271976650299
8.600000000000673,0.3169837703361326,-0.047898963438279735
8.800000000000562,0.3315823758751427,-0.05182787124428081
9.000000000000451,0.3423476698419257,-0.0576311273004209
9.20000000000034,0.3492946088974597,-0.0627973583337686
9.40000000000023,0.35805662726819976,-0.06624710701390915
9.600000000000119,0.3654117873371338,-0.07199530619256217
9.800000000000008,0.38204757919109794,-0.07904762028446942
10.000999999999896,0.3956768131496413,-0.09025650424270465
10.200999999999786,0.4098402972536103,-0.09445613408103602
10.400999999999675,0.4258124214688278,-0.1023444001809164
10.600999999999564,0.43601971658262545,-0.10714151413839164
10.800999999999453,0.4416649630067094,-0.11465625222996423
11.000999999999342,0.4551094311323509,-0.12012835121371607
11.200999999999231,0.4650526715512021,-0.12497917044536674
11.40099999999912,0.4843347544420854,-0.13302039399214408
11.60099999999901,0.4991637421193511,-0.14013509487227885
11.800999999998899,0.5166440930011522,-0.14596899371130878
12.000999999998788,0.533813840728998,-0.15040187272231
12.200999999998677,0.5507748807878445,-0.1565884496911415
12.400999999998566,0.5626775063541395,-0.15578361138775992
12.600999999998455,0.5751545415890551,-0.15546382770506872
12.800999999998345,0.5926007685481384,-0.15569257020807756
13.000999999998234,0.6046918572908058,-0.15641256446303373
13.200999999998123,0.6181674402244759,-0.1602022696684495
13.400999999998012,0.6308690497566121,-0.1613609860891041
13.600999999997901,0.6408338293520165,-0.15918509408375855
13.80099999999779,0.6516847843928489,-0.15971320302771877
14.00099999999768,0.662926567468099,-0.16221408754713648
14.200999999997569,0.6738319643306079,-0.16510644338875266
14.400999999997458,0.6894679336297219,-0.1713768099852186
14.600999999997347,0.7007672587929199,-0.17610647923692552
14.800999999997236,0.7132299575755798,-0.1802896515070188
15.000999999997125,0.7214567542460075,-0.18510313785496968
15.200999999997014,0.7328916923529115,-0.18963633224674642
15.400999999996904,0.7423655377811808,-0.1939117989333029
15.600999999996793,0.7538962294734614,-0.19907725383330185
15.800999999996682,0.7655157148272687,-0.20423652280045923
16.000999999996573,0.7738080636821351,-0.20943863317514294
16.200999999996817,0.783433739130564,-0.21410523693164119
16.40099999999706,0.7946012702203202,-0.21921580754964543
16.600999999997306,0.8035326753494829,-0.22785393195308118
16.80099999999755,0.8213098089653673,-0.2348898044000882
17.000999999997795,0.8385278779803281,-0.24208960111414157
17.20099999999804,0.8459606269153845,-0.24904027339157903
17.400999999998284,0.8600444139392358,-0.24960405939512884
17.60099999999853,0.8661882931631534,-0.2509147814198705
17.800999999998773,0.8703847988877276,-0.2577782582660912
18.000999999999017,0.8780109046662659,-0.26156123409831206
18.20099999999926,0.8868703899583066,-0.26311742753125456
18.400999999999506,0.898486173214395,-0.2704417155546271
18.60099999999975,0.9088128092026223,-0.27602076539647397
18.799999999999994,0.9180711912950383,-0.2788433572509929
19.000000000000238,0.9313156727335478,-0.2866167337221514
19.200000000000482,0.940936220571513,-0.2937973807991941
19.400000000000727,0.9555114368639169,-0.3015653300114012
19.60000000000097,0.9674977370772975,-0.31016288550493204
19.800000000001216,0.9792662984751623,-0.31428608969140986
20.00000000000146,0.9899943744495652,-0.32310596712831013
