Time (s),X (m),Y (m)
0.001,0.0012512490639692614,0.0
0.20000000000000015,-0.0007681166806072144,0.00020271429858547386
0.4000000000000003,0.006360455467022965,0.0004918300431889931
0.6000000000000004,0.0043204923006771615,0.00200496182013675
0.8000000000000006,0.00823888573507194,0.003223201612665321
1.0000000000000007,0.013849134218317913,0.0036834273208196243
1.2009999999999785,0.021039464853006996,0.0029279506497950276
1.4009999999999565,0.01656674644444044,-0.0009313677903273322
1.6009999999999345,0.010566919511915919,-0.0023259642545823663
1.8009999999999124,0.0120642080947121,-0.009126598895351652
2.0009999999998906,0.02857827290306491,-0.012191031754630474
2.2009999999998686,0.046159447541881664,-0.016736112957359165
2.4009999999998466,0.06416935333767991,-0.020988014761277086
2.6009999999998246,0.09176210569088879,-0.026936091418268797
2.8009999999998025,0.11531913986936795,-0.03709891228903691
3.0009999999997805,0.1315714492837656,-0.04710878997492257
3.2009999999997585,0.15659040089252443,-0.059494836804686396
3.4009999999997365,0.17664887239189572,-0.06889129790446974
3.6009999999997144,0.1979218823296717,-0.07445028987141389
3.8009999999996924,0.22087358797858464,-0.08388515880124439
4.000999999999671,0.23722045195113003,-0.09697693571380248
4.200999999999738,0.2599904624418245,-0.10998947820112395
4.400999999999804,0.284957033860842,-0.12525799234440493
4.600999999999871,0.3070209946337414,-0.1346312337569925
4.800999999999938,0.32347831240845976,-0.1432095785637188
5.000000000000004,0.3492837987238508,-0.16335432585685855
5.200000000000071,0.37428347486384195,-0.187477212933724
5.400000000000138,0.3965408648505343,-0.195139715377257
5.600000000000205,0.4133047728672099,-0.20259257663213767
5.800000000000272,0.43852876622803694,-0.2147955726707607
6.000000000000338,0.4570361803937667,-0.22451983915740334
6.200000000000405,0.47914855552491425,-0.23166999277136213
6.400000000000472,0.5080496299725239,-0.2362803967148284
6.600000000000539,0.5396814512572644,-0.2508260070428684
6.800000000000606,0.5620545745958929,-0.25992496869476484
7.000000000000672,0.5908785873301566,-0.269840800434285
7.200000000000739,0.6253655286165202,-0.27895644621203053
7.400000000000806,0.6537841966478976,-0.2934629378226738
7.600000000000873,0.6810069642564449,-0.30764479985594384
7.8000000000009395,0.7061084633933984,-0.31777181343658595
8.000000000001005,0.7419146549012583,-0.33571157693608555
8.200000000000895,0.7694050080976166,-0.34619652253462535
8.400000000000784,0.8006176864864519,-0.36450696988926934
8.600000000000673,0.8341500314876588,-0.38866903144686266
8.800000000000562,0.8679667086547033,-0.4201189795927888
9.000000000000451,0.9045051558950994,-0.4482655305001989
9.20000000000034,0.9234189437144172,-0.46476131489247685
9.40000000000023,0.9446812297298425,-0.4838521727266301
9.600000000000119,0.9762513409773134,-0.5089647135629196
9.800000000000008,1.0062509626255367,-0.5325667432986884
10.000999999999896,1.0377804879718986,-0.5534385094056616
10.200999999999786,1.0733275461818885,-0.5819814217590503
10.400999999999675,1.1075329028315886,-0.6099325468055484
10.600999999999564,1.1426427509621138,-0.6309660378742288
10.800999999999453,1.172722125320946,-0.6487555114175283
11.000999999999342,1.2000441621307336,-0.6592625914294157
11.200999999999231,1.2175792513856762,-0.6674900869251799
11.40099999999912,1.2424530084271226,-0.6776035887244132
11.60099999999901,1.259543507728502,-0.6849488806971654
11.800999999998899,1.2858849155099141,-0.7009200673050843
12.000999999998788,1.315354710792009,-0.7185930776444303
12.200999999998677,1.3432183750425704,-0.7309966452005662
12.400999999998566,1.3625164759582544,-0.7387842141222918
12.600999999998455,1.3919293911377304,-0.7523670515368679
12.800999999998345,1.4302961230255509,-0.772384672186558
13.000999999998234,1.4653931281940238,-0.7943035481155625
13.200999999998123,1.503288926218996,-0.8179343683568034
13.400999999998012,1.537669821586971,-0.8412364176780529
13.600999999997901,1.5635485408197336,-0.8619372993060852
13.80099999999779,1.5789566644118358,-0.873979517403634
14.00099999999768,1.6004258939713123,-0.886181024703069
14.200999999997569,1.6267050277936774,-0.9042981976504005
14.400999999997458,1.64617919516074,-0.9121869610784943
14.600999999997347,1.6678658146393477,-0.9177717520627805
14.800999999997236,1.6885352896889028,-0.9317988408270709
15.000999999997125,1.727517029911674,-0.9597222065045189
15.200999999997014,1.762861923484558,-0.9818141771128355
15.400999999996904,1.7901343108257175,-1.002207803356906
15.600999999996793,1.8216527914283058,-1.0254214327357287
15.800999999996682,1.8530283568564296,-1.0402483429961176
16.000999999996573,1.8892789319082768,-1.0607081943840657
16.200999999996817,1.9190443008555265,-1.0782521612548985
16.40099999999706,1.9493186029778,-1.099331119788082
16.600999999997306,1.979599775746682,-1.1253713569250727
16.80099999999755,2.0129981221686175,-1.1514624043768884
17.000999999997795,2.0491534121020623,-1.1765726833997519
17.20099999999804,2.089297731183031,-1.2046963063674534
17.400999999998284,2.123972370694592,-1.227700862881981
17.60099999999853,2.149787883374224,-1.2528900771229996
17.800999999998773,2.1701278282451493,-1.2726497225437217
18.000999999999017,2.19433025833446,-1.2957761558304257
18.20099999999926,2.2177938678212237,-1.3142573356932932
18.400999999999506,2.2347647672416047,-1.3316108618121154
18.60099999999975,2.253192134648524,-1.3489144672796611
18.799999999999994,2.275266871848863,-1.3674485528234601
19.000000000000238,2.2992063189128724,-1.3920137338461376
19.200000000000482,2.3220410377694667,-1.4101547499573683
19.400000000000727,2.349387508518503,-1.4295511426862808
19.60000000000097,2.37181276633843,-1.4537874970552862
19.800000000001216,2.39048385797301,-1.4735920140725118
20.00000000000146,2.404066182755786,-1.5079690822552638
