Time (s),X (m),Y (m)
0.001,-0.000811087514270633,3.327365771613117e-19
0.20000000000000015,0.005584387552489519,-0.00046019344908955186
0.4000000000000003,0.006847817223466884,0.0019939954110775966
0.6000000000000004,0.018418368579490044,0.0005532698158749142
0.8000000000000006,0.029760603337921066,0.0027357760432270414
1.0000000000000007,0.03506830074104527,-0.0019022940725439343
1.2009999999999785,0.04064744696636659,0.00023832662023940432
1.4009999999999565,0.05507576698179166,-0.004132525538801581
1.6009999999999345,0.07461606611573748,-0.006342890398043735
1.8009999999999124,0.08230480148080034,-0.010648990967543025
2.0009999999998906,0.09672467318534314,-0.009651944196187617
2.2009999999998686,0.10461996849371938,-0.01524054491022036
2.4009999999998466,0.11528430359370834,-0.015513514594641774
2.6009999999998246,0.12720989087380974,-0.01955946072546709
2.8009999999998025,0.14057314456256514,-0.029558134779706317
3.0009999999997805,0.15572569992297336,-0.03752529183010917
3.2009999999997585,0.17131676636737844,-0.04360893578745994
3.4009999999997365,0.1831196665008171,-0.0463915950234828
3.6009999999997144,0.20618852833808884,-0.04911478695150589
3.8009999999996924,0.2269618195287289,-0.0547356582377971
4.000999999999671,0.23874071637236385,-0.060202134125258794
4.200999999999738,0.2536962559086919,-0.07036739916328594
4.400999999999804,0.2831379766515708,-0.08226963006220833
4.600999999999871,0.31691891715312526,-0.10196413813299825
4.800999999999938,0.34240297865176106,-0.11513582837948211
5.000000000000004,0.36802802789262223,-0.12782240485524582
5.200000000000071,0.39021270962231,-0.1362161324193165
5.400000000000138,0.4153521090133954,-0.1551444071624785
5.600000000000205,0.44410640347872243,-0.17727953378961026
5.800000000000272,0.47732295469932107,-0.20010210370000306
6.000000000000338,0.5164820075975273,-0.2254880635704077
6.200000000000405,0.5521795606925074,-0.2552734759704793
6.400000000000472,0.5817745119019787,-0.28349897508656374
6.600000000000539,0.6040544567273006,-0.3073011633235823
6.800000000000606,0.6364824462696947,-0.33160132564592243
7.000000000000672,0.666282978205209,-0.3446257845054065
7.200000000000739,0.692869926209142,-0.3548453601719938
7.400000000000806,0.7275783209448101,-0.36570442465725106
7.600000000000873,0.7650533262896635,-0.37662104792567425
7.8000000000009395,0.8033349212980632,-0.39390760049687956
8.000000000001005,0.839868890449285,-0.4129950189543983
8.200000000000895,0.8687961812900657,-0.4317370474343326
8.400000000000784,0.8910450432623955,-0.4419069692164199
8.600000000000673,0.9055201745325121,-0.4543044837112362
8.800000000000562,0.9246408274123645,-0.4674314547014042
9.000000000000451,0.9548439916074092,-0.482023790038523
9.20000000000034,0.9858909874008859,-0.49604424624835824
9.40000000000023,1.0112215487557403,-0.5146225982977123
9.600000000000119,1.0438059380390385,-0.5370275945313397
9.800000000000008,1.0688873392817853,-0.5575535307851428
10.000999999999896,1.0945305234130356,-0.5738371200266905
10.200999999999786,1.1208743372911052,-0.5963287856110893
10.400999999999675,1.1467737555173552,-0.6135860943200375
10.600999999999564,1.1795616731856677,-0.6289385857032443
10.800999999999453,1.204194997237121,-0.6448671620522176
11.000999999999342,1.2444412847507138,-0.6656747611409423
11.200999999999231,1.2927327225915768,-0.6922655447921172
11.40099999999912,1.3236464488672242,-0.7105930968304728
11.60099999999901,1.357828382900282,-0.7328823844883188
11.800999999998899,1.390473276452141,-0.756267336126308
12.000999999998788,1.4213966718190039,-0.774077069954853
12.200999999998677,1.4528960274273657,-0.7901959933984407
12.400999999998566,1.492255400273218,-0.8094562544861007
12.600999999998455,1.5271054696952509,-0.8264656031964527
12.800999999998345,1.556033027687872,-0.8384609505152355
13.000999999998234,1.5815018730855241,-0.8563590812071136
13.200999999998123,1.6154473191668528,-0.8820661850390509
13.400999999998012,1.6509935437342573,-0.91220180890098
13.600999999997901,1.6843535980297908,-0.9368594820916548
13.80099999999779,1.709195871085929,-0.9541241014946398
14.00099999999768,1.741933387865888,-0.9722640516440264
14.200999999997569,1.7675859821934823,-0.9874591117479713
14.400999999997458,1.8038929264134154,-0.998809139780603
14.600999999997347,1.8355261642043874,-1.0105603205115818
14.800999999997236,1.8827735057229764,-1.0350661587109684
15.000999999997125,1.9201131786535597,-1.059654162588177
15.200999999997014,1.9547844961654455,-1.0854344704846832
15.400999999996904,1.9816055760979465,-1.104111113924686
15.600999999996793,1.9999496965778505,-1.1159179583507681
15.800999999996682,2.0237743097698813,-1.1307631278738859
16.000999999996573,2.0492818084693627,-1.1429596883605526
16.200999999996817,2.088245229639528,-1.1617236588291493
16.40099999999706,2.115524914771952,-1.1771553568444182
16.600999999997306,2.145394219153092,-1.1962010418918343
16.80099999999755,2.1951167723503993,-1.2299634611461465
17.000999999997795,2.231255151522212,-1.259357495121367
17.20099999999804,2.269420486771968,-1.2897291675081284
17.400999999998284,2.3123338098645716,-1.3254092160851363
17.60099999999853,2.355256071396887,-1.3644423173254507
17.800999999998773,2.3867036807532664,-1.40213869434988
18.000999999999017,2.4142323699769217,-1.4404692581242349
18.20099999999926,2.424097425111386,-1.4703667953324735
18.400999999999506,2.423103790356807,-1.4997762512037804
18.60099999999975,2.412000806807887,-1.5352670089628189
18.799999999999994,2.3929775469940004,-1.5721276359233798
19.000000000000238,2.3732643431880494,-1.615763011751851
19.200000000000482,2.3585098601284926,-1.654858880911661
19.400000000000727,2.3444482757865104,-1.6859679188532035
19.60000000000097,2.3299497520424617,-1.7139164700539709
19.800000000001216,2.3164504474993057,-1.742110923921684
20.00000000000146,2.3034512143508845,-1.7674487487265638
