Time (s),X (m),Y (m)
0.001,0.0005727611008870025,-0.0009689812320744441
0.20000000000000015,0.000675287414320829,0.0031803269443423025
0.4000000000000003,0.007011977433608335,-0.008250570181744169
0.6000000000000004,0.014981744119787168,-0.012492473388975998
0.8000000000000006,0.031132557592585736,-0.011800050314646352
1.0000000000000007,0.043668789302071034,0.009309206499305542
1.2009999999999785,0.06352512261389484,0.012993026521007669
1.4009999999999565,0.08283791343469887,0.006369846787758851
1.6009999999999345,0.10488848500837053,0.007372849622285231
1.8009999999999124,0.12240867498303991,0.005615445878653359
2.0009999999998906,0.1393235023794519,0.00935012910836986
2.2009999999998686,0.1584894085332894,0.0024357327166919136
2.4009999999998466,0.17219799014825343,-0.012770979083782961
2.6009999999998246,0.18440731880308858,-0.0303428873239864
2.8009999999998025,0.1987022424981737,-0.044794419856613796
3.0009999999997805,0.21783681032661328,-0.06283840721588242
3.2009999999997585,0.23568319331449877,-0.07553454615641761
3.4009999999997365,0.2576222227080744,-0.08543097920916086
3.6009999999997144,0.28164979950636865,-0.09845087355642089
3.8009999999996924,0.29618606261160246,-0.11683281372317231
4.000999999999671,0.31319993091478443,-0.12836319272767582
4.200999999999738,0.3324121243211675,-0.13603407081313634
4.400999999999804,0.3570505000953558,-0.14320231952429086
4.600999999999871,0.37711764502606054,-0.1604501910318304
4.800999999999938,0.40065074227747444,-0.1704024399428361
5.000000000000004,0.425054954559674,-0.18857246789677456
5.200000000000071,0.44360870334053837,-0.2188580775505676
5.400000000000138,0.454128952344783,-0.25749740021748857
5.600000000000205,0.4679965189275928,-0.27800688922412525
5.800000000000272,0.4820935807880884,-0.3055367137715039
6.000000000000338,0.4997487657116017,-0.3231702807784841
6.200000000000405,0.5102866497179588,-0.34559840786551443
6.400000000000472,0.5163810514201362,-0.375660273034272
6.600000000000539,0.5338617416626078,-0.40359767185219664
6.800000000000606,0.5559666258825624,-0.43158271869444886
7.000000000000672,0.5664007105457619,-0.46420738713696985
7.200000000000739,0.5829234401795824,-0.48479603456813203
7.400000000000806,0.6059361956731684,-0.5107098218608723
7.600000000000873,0.6329880505856118,-0.5243378835556245
7.8000000000009395,0.6603184080891704,-0.5436327973545696
8.000000000001005,0.6737494595807081,-0.5753761353858744
8.200000000000895,0.6920975993403691,-0.5805034199377014
8.400000000000784,0.7152480018984355,-0.5849462289910474
8.600000000000673,0.7390891759848197,-0.6094389444315276
8.800000000000562,0.7613019383309393,-0.6412754513216267
9.000000000000451,0.7824514765632529,-0.6723221376580756
9.20000000000034,0.7919190121675079,-0.7078020471260078
9.40000000000023,0.8071407812257331,-0.739857273669907
9.600000000000119,0.8191469517704006,-0.7654436362963033
9.800000000000008,0.8331140833664389,-0.7931827222524176
10.000999999999896,0.8473490214808331,-0.8189650992424155
10.200999999999786,0.8608148172887476,-0.8519681215292637
10.400999999999675,0.8869364344590305,-0.8796268776191352
10.600999999999564,0.9101895843801239,-0.9040899843842514
10.800999999999453,0.9355789007681382,-0.9191068473895416
11.000999999999342,0.9619191096522032,-0.935188032539756
11.200999999999231,0.9874940661498903,-0.9584990785808766
11.40099999999912,1.017298280379275,-0.9779473804955121
11.60099999999901,1.0503788619479066,-0.9973263903686862
11.800999999998899,1.0728453797741133,-1.020551314378573
12.000999999998788,1.1020438569559292,-1.0367516420817475
12.200999999998677,1.1205137838272796,-1.0605152946082443
12.400999999998566,1.1272976057333925,-1.0914533994297342
12.600999999998455,1.1241484579485945,-1.1260494227811337
12.800999999998345,1.1307844170718933,-1.165214858629253
13.000999999998234,1.1303677144041453,-1.199983209999504
13.200999999998123,1.1211021374472585,-1.2324437671117667
13.400999999998012,1.0997736011526331,-1.2659445790103316
13.600999999997901,1.0846066896745967,-1.3036638360262474
13.80099999999779,1.0703991539517295,-1.3245494087175742
14.00099999999768,1.0624917128372746,-1.3438092655555474
14.200999999997569,1.05273448159519,-1.363052241666511
14.400999999997458,1.0248961275730637,-1.381784419482407
14.600999999997347,1.003345948864006,-1.406348069863055
14.800999999997236,0.9857037269995446,-1.4361311438671855
15.000999999997125,0.9680631497459676,-1.4652600366529698
15.200999999997014,0.9406786407685253,-1.4916646226283294
15.400999999996904,0.9101109336025812,-1.5096568659450376
15.600999999996793,0.8831156193541225,-1.5304975122188536
15.800999999996682,0.8628482417680143,-1.5482667979926108
16.000999999996573,0.8461900853259261,-1.5738434869764952
16.200999999996817,0.8305438122122297,-1.5946637058282878
16.40099999999706,0.8126494572377478,-1.62040657372445
16.600999999997306,0.7843144200800137,-1.6487778433892777
16.80099999999755,0.7651202096151134,-1.674174573379875
17.000999999997795,0.7523314401871011,-1.707946599024489
17.20099999999804,0.725221570093531,-1.7322216057734323
17.400999999998284,0.6957406612205093,-1.7429262028266288
17.60099999999853,0.6806022600370816,-1.7668460751550394
17.800999999998773,0.6583777497928703,-1.801041844098846
18.000999999999017,0.631660519990605,-1.829073560352549
18.20099999999926,0.6049441414510577,-1.8469136214291464
18.400999999999506,0.5844776266372628,-1.865469293840071
18.60099999999975,0.5643467562105907,-1.8922424575344297
18.799999999999994,0.5495076756971867,-1.9178190524041403
19.000000000000238,0.5299962759542168,-1.9375200833294868
19.200000000000482,0.4967519148858415,-1.9551221113702504
19.400000000000727,0.4664342441576969,-1.9675343616375633
19.60000000000097,0.4288022845168679,-1.9786789211873843
19.800000000001216,0.3954248230797007,-1.9976137568527728
20.00000000000146,0.364029691426672,-2.0234094513959238
