Time (s),X (m),Y (m)
0.001,0.0010647643868879006,-0.0005914538325516239
0.20000000000000015,0.001197890140049864,0.0008057608297715779
0.4000000000000003,0.0113835945093761,0.006876393622745563
0.6000000000000004,0.03959870791602821,0.0013444484286929603
0.8000000000000006,0.08426011652727397,-0.009245913191612148
1.0000000000000007,0.12700354143407466,-0.01763909873978387
1.2009999999999785,0.1676375509717324,-0.02567345716101753
1.4009999999999565,0.20805568586540277,-0.035676672648581244
1.6009999999999345,0.24626132843461662,-0.048607952494767535
1.8009999999999124,0.2788679477219322,-0.05602749331661913
2.0009999999998906,0.30189038363483706,-0.08988652842876736
2.2009999999998686,0.3119699241478042,-0.1286023900851852
2.4009999999998466,0.31362320991866877,-0.1744801579897533
2.6009999999998246,0.30772295241177455,-0.22012050126180488
2.8009999999998025,0.2943582480272551,-0.26105186106516204
3.0009999999997805,0.2758668801527281,-0.2831098394575328
3.2009999999997585,0.2567921331244367,-0.2819735311385901
3.4009999999997365,0.24062578615053237,-0.24971439449920074
3.6009999999997144,0.2293936687900514,-0.21038754319475753
3.8009999999996924,0.22716403847210365,-0.16509562303258593
4.000999999999671,0.21939110582808605,-0.1231743038047846
4.200999999999738,0.2213659062881914,-0.08643936870382746
4.400999999999804,0.24299723107373775,-0.061368088258517556
4.600999999999871,0.2664546330532365,-0.04119831990517577
4.800999999999938,0.2970138319954993,-0.036528316751552
5.000000000000004,0.3301069024180437,-0.043560479396279266
5.200000000000071,0.3621269946223117,-0.08679314487708037
5.400000000000138,0.38121233384321346,-0.15075457631036973
5.600000000000205,0.38433764306051993,-0.20919132503681181
5.800000000000272,0.3705456903860538,-0.27083239309323615
6.000000000000338,0.35389295038131274,-0.32812196465270554
6.200000000000405,0.3190693353970056,-0.37615624706422734
6.400000000000472,0.266083423685479,-0.40150590337444436
6.600000000000539,0.20227238411490966,-0.4014404573902713
6.800000000000606,0.13635705893077968,-0.39147429519797927
7.000000000000672,0.07447305003175325,-0.37189570257791493
7.200000000000739,0.026077863410337587,-0.33890306461428243
7.400000000000806,-0.0012268235635190048,-0.28531119933988414
7.600000000000873,-0.012534572597854872,-0.21979433065607054
7.8000000000009395,-0.01315369051055553,-0.15949781795629842
8.000000000001005,-0.023993815648342957,-0.1123949940598676
8.200000000000895,-0.026636639439101335,-0.058110875320649714
8.400000000000784,-0.023028781906054233,-0.0016318138880637508
8.600000000000673,0.0010262358773069013,0.06057675904216002
8.800000000000562,0.03250155618075431,0.12537397325922042
9.000000000000451,0.07210357270002907,0.18215878850172665
9.20000000000034,0.12991360686450765,0.20820930748144728
9.40000000000023,0.18715420256439086,0.20927920591003504
9.600000000000119,0.23971101157859662,0.200193705040038
9.800000000000008,0.2830692573376853,0.17101930922973405
10.000999999999896,0.3147605220067196,0.13053567787622314
10.200999999999786,0.33478442583409523,0.08483719582456331
10.400999999999675,0.3488092969554822,0.037817663942820344
10.600999999999564,0.3474016905907317,-0.01400993773530032
10.800999999999453,0.31661999320534134,-0.05703571333279339
11.000999999999342,0.2714703860116415,-0.08409628301503538
11.200999999999231,0.220361884499434,-0.08665249192168106
11.40099999999912,0.1754336820027817,-0.06559584109255615
11.60099999999901,0.14756724809604704,-0.034324486775280966
11.800999999998899,0.13542258656588133,0.009529648172851048
12.000999999998788,0.12292827293895751,0.05187333612422875
12.200999999998677,0.11981495823600026,0.10189045154810081
12.400999999998566,0.1407050715687329,0.15533225145627755
12.600999999998455,0.18733243006584446,0.1985211874441683
12.800999999998345,0.2435081426358996,0.22492762269640068
13.000999999998234,0.303862156938109,0.2349176660592343
13.200999999998123,0.36391809501710903,0.22274883340585427
13.400999999998012,0.40765260075822973,0.18914563471329246
13.600999999997901,0.4297419681180279,0.14716175892477462
13.80099999999779,0.429126357264197,0.10016167665371438
14.00099999999768,0.4220532443379108,0.048651812633753365
14.200999999997569,0.3985134871525197,-0.0030062715166363735
14.400999999997458,0.35767552725845075,-0.04137516655075083
14.600999999997347,0.2952577241098792,-0.061153141843617864
14.800999999997236,0.22256295802538395,-0.0657343406227529
15.000999999997125,0.14566252217250034,-0.05803293898971652
15.200999999997014,0.07436313766877636,-0.05085200961423926
15.400999999996904,0.008465434159213902,-0.025258754784429852
15.600999999996793,-0.03398291778376603,0.016599046165649552
15.800999999996682,-0.056508079934798006,0.06916459935523885
16.000999999996573,-0.06279601346102341,0.12462782485656672
16.200999999996817,-0.042966439245352483,0.18738999707490378
16.40099999999706,-0.00965820859861202,0.26228768087857096
16.600999999997306,0.036255152033947496,0.3405843569183179
16.80099999999755,0.08741406230543132,0.402411273841345
17.000999999997795,0.1524680394003667,0.43835505104110073
17.20099999999804,0.2319864498553242,0.4502332241351957
17.400999999998284,0.31510676223859996,0.44698757131019223
17.60099999999853,0.39049447478345367,0.42449380277497106
17.800999999998773,0.4556775283464033,0.3730071802156753
18.000999999999017,0.4860947472249594,0.3158362094918768
18.20099999999926,0.4883627206006333,0.26467278018861096
18.400999999999506,0.46493484864389234,0.24223780258478408
18.60099999999975,0.42209158965071714,0.24418151627978885
18.799999999999994,0.3647420216041551,0.25601135825533566
19.000000000000238,0.30459739316172196,0.2725351294668788
19.200000000000482,0.24637084070142476,0.28466926159170086
19.400000000000727,0.18937676004155063,0.3283830421078346
19.60000000000097,0.14911919656129924,0.3908948728017295
19.800000000001216,0.13051217685488312,0.45888166269366804
20.00000000000146,0.12246260802270031,0.5306390302033991
