Time (s),X (m),Y (m)
0.001,0.0011546366250239817,-0.00043579054991000363
0.20000000000000015,-5.67118022296772e-05,-0.00021332426744904341
0.4000000000000003,-9.367050018787475e-05,0.006128320984804696
0.6000000000000004,0.015548970143480889,0.006991813771661012
0.8000000000000006,0.031923726573073644,0.006368021846024188
1.0000000000000007,0.0572493351440236,0.002111541920217316
1.2009999999999785,0.08644228234260834,-0.010504461686529673
1.4009999999999565,0.1144824224631686,-0.02619999463303805
1.6009999999999345,0.14553977485347197,-0.044590232936809575
1.8009999999999124,0.1764272703078601,-0.06493443195150889
2.0009999999998906,0.20123171513753646,-0.07746265325964208
2.2009999999998686,0.19968809464868517,-0.10017854972590137
2.4009999999998466,0.18891461404666826,-0.12346738988479752
2.6009999999998246,0.18536223809896962,-0.14135584517245361
2.8009999999998025,0.17660014957652095,-0.15154371654944798
3.0009999999997805,0.1629752004996592,-0.16108427141195977
3.2009999999997585,0.14391253670134435,-0.16874806289759767
3.4009999999997365,0.11909913163498868,-0.17425875888026907
3.6009999999997144,0.0825593528726176,-0.16840425722108804
3.8009999999996924,0.03318398717156312,-0.15746256720339594
4.000999999999671,-0.01869842020690977,-0.144200332178048
4.200999999999738,-0.05861780504790357,-0.12848526572281246
4.400999999999804,-0.10286309176635479,-0.11706904813732244
4.600999999999871,-0.14614317109911884,-0.10692216139555819
4.800999999999938,-0.1921646880457145,-0.09597589528792887
5.000000000000004,-0.24116583081178522,-0.07923808896668703
5.200000000000071,-0.28875014137844784,-0.05197779069645536
5.400000000000138,-0.3329835669183509,-0.015000900033976606
5.600000000000205,-0.36256922948357817,0.024018920255254317
5.800000000000272,-0.36639071500994513,0.07522133218012753
6.000000000000338,-0.3389655523178111,0.12696759996978904
6.200000000000405,-0.3020909823049458,0.16519729046230464
6.400000000000472,-0.25768772197749334,0.1783618089235006
6.600000000000539,-0.21019061560720048,0.17111423370462076
6.800000000000606,-0.15809682347370618,0.14935339137726392
7.000000000000672,-0.1076441458859453,0.12512009021053852
7.200000000000739,-0.05104952410645492,0.1052505221117396
7.400000000000806,0.005046545443886819,0.08123877441910413
7.600000000000873,0.05774721301466183,0.051834207743492594
7.8000000000009395,0.1001558079994966,0.0017629790505539233
8.000000000001005,0.12124015397457787,-0.0598154298651739
8.200000000000895,0.11340143975612314,-0.11009297590746027
8.400000000000784,0.09054918864662638,-0.1639638241551745
8.600000000000673,0.07131919440574139,-0.21491215293598637
8.800000000000562,0.05894387519287188,-0.2600922429554394
9.000000000000451,0.03460563642100938,-0.30902764560637846
9.20000000000034,-0.007376768096770876,-0.35237602279813657
9.40000000000023,-0.049828188908506627,-0.38048748341214705
9.600000000000119,-0.09292944657689056,-0.3903777959765251
9.800000000000008,-0.1366478702614591,-0.38550375516736024
10.000999999999896,-0.18444394518900448,-0.364548926405395
10.200999999999786,-0.2229819467578858,-0.33007576988653836
10.400999999999675,-0.24319233461453937,-0.29161519593762575
10.600999999999564,-0.24422096378388905,-0.2430283919776069
10.800999999999453,-0.23243593830876244,-0.17960411649602676
11.000999999999342,-0.2105300370401491,-0.11116177098152778
11.200999999999231,-0.18202019259772417,-0.045407385531188865
11.40099999999912,-0.15816547597371183,0.013403799914561127
11.60099999999901,-0.1309836197696238,0.0705755410942422
11.800999999998899,-0.09211058689414023,0.1224598667433659
12.000999999998788,-0.04055261627462064,0.1501018227573727
12.200999999998677,0.013626343171262621,0.15036768773567985
12.400999999998566,0.06864005946338361,0.1398286232777957
12.600999999998455,0.12564536112568261,0.11697472483438555
12.800999999998345,0.18600566926390172,0.08093684357406229
13.000999999998234,0.2475864134781147,0.05552765015668018
13.200999999998123,0.3043238721876478,0.02722847989502221
13.400999999998012,0.3391796409947989,-0.03026548844583448
13.600999999997901,0.35269929033753333,-0.09226250837697808
13.80099999999779,0.34969698334848226,-0.15674816376307885
14.00099999999768,0.3299150013611992,-0.22642244965148134
14.200999999997569,0.30260763950066827,-0.29598903617203853
14.400999999997458,0.2617371333989977,-0.35925041035581784
14.600999999997347,0.21221248722163485,-0.403937049888304
14.800999999997236,0.17487508086586045,-0.4244184698133505
15.000999999997125,0.13373115769047228,-0.431909463202462
15.200999999997014,0.08570299756664383,-0.43412192808864536
15.400999999996904,0.03626961127983182,-0.4346141973168122
15.600999999996793,-0.00833199311734308,-0.41697300526369624
15.800999999996682,-0.03295285790129365,-0.3628071068217903
16.000999999996573,-0.02384367002795551,-0.2879398674794974
16.200999999996817,0.0043940286973838906,-0.2153774184111893
16.40099999999706,0.053478294623950026,-0.1538885150887914
16.600999999997306,0.1138392560591369,-0.10648351386267951
16.80099999999755,0.16545490818836356,-0.08624903351059812
17.000999999997795,0.21571723418191896,-0.08824073645778484
17.20099999999804,0.267277961853681,-0.09875501914497654
17.400999999998284,0.31852809633124257,-0.10906577429479193
17.60099999999853,0.3640502917819119,-0.11658652977429741
17.800999999998773,0.4140021609879606,-0.13803062246458395
18.000999999999017,0.47135388241044945,-0.16937022208132638
18.20099999999926,0.5236928313000188,-0.20501396360548702
18.400999999999506,0.5720672450241486,-0.23842596028004273
18.60099999999975,0.6000798058254548,-0.28674926102774606
18.799999999999994,0.5958503750495076,-0.3449452564176367
19.000000000000238,0.580772407039736,-0.39932449343993187
19.200000000000482,0.5564244604437676,-0.45339545184825314
19.400000000000727,0.5366568475623457,-0.5088572077271186
19.60000000000097,0.4914050999871825,-0.5680999212995337
19.800000000001216,0.4377793012665732,-0.615609449754509
20.00000000000146,0.37287411283505106,-0.6403839414089022
