Time (s),X (m),Y (m)
0.001,0.0012355833006349724,0.00017906049427360518
0.20000000000000015,-0.0017970171257467183,-0.00025071373725384533
0.4000000000000003,-0.0007823728099791425,-0.000267606553888121
0.6000000000000004,0.002585444257207093,0.0005105844862480759
0.8000000000000006,0.006291613486797429,0.0006405372130795003
1.0000000000000007,0.011841060595626484,0.0019275567216429565
1.2009999999999785,0.01749691491136417,0.002156864474062217
1.4009999999999565,0.020810414673089115,0.0034042722113985556
1.6009999999999345,0.02411048784173672,0.004328657379691078
1.8009999999999124,0.028309606907572574,0.005267217216167497
2.0009999999998906,0.03240792218315398,0.0066536214098530866
2.2009999999998686,0.0375951126697867,0.008202832311905248
2.4009999999998466,0.04265804400463395,0.009812617659868364
2.6009999999998246,0.04769473268454037,0.011347226649227849
2.8009999999998025,0.05169609171934492,0.01256997958014021
3.0009999999997805,0.05532901824306867,0.014727340033252729
3.2009999999997585,0.0595196044112814,0.016223481792791445
3.4009999999997365,0.06529689328492586,0.01871420577510948
3.6009999999997144,0.06971912579001113,0.020926030451932857
3.8009999999996924,0.07438361428099692,0.023188743809485244
4.000999999999671,0.0789044951373241,0.02606554102241023
4.200999999999738,0.08339663279945878,0.02911925124265237
4.400999999999804,0.08745025416347073,0.031908598689260874
4.600999999999871,0.09299468106599443,0.0356257328062015
4.800999999999938,0.09783806571384863,0.03880985958551396
5.000000000000004,0.10252490901106649,0.041643526076333495
5.200000000000071,0.10662659819957356,0.04486813559396218
5.400000000000138,0.11004096511918708,0.04785004984186214
5.600000000000205,0.11377150835402285,0.05077494331417698
5.800000000000272,0.11897416878782929,0.05570681304987871
6.000000000000338,0.12305904203529389,0.05949309863143259
6.200000000000405,0.12795641014450407,0.06438663141181221
6.400000000000472,0.13194447201492618,0.0686063888473175
6.600000000000539,0.13558683888932954,0.0731642660319626
6.800000000000606,0.13850912129950202,0.07636737407971356
7.000000000000672,0.14070319377163767,0.08038725874984091
7.200000000000739,0.14330457474384134,0.08327952033625619
7.400000000000806,0.14621537340915297,0.08686490193999664
7.600000000000873,0.14770474932509114,0.09024399967709178
7.8000000000009395,0.1494292386369571,0.09320623709180301
8.000000000001005,0.15131390584013044,0.09703932579120925
8.200000000000895,0.1526376133024996,0.1008005326560728
8.400000000000784,0.15405644411749556,0.1033880894404052
8.600000000000673,0.15593301133221296,0.10610506247814777
8.800000000000562,0.15741783471495077,0.10883289634631176
9.000000000000451,0.15873978103951067,0.11258441357440807
9.20000000000034,0.1601121770907339,0.11628005587380649
9.40000000000023,0.1609707082795843,0.11907452430991511
9.600000000000119,0.1618265938039767,0.12191246821450998
9.800000000000008,0.16253070859537452,0.12453189054530474
10.000999999999896,0.16322316857333843,0.12755334088132522
10.200999999999786,0.16424251968065695,0.13114556274740408
10.400999999999675,0.16450951226933783,0.1342578593166713
10.600999999999564,0.1647205791367627,0.13726786113288067
10.800999999999453,0.16497159555121554,0.14041160652507115
11.000999999999342,0.16488892723532197,0.1432414702885394
11.200999999999231,0.1646155634459845,0.1459646131132706
11.40099999999912,0.1642663624068462,0.14908877479511806
11.60099999999901,0.1639369853270354,0.1531353749801844
11.800999999998899,0.16339497644656834,0.15635224060907865
12.000999999998788,0.16280561412950187,0.15919562086336508
12.200999999998677,0.1621391788907297,0.16292938736492035
12.400999999998566,0.1612610909359452,0.16544044987239492
12.600999999998455,0.16038789495271194,0.16842149087552735
12.800999999998345,0.15944954929418334,0.17127960123399236
13.000999999998234,0.1583598431114592,0.17374998810719117
13.200999999998123,0.15702975081238152,0.17765627758572872
13.400999999998012,0.15560556650470495,0.18034149455388
13.600999999997901,0.15443410072153083,0.18438658399046098
13.80099999999779,0.15260869972279736,0.18889422705215542
14.00099999999768,0.15101748286342923,0.1927199042621187
14.200999999997569,0.1492690051536309,0.19578965039874677
14.400999999997458,0.1475904430422971,0.19895093773862552
14.600999999997347,0.14584206853868634,0.20222499104077146
14.800999999997236,0.14370014192422595,0.2052641391007365
15.000999999997125,0.14138154137774075,0.2092193983796049
15.200999999997014,0.13963345373223313,0.21253253884675335
15.400999999996904,0.13713077255753398,0.2164951572483044
15.600999999996793,0.13460748024341856,0.21995024442771877
15.800999999996682,0.13216154946299383,0.22329762695535438
16.000999999996573,0.12993489823819507,0.22566899496571155
16.200999999996817,0.12729076960359983,0.22934682962232572
16.40099999999706,0.12417454738115086,0.23254714743206303
16.600999999997306,0.12118004161374447,0.2364334746180819
16.80099999999755,0.11807203601258574,0.24133002661369465
17.000999999997795,0.11536627219440398,0.24488967097908776
17.20099999999804,0.11247553361581994,0.24799378797191268
17.400999999998284,0.10904650977671537,0.25250137818181184
17.60099999999853,0.1050023560134489,0.25705005967195593
17.800999999998773,0.10137367517561448,0.2612521442896295
18.000999999999017,0.09736015916649038,0.2654555106898442
18.20099999999926,0.09246509052497345,0.2708109221146699
18.400999999999506,0.08810465787930834,0.27526148767658337
18.60099999999975,0.08322655303942884,0.27851352990692924
18.799999999999994,0.07981139623595672,0.281299582263881
19.000000000000238,0.07631482377013193,0.28399207641925434
19.200000000000482,0.07110026794489346,0.2879348782743044
19.400000000000727,0.06724463016226327,0.2904109046293353
19.60000000000097,0.06199646747922045,0.29428754333638135
19.800000000001216,0.058547521191508904,0.29640255423563233
20.00000000000146,0.05508423201207383,0.29814257002840366
