Time (s),X (m),Y (m)
0.001,0.0006558713247593165,0.0009345558501746678
0.20000000000000015,0.0008832969812771107,-0.0022472335514553145
0.4000000000000003,0.004520307426206645,-0.006024849997203739
0.6000000000000004,0.009248351386446812,-0.007872654223604302
0.8000000000000006,0.017984470902014424,0.000986605989714929
1.0000000000000007,0.0331499112590743,0.005244182664583857
1.2009999999999785,0.051625507441949534,0.003017404256775009
1.4009999999999565,0.07767892047488148,0.011298320053354103
1.6009999999999345,0.10675876165752655,0.030229925830182396
1.8009999999999124,0.13167776789506722,0.037925843341241695
2.0009999999998906,0.15887373405581362,0.04310839415030257
2.2009999999998686,0.1895526876418405,0.05679891914369315
2.4009999999998466,0.21838561724536001,0.062022907900777705
2.6009999999998246,0.24146322111434865,0.0642250190590843
2.8009999999998025,0.261594305378856,0.06618244080706424
3.0009999999997805,0.28116799113724034,0.07408004748653207
3.2009999999997585,0.3113754689700176,0.09361384490591156
3.4009999999997365,0.3461879925220992,0.10415092017350713
3.6009999999997144,0.3774492888947255,0.11452452521369162
3.8009999999996924,0.4018764929792721,0.11271392166361446
4.000999999999671,0.43549108566057415,0.11583345803394271
4.200999999999738,0.465618399900877,0.12185358381247323
4.400999999999804,0.49064234584468763,0.12240026653666397
4.600999999999871,0.516062485915344,0.1274233210001138
4.800999999999938,0.5392531184406365,0.12767782477719483
5.000000000000004,0.5699175926938188,0.1368585595857965
5.200000000000071,0.5981694083250565,0.1362081082886295
5.400000000000138,0.6319100277261674,0.13876131739111172
5.600000000000205,0.6688287117507009,0.13954851891034858
5.800000000000272,0.7086256337708072,0.14817536693644048
6.000000000000338,0.7505336110684716,0.1582294353612066
6.200000000000405,0.7904565018646983,0.16441233057914464
6.400000000000472,0.8282202359691804,0.16897022638671122
6.600000000000539,0.8575935268532741,0.16439576190083685
6.800000000000606,0.8850760425463238,0.1679996590140534
7.000000000000672,0.9222993092562217,0.1690232733739857
7.200000000000739,0.9532414897884043,0.19508385433686762
7.400000000000806,0.9827848236790294,0.210921566592193
7.600000000000873,1.0124453015949024,0.22633634682476292
7.8000000000009395,1.0420295055605984,0.238791444507554
8.000000000001005,1.0693600456599581,0.248213773984979
8.200000000000895,1.1027947179514994,0.26218966219792456
8.400000000000784,1.1394199356840005,0.2716829543667067
8.600000000000673,1.1729402781684068,0.27845045625380344
8.800000000000562,1.208479484040855,0.30206277088125383
9.000000000000451,1.24423901726015,0.31195533385898355
9.20000000000034,1.2797382466748446,0.3119764925410595
9.40000000000023,1.3139329178777084,0.33257919028690003
9.600000000000119,1.346937464414181,0.35438231628277184
9.800000000000008,1.3816561770149582,0.3575374903910276
10.000999999999896,1.4189313666516212,0.3637423869613061
10.200999999999786,1.4559674338810638,0.37854282969346936
10.400999999999675,1.4906588197906572,0.4123193552860482
10.600999999999564,1.519313920051029,0.42388546729939547
10.800999999999453,1.5473831034962349,0.44493100263585256
11.000999999999342,1.5812626341819191,0.4568965827409082
11.200999999999231,1.6165763804098838,0.46592292842160693
11.40099999999912,1.6500306310842137,0.474107532109873
11.60099999999901,1.6800787411721616,0.48108826816031586
11.800999999998899,1.7104588256951168,0.4866169169404919
12.000999999998788,1.738926175013968,0.5114349899163022
12.200999999998677,1.7668874967894903,0.5339936982893859
12.400999999998566,1.7950486213691894,0.5509051655233157
12.600999999998455,1.8289891893135306,0.5591304596134907
12.800999999998345,1.8650134599066168,0.5769900250963831
13.000999999998234,1.902996823303979,0.5959590876211643
13.200999999998123,1.940183786951796,0.6110845883130321
13.400999999998012,1.9775208615422961,0.626721778919033
13.600999999997901,2.0116539938730154,0.655522594427793
13.80099999999779,2.05041378362565,0.68921347492722
14.00099999999768,2.082706512016775,0.7017474862874102
14.200999999997569,2.1141542447640176,0.722945847376009
14.400999999997458,2.1445240525762173,0.740993760634382
14.600999999997347,2.1740440045450953,0.7647301442843938
14.800999999997236,2.204502858028805,0.7883059285398032
15.000999999997125,2.2331458224402123,0.8148636247451181
15.200999999997014,2.260256773231102,0.8436669543225978
15.400999999996904,2.2855155582132354,0.8677516497696087
15.600999999996793,2.3128773937436558,0.8801943539199797
15.800999999996682,2.3359675175544976,0.8868392414472736
16.000999999996573,2.3545836700108893,0.8903532974682619
16.200999999996817,2.37599379217957,0.901332390449498
16.40099999999706,2.3987593783503223,0.936774130554316
16.600999999997306,2.4254037838077522,0.9734364359403609
16.80099999999755,2.4510297929728475,1.005491109907418
17.000999999997795,2.4779279667461154,1.0375337529651851
17.20099999999804,2.5029904063658623,1.0583281291266093
17.400999999998284,2.53049844045942,1.08007011745525
17.60099999999853,2.5576757848749607,1.1038178241896381
17.800999999998773,2.5855503510074835,1.1187018071205235
18.000999999999017,2.6133932731984286,1.133029782645424
18.20099999999926,2.64379404072122,1.1542969154943903
18.400999999999506,2.6795424411630098,1.1711909015137167
18.60099999999975,2.7029571437001576,1.1968891973673477
18.799999999999994,2.727793450195966,1.2244301362602366
19.000000000000238,2.7580073562848546,1.2371709360179657
19.200000000000482,2.7842151569296556,1.2694238778321618
19.400000000000727,2.8122077468377578,1.3044160358888022
19.60000000000097,2.836742393628123,1.3406713116301558
19.800000000001216,2.859974655074641,1.3710711508474496
20.00000000000146,2.8827767653652896,1.403385547663243
