Time (s),X (m),Y (m)
0.001,-0.00013259955118837574,0.0009689812320744445
0.20000000000000015,-0.00031888855866862403,0.0038659354631132422
0.4000000000000003,0.0015878356055663042,0.005630174325310047
0.6000000000000004,0.00018058138902743372,0.007098924308769301
0.8000000000000006,0.006394573580508363,0.01172271898163193
1.0000000000000007,0.015105129728772215,0.018241481040358446
1.2009999999999785,0.022565203149749438,0.017940542822308638
1.4009999999999565,0.02751507394214795,0.014838758709165817
1.6009999999999345,0.033936333579720264,0.011738795737461725
1.8009999999999124,0.03919330119010097,0.013467597582929971
2.0009999999998906,0.045065089684916064,0.006769973541121041
2.2009999999998686,0.051069898488589394,0.005871450625876186
2.4009999999998466,0.05735155499206938,0.003761138357360002
2.6009999999998246,0.06485970312595896,0.002877447876058406
2.8009999999998025,0.07149833552806398,0.0019452283212387667
3.0009999999997805,0.07670629811288276,-0.004143758535971815
3.2009999999997585,0.08338322044024189,-0.008308798872020164
3.4009999999997365,0.08731422869050802,-0.015457613746392465
3.6009999999997144,0.09747100501053411,-0.012270119902907073
3.8009999999996924,0.10228796846444711,-0.01957215156392969
4.000999999999671,0.11084040999004674,-0.027446722029706105
4.200999999999738,0.11586736572505923,-0.03587066524355818
4.400999999999804,0.11979319458630085,-0.033968323226688954
4.600999999999871,0.12713476864980552,-0.03774169546635097
4.800999999999938,0.13555970421381625,-0.03860598895220681
5.000000000000004,0.1424105350309384,-0.034621275108672044
5.200000000000071,0.14957313751184526,-0.03345479313163079
5.400000000000138,0.156805715112989,-0.03873029480381355
5.600000000000205,0.16613544388755938,-0.036716575234177644
5.800000000000272,0.17199210249021396,-0.04751600033676964
6.000000000000338,0.17496030470590382,-0.05250245092291237
6.200000000000405,0.17946065790257107,-0.05909153338817618
6.400000000000472,0.18722608661143178,-0.05978619170622661
6.600000000000539,0.19768764282353518,-0.05908931404721181
6.800000000000606,0.2066474214480419,-0.058335612131939996
7.000000000000672,0.21149729536087275,-0.06040153256172855
7.200000000000739,0.21833047561632318,-0.06593169200006975
7.400000000000806,0.22680255853405984,-0.06953406567100465
7.600000000000873,0.23222964353553296,-0.08470920649904924
7.8000000000009395,0.23924573589452547,-0.09052252257470761
8.000000000001005,0.24846135221167207,-0.09601244105893739
8.200000000000895,0.2531201261282399,-0.10302455443654693
8.400000000000784,0.25684200553518044,-0.11324752855065641
8.600000000000673,0.2643503052454896,-0.1135490150461358
8.800000000000562,0.2684946286787408,-0.12014127609705048
9.000000000000451,0.2764757464682068,-0.12232424829106325
9.20000000000034,0.2797101008345571,-0.13860107057381474
9.40000000000023,0.2855187922010664,-0.14768282198299212
9.600000000000119,0.2937161788485663,-0.15302579146438597
9.800000000000008,0.3016361512644784,-0.1578112296586014
10.000999999999896,0.31193295719679875,-0.16305747188024655
10.200999999999786,0.31291089087618773,-0.17164594525484902
10.400999999999675,0.3195175621615574,-0.17365692819649098
10.600999999999564,0.32412501694892737,-0.17676916973444423
10.800999999999453,0.3310847307989653,-0.18274639364851386
11.000999999999342,0.3391566618071315,-0.18110509994250187
11.200999999999231,0.3463643898059949,-0.18537304784431483
11.40099999999912,0.35256210272474375,-0.19151460266535192
11.60099999999901,0.358336385840449,-0.20088935471803207
11.800999999998899,0.36657221940123685,-0.20160150738926
12.000999999998788,0.37574862799797265,-0.2044104862673497
12.200999999998677,0.3845073853910562,-0.2096356186036603
12.400999999998566,0.3958664824850338,-0.20503535585148688
12.600999999998455,0.401771242645389,-0.21295361427600265
12.800999999998345,0.40261004144521184,-0.22115516065562185
13.000999999998234,0.41015045353886836,-0.2249987654961515
13.200999999998123,0.41757959136849115,-0.23234841870663103
13.400999999998012,0.41945892629262,-0.24909542920705566
13.600999999997901,0.4249464866134102,-0.2570148797438954
13.80099999999779,0.4311625556430844,-0.26246959847753987
14.00099999999768,0.4361520242981953,-0.26792556590816485
14.200999999997569,0.4399657358668065,-0.2792329836421171
14.400999999997458,0.44539692064341185,-0.2897785307984432
14.600999999997347,0.45608255411849513,-0.2911762760516612
14.800999999997236,0.4632360375081619,-0.3001048889990528
15.000999999997125,0.47004812410329244,-0.30476544230830455
15.200999999997014,0.47815181119876904,-0.3095949777255251
15.400999999996904,0.4854000216566191,-0.31372979947194374
15.600999999996793,0.48854795358727426,-0.3211464847271342
15.800999999996682,0.4959432796420667,-0.3274961605444009
16.000999999996573,0.5024102842024,-0.33473742082854463
16.200999999996817,0.5097218475952703,-0.3400724477875264
16.40099999999706,0.5162055063806873,-0.3470339716324096
16.600999999997306,0.5204559214878665,-0.3596209559992599
16.80099999999755,0.5241132268035479,-0.3706484931629879
17.000999999997795,0.5305739781149437,-0.37865379167509605
17.20099999999804,0.5411119068008367,-0.37998916965724294
17.400999999998284,0.5509294821689893,-0.38165535824292934
17.60099999999853,0.5563759427496907,-0.38781598397612466
17.800999999998773,0.5633353642732977,-0.3953391138829902
18.000999999999017,0.5666669939058206,-0.4028234687829706
18.20099999999926,0.573123748464592,-0.4072232051176581
18.400999999999506,0.5788724456886224,-0.41112092335910033
18.60099999999975,0.5873019849082837,-0.4117031362746037
18.799999999999994,0.5944208424081613,-0.4185155861790548
19.000000000000238,0.596448591026411,-0.4257942305612718
19.200000000000482,0.6003457817481619,-0.43333836956095545
19.400000000000727,0.6026624124070843,-0.4448262799042189
19.60000000000097,0.6096967405920355,-0.4487211149438501
19.800000000001216,0.6134473737601951,-0.4595635274709678
20.00000000000146,0.6199622229607342,-0.4646327030808021
