Time (s),X (m),Y (m)
0.001,0.0011890620069237587,0.00035268032603768894
0.20000000000000015,-0.0009567501716401406,-0.0011633054428617322
0.4000000000000003,0.0030798319032147616,0.0012770885789556603
0.6000000000000004,0.009130819820951382,0.00237810455456304
0.8000000000000006,0.0199589936458395,0.005977310642186747
1.0000000000000007,0.03578158512880185,0.006177420909399336
1.2009999999999785,0.03491484605619953,0.007297587585772567
1.4009999999999565,0.0350825142565453,0.0024103282531368567
1.6009999999999345,0.049960622160454236,-0.0010210347007452044
1.8009999999999124,0.06159297509242155,0.0020695982888598212
2.0009999999998906,0.07382997472649323,0.0029720131190885423
2.2009999999998686,0.10474875169399113,-0.0014715392199056102
2.4009999999998466,0.12848759646698799,-0.00719555715440413
2.6009999999998246,0.1437566793472621,-0.014212712912916238
2.8009999999998025,0.15939644417704824,-0.019718868503240766
3.0009999999997805,0.16340044522021552,-0.026166528107696492
3.2009999999997585,0.1717537432103509,-0.03096673729334642
3.4009999999997365,0.18885688583015814,-0.0340901845067719
3.6009999999997144,0.21080333027874296,-0.040568074867061994
3.8009999999996924,0.23011596955322455,-0.04884498126075288
4.000999999999671,0.25874817735776473,-0.056731461279416424
4.200999999999738,0.2814893431019718,-0.06353571270750742
4.400999999999804,0.29697504972673294,-0.0665105607728198
4.600999999999871,0.3174513609090567,-0.07297569445899427
4.800999999999938,0.33463090217033864,-0.08547500730014936
5.000000000000004,0.34459364288352634,-0.09725316599173338
5.200000000000071,0.3530705792618654,-0.10739519378182076
5.400000000000138,0.36504077984041294,-0.11482899469763655
5.600000000000205,0.38526459369188865,-0.12618684595649868
5.800000000000272,0.4029043875084058,-0.13938188461440737
6.000000000000338,0.4119577730093976,-0.15412242132382026
6.200000000000405,0.4261773930955253,-0.16529487369273013
6.400000000000472,0.43006928227635083,-0.17241841707820862
6.600000000000539,0.44359598668925554,-0.17901729260547192
6.800000000000606,0.4510555976361622,-0.19346809793591
7.000000000000672,0.4727958502736034,-0.21049151190612356
7.200000000000739,0.4932687949212586,-0.221268318727536
7.400000000000806,0.5193840610175586,-0.23618586194498026
7.600000000000873,0.543123559612746,-0.24853979589568384
7.8000000000009395,0.5499897105190291,-0.2607212022314827
8.000000000001005,0.5604442338910582,-0.27577599206693804
8.200000000000895,0.5801010465054836,-0.29487601161059646
8.400000000000784,0.5919868117345458,-0.31331012462487345
8.600000000000673,0.615348183251009,-0.32513673696339884
8.800000000000562,0.6323323178585932,-0.33121744979718115
9.000000000000451,0.6525356480575968,-0.341673735699546
9.20000000000034,0.6734254457870664,-0.3523383049616561
9.40000000000023,0.6934227589505014,-0.36422563030560884
9.600000000000119,0.7104018172730434,-0.37501230841981925
9.800000000000008,0.7236908147265686,-0.39392924446049504
10.000999999999896,0.7449486671074109,-0.40795284812277227
10.200999999999786,0.764758843824834,-0.4214539916929642
10.400999999999675,0.7783183852000046,-0.43937149960915545
10.600999999999564,0.8012935270627091,-0.4567409117375429
10.800999999999453,0.8229088044094072,-0.46741360595993664
11.000999999999342,0.8369446348272008,-0.47541069149489207
11.200999999999231,0.8547587562722533,-0.4836328358146929
11.40099999999912,0.8826748600174326,-0.4938208917235083
11.60099999999901,0.9218549329298629,-0.5112337132234798
11.800999999998899,0.9367296755409698,-0.5257459212877466
12.000999999998788,0.9582730271307109,-0.5433401532824463
12.200999999998677,0.9777574957320644,-0.5619400083975613
12.400999999998566,1.006852798879459,-0.5805796026552312
12.600999999998455,1.029268253035854,-0.5967759171924943
12.800999999998345,1.0411805131006526,-0.6125840944201109
13.000999999998234,1.0552457501867147,-0.6304798391071484
13.200999999998123,1.073564847373461,-0.6503412442172456
13.400999999998012,1.1003999648231697,-0.6656585711254581
13.600999999997901,1.1307227532653614,-0.6776787505531479
13.80099999999779,1.1502602583224135,-0.6872123246890095
14.00099999999768,1.1653360128468064,-0.7005434495615213
14.200999999997569,1.184335696893661,-0.7164314115209603
14.400999999997458,1.20709523260788,-0.7335035910727751
14.600999999997347,1.2341587177750775,-0.7528722420461573
14.800999999997236,1.263004491201436,-0.778544859356184
15.000999999997125,1.2910144856526073,-0.8074137982489538
15.200999999997014,1.3092522037944931,-0.8306528464919191
15.400999999996904,1.3261617558366217,-0.8488003642741472
15.600999999996793,1.3422772802819787,-0.8683944123532944
15.800999999996682,1.3645458951374392,-0.8893276138908346
16.000999999996573,1.3807276170838587,-0.9100304370006422
16.200999999996817,1.3947292952036296,-0.9319760369793559
16.40099999999706,1.4093239982486687,-0.9553981188407261
16.600999999997306,1.4285157806936677,-0.9735963206489868
16.80099999999755,1.4557487947785765,-0.9827307998647695
17.000999999997795,1.482245911123705,-0.9957471669334246
17.20099999999804,1.5227531916394224,-1.0139836702647305
17.400999999998284,1.5564317815576363,-1.0347750260764816
17.60099999999853,1.576434155283972,-1.0574859190362922
17.800999999998773,1.5976122417854062,-1.0778708009047968
18.000999999999017,1.6163801399597948,-1.1004639756978816
18.20099999999926,1.6434694803241143,-1.1227550658778218
18.400999999999506,1.6562735762731748,-1.1437061991883457
18.60099999999975,1.674304530319757,-1.1678058401226523
18.799999999999994,1.695474721891778,-1.1883855819891889
19.000000000000238,1.7214249733403721,-1.2123221255034353
19.200000000000482,1.7541156909415883,-1.2391380880747696
19.400000000000727,1.7684844108294613,-1.263855083785144
19.60000000000097,1.7927221350497715,-1.2856570055650516
19.800000000001216,1.815018292346345,-1.3054051130877273
20.00000000000146,1.8411404028783838,-1.3234828416122109
