Time (s),X (m),Y (m)
0.001,0.0005727611008870025,0.0009689812320744445
0.20000000000000015,0.004169642432619685,0.0046241075483595
0.4000000000000003,0.0059522297431412316,0.004252267545188783
0.6000000000000004,0.009643403927255776,0.007309758422214223
0.8000000000000006,0.01585412122412076,0.020295091926182802
1.0000000000000007,0.02112307630336656,0.020484218944185083
1.2009999999999785,0.027427152006822476,0.023475201078899534
1.4009999999999565,0.031399860306029495,0.021753870620744055
1.6009999999999345,0.036070401887724556,0.020828394027664787
1.8009999999999124,0.04100535170473365,0.019079042815184393
2.0009999999998906,0.045324628082071675,0.023052503263897118
2.2009999999998686,0.04982402431330657,0.024154462083040923
2.4009999999998466,0.05458859881775423,0.02958317937814654
2.6009999999998246,0.06018081941199697,0.031692802844690504
2.8009999999998025,0.06442413637452812,0.034611202006990145
3.0009999999997805,0.06667209988477865,0.035563571689963054
3.2009999999997585,0.0709710830511409,0.03749302339394868
3.4009999999997365,0.07554971118573746,0.03951285546501576
3.6009999999997144,0.07916885420232381,0.0398847651270382
3.8009999999996924,0.08266411724433699,0.04063625666105274
4.000999999999671,0.08659660392735448,0.044719998399758855
4.200999999999738,0.0906101268562111,0.047367689280981055
4.400999999999804,0.09488462893956523,0.04896575387544722
4.600999999999871,0.09831022303120011,0.050807393633501285
4.800999999999938,0.09982484970273485,0.05792639220409021
5.000000000000004,0.1032915312408529,0.060049416818882144
5.200000000000071,0.10810927350384968,0.060304837651796415
5.400000000000138,0.1105809521286031,0.06512041763990783
5.600000000000205,0.11537978651485235,0.06832042937368625
5.800000000000272,0.11918842554217135,0.0734989839287925
6.000000000000338,0.12082704570437079,0.07990564259323854
6.200000000000405,0.12163853698655536,0.08521821354746553
6.400000000000472,0.12548782603319647,0.09027432779676572
6.600000000000539,0.12929372327046168,0.09476915777621582
6.800000000000606,0.13139502750547877,0.09971728275452044
7.000000000000672,0.13060834135438565,0.10656715235807063
7.200000000000739,0.13224985594687694,0.11298091295323145
7.400000000000806,0.13138582032206833,0.1204189867244982
7.600000000000873,0.13279025648758977,0.12431473976041164
7.8000000000009395,0.13155850072978728,0.12941303273041257
8.000000000001005,0.13309506673940716,0.13459587074472193
8.200000000000895,0.13381031709375407,0.1395492649298874
8.400000000000784,0.13323810811027903,0.14598717429791117
8.600000000000673,0.13339326113324168,0.1515900208168519
8.800000000000562,0.13414542548029115,0.15689090567894512
9.000000000000451,0.1334507196427376,0.16265651182933608
9.20000000000034,0.1336180035081507,0.1676974073662773
9.40000000000023,0.1298158233426149,0.1744067253920917
9.600000000000119,0.12728667132095312,0.1818368365881272
9.800000000000008,0.1248650073874781,0.18810163647127937
10.000999999999896,0.120583180963088,0.19432092153404756
10.200999999999786,0.11980590578091196,0.20021875374856915
10.400999999999675,0.11727245357551873,0.20629702543180792
10.600999999999564,0.11472065409587846,0.21207412542893472
10.800999999999453,0.11188812348362817,0.21694326762085028
11.000999999999342,0.10900960425685968,0.2216855881810522
11.200999999999231,0.10766821539689786,0.22613180466485636
11.40099999999912,0.10395723839454486,0.23095268060065977
11.60099999999901,0.10313697897592032,0.23534091653861916
11.800999999998899,0.10233243205230816,0.2392290515084781
12.000999999998788,0.09994870601159217,0.24457434482135898
12.200999999998677,0.09619168331751914,0.24982086667080827
12.400999999998566,0.09389141121831446,0.25343065112045066
12.600999999998455,0.08983594716228296,0.25516184271933334
12.800999999998345,0.08892202491175653,0.2588633490368683
13.000999999998234,0.08585183569155964,0.26174395586457494
13.200999999998123,0.08227655570796544,0.26474411411642024
13.400999999998012,0.08090879125224279,0.2684152678031402
13.600999999997901,0.07438222300474802,0.27123164537120875
13.80099999999779,0.07024219474909084,0.2736823693739897
14.00099999999768,0.06421956654652783,0.27492092636025184
14.200999999997569,0.05574237364628613,0.2760387333466175
14.400999999997458,0.050010556966692654,0.27668939190846703
14.600999999997347,0.04501229460429653,0.2793274799126836
14.800999999997236,0.03862099008272127,0.2818736284389
15.000999999997125,0.035290173806899514,0.28554614775965753
15.200999999997014,0.030284158884122083,0.28642851495487903
15.400999999996904,0.025479271965174615,0.289645591041873
15.600999999996793,0.020644565037232068,0.2931311918349405
15.800999999996682,0.014627022580020726,0.29222593348928527
16.000999999996573,0.007650720282802678,0.2913906931533148
16.200999999996817,0.002646684475105,0.2934358110860552
16.40099999999706,-0.0025436412044338966,0.2951093156920551
16.600999999997306,-0.008033548781379483,0.2967789077268201
16.80099999999755,-0.01244255704502966,0.3004018181165475
17.000999999997795,-0.01905978545358959,0.2977412180803402
17.20099999999804,-0.025304818022989332,0.2979806982297527
17.400999999998284,-0.03383379801756881,0.2915555836495677
17.60099999999853,-0.039888457710596535,0.2886028546548048
17.800999999998773,-0.04632368283856552,0.28803340942017536
18.000999999999017,-0.05334798072899008,0.28607894940472095
18.20099999999926,-0.05981524936653035,0.2856104324322582
18.400999999999506,-0.06577231234965854,0.28531806045885977
18.60099999999975,-0.07140061313234015,0.28726660865593096
18.799999999999994,-0.0771529602672428,0.2852782438297771
19.000000000000238,-0.08418453750300617,0.2817771728081375
19.200000000000482,-0.08918781009762898,0.2802745160109759
19.400000000000727,-0.09434064319520236,0.27783945129402793
19.60000000000097,-0.10021660397627805,0.2760156882963305
19.800000000001216,-0.10589065022882807,0.2733064088066976
20.00000000000146,-0.11214700011644485,0.272306895713537
