Time (s),X (m),Y (m)
0.001,-0.00013259955118837574,0.0009689812320744445
0.20000000000000015,0.004800061887153046,-0.0032143402226227505
0.4000000000000003,0.012446165394123259,-0.0028543049502942498
0.6000000000000004,0.02920085092383364,0.001012073549421335
0.8000000000000006,0.049804052281358625,0.00828991503440213
1.0000000000000007,0.07319888734001317,-0.009869913198670496
1.2009999999999785,0.10679121619134041,-0.03203621004409547
1.4009999999999565,0.14686407095028972,-0.03786078365606055
1.6009999999999345,0.19218167203450962,-0.06096681256438751
1.8009999999999124,0.24468766290566946,-0.08501505132186671
2.0009999999998906,0.29074767777167687,-0.12899954567034977
2.2009999999998686,0.3348237757379071,-0.1667812873460796
2.4009999999998466,0.37787339407167186,-0.21570019412734287
2.6009999999998246,0.4219675432630442,-0.2676521382388751
2.8009999999998025,0.4719036819989101,-0.3070524586983875
3.0009999999997805,0.5274637991996886,-0.3351518920857364
3.2009999999997585,0.5797229242204186,-0.3730719394616613
3.4009999999997365,0.6273077651209894,-0.4050926625362174
3.6009999999997144,0.6727544677302847,-0.445434262939603
3.8009999999996924,0.7178246205899443,-0.47416048248526704
4.000999999999671,0.7615313718504515,-0.5072879803060302
4.200999999999738,0.8044391286694468,-0.5439988086870254
4.400999999999804,0.8470046667964601,-0.5805976375140774
4.600999999999871,0.8860449932869842,-0.6271530239287714
4.800999999999938,0.9269620150885676,-0.6778287318720178
5.000000000000004,0.9648826012743957,-0.7332192893279094
5.200000000000071,1.0053245194762879,-0.7847490176646263
5.400000000000138,1.0444356057042476,-0.8388444642211271
5.600000000000205,1.0796641672797442,-0.9016315439818046
5.800000000000272,1.1185208148428027,-0.9587846735245803
6.000000000000338,1.1515569510372905,-1.0141030853273103
6.200000000000405,1.179957327119792,-1.0649513475664736
6.400000000000472,1.205266691577138,-1.1185322314887813
6.600000000000539,1.2331795190960702,-1.1677751352829635
6.800000000000606,1.2265234921374002,-1.2231038816775752
7.000000000000672,1.2198388699616678,-1.277715740392862
7.200000000000739,1.208493318394301,-1.3343888916826327
7.400000000000806,1.1774856750273548,-1.3936464722508202
7.600000000000873,1.1562567217542994,-1.4535844137787766
7.8000000000009395,1.1296858856938112,-1.5066672540006425
8.000000000001005,1.0930376626787321,-1.5507567519872667
8.200000000000895,1.045310687053129,-1.5912085208407305
8.400000000000784,0.9929170674020431,-1.6236253831589647
8.600000000000673,0.9367847890142894,-1.6494328130522444
8.800000000000562,0.8787609407773,-1.6456039571658865
9.000000000000451,0.8184045592699523,-1.6162482751444558
9.20000000000034,0.7636900655830294,-1.5808387161597428
9.40000000000023,0.701829265244925,-1.547774086720797
9.600000000000119,0.6432556914161723,-1.5097124336685754
9.800000000000008,0.5924460390457035,-1.4707682241893159
10.000999999999896,0.546045151196886,-1.426937007710003
10.200999999999786,0.507052383120044,-1.366398096912107
10.400999999999675,0.4647261041088982,-1.3065596465925862
10.600999999999564,0.4205622884493889,-1.2408316723074182
10.800999999999453,0.37345804335815685,-1.1951508062895844
11.000999999999342,0.32116400454565175,-1.1580334179721088
11.200999999999231,0.2672523325898857,-1.1209343964056007
11.40099999999912,0.21751809864666932,-1.0884799625972348
11.60099999999901,0.16862426400899297,-1.0496084085453932
11.800999999998899,0.127383235814672,-0.9969132346744941
12.000999999998788,0.09424876746399197,-0.938141071864615
12.200999999998677,0.07230487499232743,-0.8794532053498352
12.400999999998566,0.08328195053828644,-0.8189312692516336
12.600999999998455,0.10669381053100387,-0.7551210808152163
12.800999999998345,0.14026436266725215,-0.692199877585244
13.000999999998234,0.16789176713409704,-0.6322755046108396
13.200999999998123,0.20991059561897818,-0.5792907751222739
13.400999999998012,0.27174509910710704,-0.5316965082553554
13.600999999997901,0.3255355738448539,-0.4851084691087218
13.80099999999779,0.37358994454720595,-0.43603906710885565
14.00099999999768,0.428104852127268,-0.39380302758097585
14.200999999997569,0.48889557939143646,-0.3594761651133848
14.400999999997458,0.549668358499229,-0.32287234317127833
14.600999999997347,0.6057821071601986,-0.2820699811545286
14.800999999997236,0.6654600892965352,-0.23717707533501492
15.000999999997125,0.7272356867118237,-0.2036419605578946
15.200999999997014,0.7888519740954354,-0.18461029191185643
15.400999999996904,0.8486859582590945,-0.1848824318944121
15.600999999996793,0.9117793643656459,-0.1902627575425764
15.800999999996682,0.9644252262930466,-0.22686655402361575
16.000999999996573,1.010219693497807,-0.2753713733924932
16.200999999996817,1.0568334662883339,-0.3254744938290894
16.40099999999706,1.100837719518002,-0.3821837017976733
16.600999999997306,1.1424826719511325,-0.4308111163748691
16.80099999999755,1.1810874381047998,-0.486759573175754
17.000999999997795,1.2179792228719883,-0.545714942080955
17.20099999999804,1.2605393052370657,-0.6000936223577793
17.400999999998284,1.3008529465603391,-0.6539971128759955
17.60099999999853,1.3334298418190176,-0.7124220145717705
17.800999999998773,1.3575304217383037,-0.7719941028806416
18.000999999999017,1.367491434437081,-0.8282101224297349
18.20099999999926,1.3632068726457072,-0.8877478605267174
18.400999999999506,1.3372234375975585,-0.9472010310602182
18.60099999999975,1.2962215661469034,-0.9947442899834702
18.799999999999994,1.2601748592460023,-1.0370733305593338
19.000000000000238,1.2164378871893595,-1.066817878149979
19.200000000000482,1.1641407206415348,-1.0711120950243924
19.400000000000727,1.1086010501454926,-1.0535734231305662
19.60000000000097,1.0533056702851424,-1.0241715602745278
19.800000000001216,1.0017879961593925,-0.9903974980993325
20.00000000000146,0.968512744659572,-0.9372786452198758
