Time (s),X (m),Y (m)
0.001,0.0006558713247593165,-0.0009345558501746678
0.20000000000000015,0.0032220845803987218,-0.004798305144428078
0.4000000000000003,0.004502115472365447,-0.007756544848351616
0.6000000000000004,0.007265658343942966,-0.006794485310963686
0.8000000000000006,0.010584098814867927,-0.011427577150163671
1.0000000000000007,0.021256994616818802,-0.020649762537707218
1.2009999999999785,0.02978356903070709,-0.02836084200405646
1.4009999999999565,0.03362817919734944,-0.02619909763187397
1.6009999999999345,0.03579625595310442,-0.025710271580707638
1.8009999999999124,0.044658556661313326,-0.030793217270274807
2.0009999999998906,0.05269849108471619,-0.03492110225260604
2.2009999999998686,0.06350239613085083,-0.04043145272737002
2.4009999999998466,0.07000254578045527,-0.04154807300583309
2.6009999999998246,0.07546158791123733,-0.04269199067744291
2.8009999999998025,0.08421609508948653,-0.044190063174851704
3.0009999999997805,0.09154273726226005,-0.04341656126093299
3.2009999999997585,0.10053990703437089,-0.046762347880987015
3.4009999999997365,0.1093642918663228,-0.047976327666808045
3.6009999999997144,0.11734362370299227,-0.04720049639616109
3.8009999999996924,0.12539833092095307,-0.045770767968441116
4.000999999999671,0.13620015856612125,-0.04637689957593174
4.200999999999738,0.14464868077310328,-0.04571938379508943
4.400999999999804,0.1566916485121232,-0.04782179450338996
4.600999999999871,0.1656511104584163,-0.04700217155281571
4.800999999999938,0.17513202785979837,-0.04739974934995519
5.000000000000004,0.1851497019629015,-0.046613598180323484
5.200000000000071,0.1935959786215558,-0.04517614343458977
5.400000000000138,0.20238798812797246,-0.04418022573450365
5.600000000000205,0.20984347293410827,-0.04291723406983854
5.800000000000272,0.2201359394857876,-0.03926529143457297
6.000000000000338,0.2292653221495812,-0.03836337247193819
6.200000000000405,0.2384645984680639,-0.0373521390777439
6.400000000000472,0.2468992375607186,-0.03510589054967697
6.600000000000539,0.25749006944916547,-0.032497869864314834
6.800000000000606,0.26181777044114185,-0.02877543034004819
7.000000000000672,0.2654959138384322,-0.024727169331522105
7.200000000000739,0.27642476079224726,-0.023044052165725727
7.400000000000806,0.2845982471219082,-0.016688234337499643
7.600000000000873,0.2896953288514241,-0.009416129535261079
7.8000000000009395,0.3022346184201502,-0.005542059935309015
8.000000000001005,0.31090156660157603,-0.0019380765007373018
8.200000000000895,0.31801258945731753,0.0010116432178186772
8.400000000000784,0.32649415900267564,0.004204350037824082
8.600000000000673,0.3314493208745702,0.008557085064617184
8.800000000000562,0.33333313424560496,0.01165716891477861
9.000000000000451,0.3387065725491719,0.0157918231855334
9.20000000000034,0.3493818545201383,0.019093379502296812
9.40000000000023,0.357301527239082,0.024723025401317506
9.600000000000119,0.3699849145181326,0.03115926185567357
9.800000000000008,0.37678428101401507,0.03665789940864229
10.000999999999896,0.384436036882693,0.041057954369840444
10.200999999999786,0.3931637633655279,0.046486462073475385
10.400999999999675,0.3981955933990692,0.051848514859461965
10.600999999999564,0.40322528997143686,0.058789351786354284
10.800999999999453,0.41094947947720445,0.06419400265728299
11.000999999999342,0.41375331334267207,0.07001503209650617
11.200999999999231,0.4209157476454631,0.07520501192941105
11.40099999999912,0.4246443842017436,0.0801371448875235
11.60099999999901,0.43176963092369786,0.08570885112265673
11.800999999998899,0.4384442585133666,0.09075457694916239
12.000999999998788,0.44375833663823877,0.0955473488968291
12.200999999998677,0.4497055306469168,0.10118819506257644
12.400999999998566,0.4545996746103849,0.10628152143569786
12.600999999998455,0.46224216067898716,0.1111983300658298
12.800999999998345,0.4641839892361573,0.11786304744178165
13.000999999998234,0.4679954980293865,0.12317710443396626
13.200999999998123,0.474505656862478,0.12894329790074868
13.400999999998012,0.48074445887575173,0.13501674812491224
13.600999999997901,0.48620895190040586,0.14062930210231622
13.80099999999779,0.49277151564138455,0.1483674620304909
14.00099999999768,0.5029462266002099,0.15398278988856187
14.200999999997569,0.5128707326858746,0.15842242108187793
14.400999999997458,0.5178250593476674,0.1644201061187434
14.600999999997347,0.5181812736999338,0.1694465545980575
14.800999999997236,0.5230835864663645,0.1747401298635254
15.000999999997125,0.5318839581437556,0.17926890480612906
15.200999999997014,0.5428126097238444,0.18301160449397175
15.400999999996904,0.5498857040316394,0.18864579090080197
15.600999999996793,0.5527518830668509,0.19539915505972985
15.800999999996682,0.5538342315058077,0.20026637009174536
16.000999999996573,0.555165999872031,0.20573505403401837
16.200999999996817,0.5581515477097787,0.21113687661131433
16.40099999999706,0.5674288929353856,0.21632425075726894
16.600999999997306,0.572137262499829,0.22077288177293708
16.80099999999755,0.5774624163600129,0.22600566658492718
17.000999999997795,0.5822520479038443,0.23156404150305498
17.20099999999804,0.5859348796473722,0.23651042722985008
17.400999999998284,0.594446067770049,0.24068929751662632
17.60099999999853,0.6007007660577212,0.24645703091864796
17.800999999998773,0.6085575105365196,0.2510831095177292
18.000999999999017,0.6135934694108588,0.2562372789995005
18.20099999999926,0.6184462361460209,0.26192836177563933
18.400999999999506,0.6242826196385584,0.2687561724784238
18.60099999999975,0.6279963741279034,0.27474401833823403
18.799999999999994,0.631833382979247,0.2802870859575221
19.000000000000238,0.6359704464441291,0.2858774483711835
19.200000000000482,0.6423921137603003,0.29139886296892226
19.400000000000727,0.6457874331377398,0.2965123303765507
19.60000000000097,0.654404970319815,0.30142905212631277
19.800000000001216,0.6602444358324272,0.30730017277158733
20.00000000000146,0.6652626355049551,0.3140803490245673
