Time (s),X (m),Y (m)
0.001,0.0007356649194092869,-0.0008930179339548115
0.20000000000000015,0.0005659151801846095,0.003086252257086391
0.4000000000000003,0.00682052339457518,0.0021489885168153857
0.6000000000000004,0.017143632764187504,0.003644153728380141
0.8000000000000006,0.02652624127280971,0.009133645067147101
1.0000000000000007,0.040153288714906483,0.005532223403060371
1.2009999999999785,0.060238303534668025,-0.0007913387803005887
1.4009999999999565,0.08247906835939489,0.001501334221517737
1.6009999999999345,0.1115896310758072,0.00891269308697266
1.8009999999999124,0.1408685119686666,0.019483701318898834
2.0009999999998906,0.16797925889457832,0.01358748638381337
2.2009999999998686,0.190658268491708,-0.00386690322961457
2.4009999999998466,0.20519387709766979,-0.023384952911251193
2.6009999999998246,0.2222319905750462,-0.034232685807523054
2.8009999999998025,0.24216880013719883,-0.04285417907200595
3.0009999999997805,0.2669351165672495,-0.05429954803829256
3.2009999999997585,0.2843900516057407,-0.06812217817366432
3.4009999999997365,0.3042946034981627,-0.07630674317915323
3.6009999999997144,0.3278092047071485,-0.08037397796734305
3.8009999999996924,0.3443415818349615,-0.0965826382766062
4.000999999999671,0.36534129161821377,-0.11161280883982516
4.200999999999738,0.3754883114845683,-0.141758154105217
4.400999999999804,0.39421668050970615,-0.17263842223742185
4.600999999999871,0.40786348537665035,-0.19732363510379275
4.800999999999938,0.4187768195447279,-0.2206740442787088
5.000000000000004,0.4322531751013256,-0.24791174775624616
5.200000000000071,0.44618899331062695,-0.2793541478342219
5.400000000000138,0.4656917533505482,-0.30818462462674545
5.600000000000205,0.4802438641388124,-0.34066286093918624
5.800000000000272,0.49571748787301767,-0.3571949839200787
6.000000000000338,0.5063620108087895,-0.3905343550023119
6.200000000000405,0.5251505762511501,-0.4231735285493686
6.400000000000472,0.5356692064348093,-0.46382008915829115
6.600000000000539,0.5393906659209808,-0.49826399028167273
6.800000000000606,0.5469466654123689,-0.5333643069075665
7.000000000000672,0.5606179393980053,-0.5671466147351575
7.200000000000739,0.5800441817486043,-0.5924320298268532
7.400000000000806,0.5993167736759778,-0.6178016049037334
7.600000000000873,0.6123496292063233,-0.6552583175064266
7.8000000000009395,0.6203867646262095,-0.6957761343050781
8.000000000001005,0.6364328236862465,-0.7199398093435847
8.200000000000895,0.6599165407346668,-0.7398999924658456
8.400000000000784,0.6750978570844528,-0.7611580020574804
8.600000000000673,0.6833618328309463,-0.7840614102156737
8.800000000000562,0.6940540963272203,-0.8087565736519612
9.000000000000451,0.7026378135967678,-0.8387818488411891
9.20000000000034,0.7171782425671486,-0.8694858119379337
9.40000000000023,0.7397828751590442,-0.8915631885630301
9.600000000000119,0.7547604814920228,-0.9109375555175401
9.800000000000008,0.7685744296502186,-0.942216740851922
10.000999999999896,0.774660953534581,-0.978965995433926
10.200999999999786,0.7793672126348095,-1.0098489009811078
10.400999999999675,0.7813504631852766,-1.0505398727077624
10.600999999999564,0.7854833601420983,-1.0952342412024556
10.800999999999453,0.7904929949700029,-1.1356976706234547
11.000999999999342,0.791113144746566,-1.1680493953609419
11.200999999999231,0.7899917363909249,-1.2083295495855793
11.40099999999912,0.7860709107683731,-1.2485830622143683
11.60099999999901,0.7960193720706763,-1.2828948289800155
11.800999999998899,0.8009471172972525,-1.314272682572401
12.000999999998788,0.796620425325951,-1.3512286546087162
12.200999999998677,0.7867498044076441,-1.3851870265217539
12.400999999998566,0.7738229965227215,-1.420946386473592
12.600999999998455,0.7789876049681435,-1.4611306349523707
12.800999999998345,0.7776334309029214,-1.4993201195613
13.000999999998234,0.7529518182361812,-1.52207952372996
13.200999999998123,0.7316634487552525,-1.5454747638812207
13.400999999998012,0.7000059756106825,-1.5689820214664136
13.600999999997901,0.6795109743308592,-1.5930549784157382
13.80099999999779,0.646936562797447,-1.6121752723307525
14.00099999999768,0.6140749670117381,-1.625267232513064
14.200999999997569,0.5769758976876985,-1.6270646453494875
14.400999999997458,0.5341903485226309,-1.6251371645308532
14.600999999997347,0.49711167170908427,-1.6310000476338744
14.800999999997236,0.46694126530557467,-1.6370023324895757
15.000999999997125,0.42929303165437116,-1.6323097330787066
15.200999999997014,0.3901701682501375,-1.6341645936626368
15.400999999996904,0.35383054802273134,-1.6413937274845338
15.600999999996793,0.32605204609097205,-1.6285297991598404
15.800999999996682,0.2982191997141076,-1.6065768401597276
16.000999999996573,0.2651435043111577,-1.599720404534921
16.200999999996817,0.2372547625864822,-1.5917407569739523
16.40099999999706,0.20695378704263992,-1.5762923753390148
16.600999999997306,0.18223315411257035,-1.5637633822225783
16.80099999999755,0.1645416922285833,-1.5439816621359812
17.000999999997795,0.15134824485651352,-1.5133845614816384
17.20099999999804,0.13564122653275082,-1.4843515034793564
17.400999999998284,0.12109023042887565,-1.4523112185086164
17.60099999999853,0.11059306656557308,-1.4126040732286802
17.800999999998773,0.09829365965097188,-1.3646666990609109
18.000999999999017,0.08030588707303792,-1.3263798258329427
18.20099999999926,0.05776212422040475,-1.2993555348228418
18.400999999999506,0.04277307062700227,-1.2644770208520675
18.60099999999975,0.023836548033152882,-1.240176119970527
18.799999999999994,0.005214698567448998,-1.2131476988181087
19.000000000000238,-0.007592639924476138,-1.1742894484596773
19.200000000000482,-0.010027352991336008,-1.1245448116067955
19.400000000000727,-0.015860474606489823,-1.083664535263301
19.60000000000097,-0.017741199047525715,-1.049241257075045
19.800000000001216,-0.024333332016695852,-1.0241574927403445
20.00000000000146,-0.032138780610565,-0.9894589864668446
