Time (s),X (m),Y (m)
0.001,0.0001302085367132322,-0.0010272443824616275
0.20000000000000015,0.000430384808922586,-0.004562137381464696
0.4000000000000003,0.0038221995803562375,-0.0030080936701550125
0.6000000000000004,0.005927556443808463,5.987935010246073e-05
0.8000000000000006,0.010844441189226235,-0.00839814286406136
1.0000000000000007,0.014436345301324155,-0.0023458807629319353
1.2009999999999785,0.01624741024449522,-0.004248595312430855
1.4009999999999565,0.016515290812712496,-0.0035876600497761436
1.6009999999999345,0.0208002688860211,-0.009541953087252288
1.8009999999999124,0.02389480057081191,-0.01005244524910004
2.0009999999998906,0.0273617734453309,-0.0058526822486097635
2.2009999999998686,0.031028882462692687,-0.0024372291878549716
2.4009999999998466,0.03508394353495975,-0.00036235814601541765
2.6009999999998246,0.03903495822939961,0.0016333932662726267
2.8009999999998025,0.042970915543095255,0.004758786876090816
3.0009999999997805,0.0468014143686841,0.0053249076697280615
3.2009999999997585,0.05083272609428472,0.006414419380592606
3.4009999999997365,0.05421532763077677,0.007014244099379246
3.6009999999997144,0.05847414587099008,0.007984758651605292
3.8009999999996924,0.06133155442179605,0.009828095000142159
4.000999999999671,0.06696369044936719,0.010471805827578822
4.200999999999738,0.07117075544821963,0.011929048757624933
4.400999999999804,0.0732506752526363,0.016257003704482
4.600999999999871,0.07847305405495095,0.017894735371015446
4.800999999999938,0.08150437746817775,0.020286145021352626
5.000000000000004,0.08371650370703751,0.025915734856261315
5.200000000000071,0.0865269488139693,0.03166522948837208
5.400000000000138,0.09065446199663882,0.03397367454283699
5.600000000000205,0.0943383927618235,0.03555569220377261
5.800000000000272,0.09826442985415165,0.041041748223479904
6.000000000000338,0.10367205537706214,0.04286684767623535
6.200000000000405,0.10700524355011118,0.048098472779114575
6.400000000000472,0.10993031425382388,0.051792438280482155
6.600000000000539,0.11490649508535634,0.05492179226256168
6.800000000000606,0.11937041436331544,0.055602895766923115
7.000000000000672,0.12137671079470262,0.06200715250486874
7.200000000000739,0.12380092348025218,0.06636541359835775
7.400000000000806,0.13165988515507443,0.06721311668277055
7.600000000000873,0.1330264289103787,0.07353829331351545
7.8000000000009395,0.1347338539736123,0.0798630061040982
8.000000000001005,0.13800957458350338,0.08342620488445872
8.200000000000895,0.1415490018346825,0.08894068205066676
8.400000000000784,0.1424816859287667,0.09304286214940109
8.600000000000673,0.1435070601890596,0.09789146163574271
8.800000000000562,0.1433256659519404,0.10197796642755064
9.000000000000451,0.1417896564333291,0.10787370891896576
9.20000000000034,0.14593350022492863,0.11195559443673785
9.40000000000023,0.14717314885606508,0.11723287275998831
9.600000000000119,0.14426732016901447,0.12381790955581057
9.800000000000008,0.14711665918583047,0.12816238587169848
10.000999999999896,0.14577129599238367,0.13365057959864773
10.200999999999786,0.14675066441621773,0.13976024103528578
10.400999999999675,0.1456696899176622,0.145747628510398
10.600999999999564,0.14624282636994598,0.15278800730866263
10.800999999999453,0.15004564227775144,0.15899429946473273
11.000999999999342,0.15057413576857054,0.16533919631573116
11.200999999999231,0.14982791798548245,0.17225345791408556
11.40099999999912,0.147102833273834,0.17732685809023035
11.60099999999901,0.14800788384587657,0.18301511535625148
11.800999999998899,0.15033547777906833,0.18978783274807629
12.000999999998788,0.15078557187467898,0.19508706414752192
12.200999999998677,0.155158334984809,0.2021416655640523
12.400999999998566,0.15015250721215484,0.20765692568737582
12.600999999998455,0.14777848507884775,0.21240908764740166
12.800999999998345,0.1491042688189087,0.2173981941526379
13.000999999998234,0.1492569033004215,0.22341576419718914
13.200999999998123,0.14830727772877939,0.22744348943653703
13.400999999998012,0.14749821961400608,0.2324402973062926
13.600999999997901,0.14892805786357424,0.2387996513586364
13.80099999999779,0.14858032973857183,0.24366291351867347
14.00099999999768,0.14890359918841214,0.24807657069749744
14.200999999997569,0.1493857926804087,0.2543346550814964
14.400999999997458,0.14570860281192413,0.26007011831028787
14.600999999997347,0.1431514219260872,0.26674921871796015
14.800999999997236,0.14338208624431623,0.27170766955237735
15.000999999997125,0.14318845175605835,0.2783311450036603
15.200999999997014,0.14345285245846434,0.28560419460936615
15.400999999996904,0.13951098160288156,0.29122114933790394
15.600999999996793,0.13396881732528906,0.2948009276804569
15.800999999996682,0.13609966334770432,0.30046628709829043
16.000999999996573,0.13296580278417777,0.3048496969811826
16.200999999996817,0.13215396234742446,0.3096001340759818
16.40099999999706,0.13167645063618202,0.31636135446789104
16.600999999997306,0.13262903208875362,0.3232690531317463
16.80099999999755,0.13013686032831492,0.32775146339543226
17.000999999997795,0.1282667623806944,0.3343050385507674
17.20099999999804,0.12400342212429583,0.33714248510668027
17.400999999998284,0.12290217535813139,0.3435214427878148
17.60099999999853,0.11573374800194615,0.34564909573882674
17.800999999998773,0.11177779828159355,0.34812459942642165
18.000999999999017,0.10742571441442487,0.3502085143355039
18.20099999999926,0.10374070463038076,0.3550061013618467
18.400999999999506,0.1015112681109324,0.35934367744636947
18.60099999999975,0.09514297941871198,0.3628378480318923
18.799999999999994,0.08916661981720274,0.36514543317101833
19.000000000000238,0.08515272919101048,0.3674777930588931
19.200000000000482,0.08122000246260311,0.3700020914842106
19.400000000000727,0.07282673225013554,0.3695757086906897
19.60000000000097,0.06916763047971153,0.37302061624100363
19.800000000001216,0.06484384451267457,0.37579388908181593
20.00000000000146,0.05825600479325655,0.37798703660685734
