Time (s),X (m),Y (m)
0.001,-0.0005090653149319316,0.0007291460897812449
0.20000000000000015,0.0031850732809262728,-0.001443212145628255
0.4000000000000003,0.01497352633077358,-0.002677629265179706
0.6000000000000004,0.03829329409287403,-0.007072552920908758
0.8000000000000006,0.06454871596463717,-0.008047053523905686
1.0000000000000007,0.08582170833449816,-0.02732579267158135
1.2009999999999785,0.10045118273553384,-0.06193163733426616
1.4009999999999565,0.09573079586430973,-0.09751496343915632
1.6009999999999345,0.07211358954847512,-0.12890289586817358
1.8009999999999124,0.03226112151066733,-0.13469731132671295
2.0009999999998906,-0.011978569339685444,-0.1358510740338885
2.2009999999998686,-0.06294694093494216,-0.1281184208922394
2.4009999999998466,-0.1221423308847788,-0.09063454917774492
2.6009999999998246,-0.1798374632521377,-0.06084595747590243
2.8009999999998025,-0.22643740489503889,-0.034986402311989274
3.0009999999997805,-0.24343957081858544,0.0029151320836396668
3.2009999999997585,-0.23116052656684635,0.04608176239146305
3.4009999999997365,-0.1963517012402011,0.08204763629932328
3.6009999999997144,-0.15002243142126162,0.10238816219756781
3.8009999999996924,-0.09659342976316895,0.10679636709450695
4.000999999999671,-0.044833127512083,0.11225739432251046
4.200999999999738,0.0005964095312590586,0.10891823760580771
4.400999999999804,0.028242048104562312,0.08414419326276074
4.600999999999871,0.05491679318863626,0.05578343000298823
4.800999999999938,0.08245189256880717,0.02816311275527656
5.000000000000004,0.10187595859054414,-0.009978957282464842
5.200000000000071,0.11009084563786642,-0.05074659227979053
5.400000000000138,0.10338057043905681,-0.09765825650640694
5.600000000000205,0.09862164315789174,-0.15255986023118742
5.800000000000272,0.10151577216814575,-0.20588237928829733
6.000000000000338,0.08471583007980439,-0.24307029400474137
6.200000000000405,0.05302919202842518,-0.26236606586390304
6.400000000000472,0.011123619700125003,-0.2689894201575319
6.600000000000539,-0.02788161921924136,-0.2438689439503366
6.800000000000606,-0.054577502846307205,-0.20113094451577937
7.000000000000672,-0.06918060175753245,-0.1481727550446566
7.200000000000739,-0.06861871984479985,-0.0880627928515444
7.400000000000806,-0.043938709962525,-0.02402680747837214
7.600000000000873,-0.015341256300889911,0.038777601005991855
7.8000000000009395,0.02159394349261389,0.08378591691671168
8.000000000001005,0.07029979496154291,0.09857713065417921
8.200000000000895,0.12183096028092799,0.08930348557035363
8.400000000000784,0.15983811836721343,0.07500046522782558
8.600000000000673,0.1850272712103366,0.05041986549229626
8.800000000000562,0.19982764741762918,0.0168639659531348
9.000000000000451,0.18292975520518123,-0.019097724713273333
9.20000000000034,0.14445357085348126,-0.04389769311706382
9.40000000000023,0.10429233880104238,-0.06287683731588202
9.600000000000119,0.0656443597393306,-0.054502077120038815
9.800000000000008,0.03827517415970711,-0.023807640426852447
10.000999999999896,0.016753604794166713,0.015485200987548232
10.200999999999786,0.00047684415763798906,0.06044723165061939
10.400999999999675,0.0007984485044603219,0.12436980445136993
10.600999999999564,0.0034921355147741607,0.19877806158215486
10.800999999999453,0.019211493668737294,0.2768214337599719
11.000999999999342,0.040792876618461725,0.35538038178679426
11.200999999999231,0.080160440751589,0.4205174631086428
11.40099999999912,0.13752086352753626,0.4584185818326403
11.60099999999901,0.1990589477032445,0.4739915268691671
11.800999999998899,0.26582366592233064,0.46343850708603557
12.000999999998788,0.3235961253860126,0.4396715900567388
12.200999999998677,0.353927636866799,0.4004279748721009
12.400999999998566,0.34996348338293276,0.3525459059505551
12.600999999998455,0.3332486962434702,0.30208981205360114
12.800999999998345,0.295436006508394,0.2569771410836109
13.000999999998234,0.23738633690420813,0.23223509973609147
13.200999999998123,0.17800577125680536,0.24264676810362215
13.400999999998012,0.1287513980178497,0.2761819821801667
13.600999999997901,0.09447375703646503,0.3121847363608836
13.80099999999779,0.08415852139017584,0.35747768952454806
14.00099999999768,0.10165262140182543,0.41271247090003527
14.200999999997569,0.14694355717440175,0.4736955371549319
14.400999999997458,0.21549455011327542,0.5285446703273656
14.600999999997347,0.28040573238358724,0.5657743730909822
14.800999999997236,0.3429829166351583,0.5895609050567306
15.000999999997125,0.4082446130973524,0.599267280549847
15.200999999997014,0.47566612620147264,0.5973747584295859
15.400999999996904,0.5319569803983923,0.566422031069598
15.600999999996793,0.5692973621295292,0.521385296972219
15.800999999996682,0.5778687031589134,0.4673724490110202
16.000999999996573,0.5617219947530703,0.4125721305908808
16.200999999996817,0.5316494493221249,0.36021971190595964
16.40099999999706,0.48844210214388134,0.3240200444782528
16.600999999997306,0.43413156031704,0.3044944144585834
16.80099999999755,0.36996615279571,0.2955003673667311
17.000999999997795,0.30551126864025935,0.2927472715672559
17.20099999999804,0.23845288170478937,0.31310643562598556
17.400999999998284,0.18072304052475607,0.3398279616575481
17.60099999999853,0.13570713870804374,0.3776043780514345
17.800999999998773,0.09957931513281215,0.42669113982084117
18.000999999999017,0.07727591798684134,0.49030367535856645
18.20099999999926,0.07411944979777867,0.5643846951378905
18.400999999999506,0.08375468820029723,0.6418168579949103
18.60099999999975,0.10653558244722054,0.7102259755988076
18.799999999999994,0.1426906839585785,0.7593926450389569
19.000000000000238,0.1924722195305786,0.7828771590176864
19.200000000000482,0.24856682891545392,0.7690562328708329
19.400000000000727,0.2943980785385648,0.7139194575536962
19.60000000000097,0.3273723290623374,0.650136559474148
19.800000000001216,0.33321674906420845,0.5804978660615348
20.00000000000146,0.3350120312169718,0.5168509366380027
