Time (s),X (m),Y (m)
0.001,-0.0003713730577023104,0.0008446836120385872
0.20000000000000015,0.003868660662469056,-0.003348476231179736
0.4000000000000003,0.00766229832293467,-0.004622431549363968
0.6000000000000004,0.00900706982798825,-0.000838964932909168
0.8000000000000006,0.011456091942990613,-0.0010623153039156542
1.0000000000000007,0.01822616915328254,-0.0039491277960081
1.2009999999999785,0.021271488999639827,-0.0033932580330323253
1.4009999999999565,0.024439742660385275,-0.003598811198632405
1.6009999999999345,0.028871814547285556,-0.005603982493297034
1.8009999999999124,0.03292068994818868,-0.0067199271342450965
2.0009999999998906,0.0373849116329048,-0.007904184198404537
2.2009999999998686,0.04275433713237037,-0.009815970307066183
2.4009999999998466,0.048207854360129324,-0.01066837755511084
2.6009999999998246,0.05400151837118854,-0.012701072625805401
2.8009999999998025,0.059202159780952536,-0.014209412325823198
3.0009999999997805,0.06464829252597526,-0.016143651901505417
3.2009999999997585,0.069812654688048,-0.01734403111829874
3.4009999999997365,0.07585093193447243,-0.018959794161799923
3.6009999999997144,0.08156562658304509,-0.02010626133073125
3.8009999999996924,0.08688358464977845,-0.02114432148887487
4.000999999999671,0.09243757379315516,-0.022793053022811274
4.200999999999738,0.09875363225311837,-0.024929281238083204
4.400999999999804,0.10524798450618209,-0.025955153663385862
4.600999999999871,0.11179336030489623,-0.027975346150340443
4.800999999999938,0.11692820294922722,-0.029368555603133898
5.000000000000004,0.12374834004746395,-0.03177404411471203
5.200000000000071,0.13025402641826855,-0.033752410193806724
5.400000000000138,0.13532967574687924,-0.032761696372915566
5.600000000000205,0.14244004698894214,-0.03382854220243123
5.800000000000272,0.14854378112377986,-0.034202036870822516
6.000000000000338,0.1550289429628478,-0.035259400294440975
6.200000000000405,0.1622382943502365,-0.036431258051880654
6.400000000000472,0.16947737846261307,-0.03744436108310534
6.600000000000539,0.17406720180758792,-0.03589838651465952
6.800000000000606,0.18060753855249578,-0.036236565636366076
7.000000000000672,0.1869422832339171,-0.03628386393452397
7.200000000000739,0.19352263610904477,-0.0360788535485127
7.400000000000806,0.19898400855977233,-0.03497491030980311
7.600000000000873,0.20542398138080745,-0.03445816918870088
7.8000000000009395,0.21070451510692464,-0.0331838099457703
8.000000000001005,0.21654010151092912,-0.03224800293811191
8.200000000000895,0.222312767551046,-0.030945387741461123
8.400000000000784,0.22755404952495736,-0.029023704531216898
8.600000000000673,0.23309888640512677,-0.0270873991271911
8.800000000000562,0.23804201214184467,-0.02518171857047377
9.000000000000451,0.24314727018919266,-0.023381072088787598
9.20000000000034,0.24762035451777867,-0.021159966814825605
9.40000000000023,0.25195001601116324,-0.017267480231809528
9.600000000000119,0.25601457676685346,-0.014231301081968553
9.800000000000008,0.26015029172717097,-0.011869651907674778
10.000999999999896,0.2631846145751377,-0.009612461064418019
10.200999999999786,0.2660624484556005,-0.006984234849131203
10.400999999999675,0.2674224986266775,-0.002767404897847934
10.600999999999564,0.2716944334438243,0.0013102296484397008
10.800999999999453,0.27507562795994184,0.005271847318825104
11.000999999999342,0.2790749357134248,0.009456080986988639
11.200999999999231,0.279527113590026,0.014216381925478196
11.40099999999912,0.2833262285291389,0.019090383591819887
11.60099999999901,0.2866347899832897,0.024199299096932664
11.800999999998899,0.2894548336138134,0.028876727706580427
12.000999999998788,0.2934151628777879,0.03458547550268535
12.200999999998677,0.29555805739416796,0.04156211256087916
12.400999999998566,0.29764561832388403,0.04737125384378314
12.600999999998455,0.3002143479192319,0.053022070705704374
12.800999999998345,0.30232538720814195,0.05892133152312046
13.000999999998234,0.3048171016523786,0.06555276570366864
13.200999999998123,0.3062983550936438,0.07226295933010411
13.400999999998012,0.30760324928942234,0.07898710173823632
13.600999999997901,0.30943287361809924,0.08526113959326746
13.80099999999779,0.3112256187129337,0.09165726689452522
14.00099999999768,0.3127116149807092,0.09879796696062744
14.200999999997569,0.31337704219060203,0.10547446579135313
14.400999999997458,0.3144683905408281,0.11270413648642405
14.600999999997347,0.314706079740536,0.1190192316363766
14.800999999997236,0.31610869106739825,0.12581898240476458
15.000999999997125,0.3160599879402559,0.1313359422456575
15.200999999997014,0.31707568910218187,0.13873005255367754
15.400999999996904,0.3164811758305389,0.1450445235113971
15.600999999996793,0.31622942914840735,0.15125399839539982
15.800999999996682,0.31595158607967705,0.15701108397590383
16.000999999996573,0.3150455682150196,0.16222013698091958
16.200999999996817,0.3142684009789122,0.16918398919220293
16.40099999999706,0.31306121975337003,0.17535808232949607
16.600999999997306,0.31175832527484426,0.18109352084888786
16.80099999999755,0.3101525930909469,0.18641914010033742
17.000999999997795,0.308421653096897,0.19179521232182567
17.20099999999804,0.3057440047582937,0.19595760354616165
17.400999999998284,0.3032942445018653,0.19997552055327
17.60099999999853,0.3009312924584248,0.20393110162143263
17.800999999998773,0.29785208535727076,0.20896645152358362
18.000999999999017,0.2950892828210794,0.21394852519580268
18.20099999999926,0.29174310581231305,0.21819565920348868
18.400999999999506,0.2879961037012767,0.22224415515730342
18.60099999999975,0.2846691862489811,0.22619977045965378
18.799999999999994,0.28039281264860966,0.23045614622074165
19.000000000000238,0.27617462527862496,0.23427913108431545
19.200000000000482,0.27205331298311736,0.23780267675367403
19.400000000000727,0.26720477911395296,0.23906472752806995
19.60000000000097,0.26294683472596264,0.24366649153454326
19.800000000001216,0.2588337012906249,0.24731141498388962
20.00000000000146,0.2538719237000219,0.25099920325344266
