Time (s),X (m),Y (m)
0.001,0.0003099530129853942,-0.0010272443824616275
0.20000000000000015,0.0018211348939007332,0.0007208863087360349
0.4000000000000003,0.004573016364553377,0.0009200083715742733
0.6000000000000004,0.011475652925271357,0.004514032404166498
0.8000000000000006,0.019053227052280203,-0.005319704308950323
1.0000000000000007,0.030229206800739237,-0.0015413205901031865
1.2009999999999785,0.04325041310605967,0.001996378074905056
1.4009999999999565,0.04962397049238434,-0.007377390275542484
1.6009999999999345,0.05778894128298492,-0.013784670458062259
1.8009999999999124,0.07319912151588615,-0.01494624512785049
2.0009999999998906,0.08415816720793082,-0.027279378399069455
2.2009999999998686,0.09569762477944893,-0.031572198702769415
2.4009999999998466,0.1115764144611101,-0.030871026327109787
2.6009999999998246,0.1231376868690883,-0.044218754517231784
2.8009999999998025,0.1412597344154773,-0.05041419504968252
3.0009999999997805,0.1561306101075279,-0.0595262236905414
3.2009999999997585,0.17199097704039093,-0.05511271253311177
3.4009999999997365,0.18554563371710206,-0.055657088060794876
3.6009999999997144,0.19901729692535808,-0.06350376112882108
3.8009999999996924,0.22123628544691765,-0.06595440497024267
4.000999999999671,0.2360172104857691,-0.08162842727842584
4.200999999999738,0.2485466730675827,-0.09227038880321614
4.400999999999804,0.26550920368832415,-0.10081126495490901
4.600999999999871,0.28150613462521545,-0.10066164863110032
4.800999999999938,0.29887259008912737,-0.10144849714728342
5.000000000000004,0.3161856897839862,-0.10103732737794664
5.200000000000071,0.3286008589400905,-0.10076451600208854
5.400000000000138,0.34638735951547267,-0.10119498268876613
5.600000000000205,0.35370468431893015,-0.11258731259186743
5.800000000000272,0.3668857892879939,-0.1141035882435811
6.000000000000338,0.38111851682353953,-0.11625298060295215
6.200000000000405,0.3868073969470351,-0.1350520554721065
6.400000000000472,0.39845355932284,-0.14077241543357188
6.600000000000539,0.41012398132828554,-0.1535117713561668
6.800000000000606,0.42278774170538036,-0.16513916128634643
7.000000000000672,0.4318674571670948,-0.17945619880799926
7.200000000000739,0.45072883513767753,-0.18549357284084583
7.400000000000806,0.46778847392994094,-0.1909472687876212
7.600000000000873,0.47741340384357417,-0.20073066443157037
7.8000000000009395,0.48130042512423565,-0.21724015194413154
8.000000000001005,0.48324240462373835,-0.23254709995126124
8.200000000000895,0.4942205107628036,-0.24154996419348485
8.400000000000784,0.5080836296989883,-0.25137605259288953
8.600000000000673,0.524192203142945,-0.2562253237316554
8.800000000000562,0.5428724385305111,-0.25569869899978587
9.000000000000451,0.5597854231062689,-0.2645347119024978
9.20000000000034,0.5693395924677382,-0.26978334600093473
9.40000000000023,0.5875180270781746,-0.2686325864680467
9.600000000000119,0.6071997893317885,-0.27491991917937936
9.800000000000008,0.6221210105064093,-0.2736745699902519
10.000999999999896,0.6387895929076112,-0.2716686402594488
10.200999999999786,0.6587816500437619,-0.27281608546581604
10.400999999999675,0.6739715569869507,-0.2665220230393345
10.600999999999564,0.6927379576841969,-0.2619039144049464
10.800999999999453,0.710230449863988,-0.27330347721562404
11.000999999999342,0.7239274559777445,-0.2786576542950042
11.200999999999231,0.7373100899422474,-0.2931404493000243
11.40099999999912,0.7558397733862973,-0.2955934670629419
11.60099999999901,0.770518832101364,-0.303073052136856
11.800999999998899,0.7836631373452531,-0.3140991176903808
12.000999999998788,0.7965585777865914,-0.3308982972214522
12.200999999998677,0.8078612366121871,-0.3482398450729726
12.400999999998566,0.821070787020637,-0.35469953049964925
12.600999999998455,0.8396728472924377,-0.3619640479612476
12.800999999998345,0.8494154377972917,-0.37673609967734656
13.000999999998234,0.8498557730993428,-0.3967084576366
13.200999999998123,0.8600936748602475,-0.4059369152400443
13.400999999998012,0.8650688373113219,-0.4221416143871991
13.600999999997901,0.8765614255858953,-0.4354747341677989
13.80099999999779,0.8918152295058729,-0.45004266622638467
14.00099999999768,0.9124798402747754,-0.46012948681225635
14.200999999997569,0.9251222643682302,-0.4717917218915419
14.400999999997458,0.9297921448262961,-0.49350415608614656
14.600999999997347,0.9362553504663217,-0.5122556050825714
14.800999999997236,0.9453962626020321,-0.5193218001136426
15.000999999997125,0.9553058472027741,-0.5303723937509268
15.200999999997014,0.9630939596968627,-0.5490910691396114
15.400999999996904,0.9734243801492307,-0.5602552224096791
15.600999999996793,0.9942800954264348,-0.5653080539180566
15.800999999996682,1.0141223211596642,-0.5730439815516255
16.000999999996573,1.0255245842828293,-0.5776179079877697
16.200999999996817,1.0400839274685527,-0.5747499644257937
16.40099999999706,1.0504923614339297,-0.5840963602483129
16.600999999997306,1.0609472170019731,-0.5881427043496972
16.80099999999755,1.0781964508012272,-0.6011289346584202
17.000999999997795,1.0929417074087655,-0.6126946550840434
17.20099999999804,1.1072785951089386,-0.6226089291922956
17.400999999998284,1.1217197334799693,-0.6344212818388099
17.60099999999853,1.1345055535920383,-0.6509353880367179
17.800999999998773,1.1465249010650196,-0.6642461663392737
18.000999999999017,1.1596049697491473,-0.6780015210297505
18.20099999999926,1.1767458672351288,-0.6892503558513781
18.400999999999506,1.1909723098583367,-0.6995471645459129
18.60099999999975,1.1988080122000742,-0.7140583533270551
18.799999999999994,1.212693362644183,-0.7250313343258431
19.000000000000238,1.226764007389033,-0.7351933632117701
19.200000000000482,1.2408108208416146,-0.7446999713605064
19.400000000000727,1.252393788274643,-0.7583688734980039
19.60000000000097,1.26523687210823,-0.766445075701951
19.800000000001216,1.2770731398180422,-0.7742011902423193
20.00000000000146,1.2845072969584517,-0.7893975181203996
