Time (s),X (m),Y (m)
0.001,0.0012512490639692614,0.0
0.20000000000000015,-0.0004966107658840331,-0.0006103485775682335
0.4000000000000003,0.0024914307261735716,-0.001843865483564239
0.6000000000000004,0.006108108335059163,-0.00552548909116191
0.8000000000000006,0.016680236887154545,-0.008558291382643801
1.0000000000000007,0.03624905635317264,-0.008650081474920884
1.2009999999999785,0.05317154932035506,-0.010960038007409282
1.4009999999999565,0.0853426771252826,-0.024376850228163306
1.6009999999999345,0.11464601789168605,-0.03909661602033437
1.8009999999999124,0.13699605308187496,-0.05479076338949416
2.0009999999998906,0.161122723744071,-0.0661202552267486
2.2009999999998686,0.19127413906702223,-0.07400065759623185
2.4009999999998466,0.22859081458755398,-0.09842628359778408
2.6009999999998246,0.26255610100314497,-0.11985521612771467
2.8009999999998025,0.29399403748295705,-0.1434665822931143
3.0009999999997805,0.32355264459422184,-0.17611833959355785
3.2009999999997585,0.33980835471498394,-0.20675723231831472
3.4009999999997365,0.34285371834425976,-0.2345913771867768
3.6009999999997144,0.33738615672950306,-0.26265689090218464
3.8009999999996924,0.3268974023685365,-0.2936530244349776
4.000999999999671,0.31356479836862283,-0.3234141328501885
4.200999999999738,0.29517036434945754,-0.3540583215619111
4.400999999999804,0.2703977339497985,-0.3881647051420036
4.600999999999871,0.24221968883355394,-0.42625408568553447
4.800999999999938,0.20938497906795422,-0.46765129604130284
5.000000000000004,0.17990774421543246,-0.5106240769126424
5.200000000000071,0.14087286095995408,-0.5373606448633684
5.400000000000138,0.09994271005611587,-0.54386769219636
5.600000000000205,0.054527634654081024,-0.5355501939876401
5.800000000000272,0.007160122436143503,-0.5156409791841262
6.000000000000338,-0.03824528331755807,-0.4943940805003912
6.200000000000405,-0.08022486564951815,-0.47301187333109806
6.400000000000472,-0.12567700228044124,-0.4425021541479964
6.600000000000539,-0.16104810295464983,-0.4075518412966898
6.800000000000606,-0.18026827965962078,-0.37774175915771335
7.000000000000672,-0.17689086676792332,-0.33724921260972945
7.200000000000739,-0.1641536894942969,-0.2963786908801441
7.400000000000806,-0.15262458867420844,-0.2693038486560152
7.600000000000873,-0.13008399814545762,-0.2333077450157351
7.8000000000009395,-0.1038139485354331,-0.1944551877457832
8.000000000001005,-0.08844469278627741,-0.17207122494709068
8.200000000000895,-0.07386593706626712,-0.13353663589099746
8.400000000000784,-0.059443955640852496,-0.09288234955204137
8.600000000000673,-0.04317607747500353,-0.06200101767351474
8.800000000000562,-0.024718285377192072,-0.0331675021495684
9.000000000000451,-0.003404785230171998,0.009552637936386261
9.20000000000034,0.017360216680464072,0.04882563051972943
9.40000000000023,0.0431618456176149,0.0962971951302153
9.600000000000119,0.05878975376080074,0.1294927901414948
9.800000000000008,0.07407656942246843,0.1721727169759432
10.000999999999896,0.0978246374067749,0.22756774050263937
10.200999999999786,0.13164936876262678,0.2840017684564718
10.400999999999675,0.1657383025406238,0.33643571679417233
10.600999999999564,0.2014955720976862,0.38780256366039156
10.800999999999453,0.24777381505128235,0.43227526557781903
11.000999999999342,0.29051131774693006,0.4621465739143245
11.200999999999231,0.32822958817340714,0.4677733336970581
11.40099999999912,0.3760958122762696,0.45952798771307657
11.60099999999901,0.4228647463465282,0.44062481635978623
11.800999999998899,0.4683333267372391,0.41352293032346826
12.000999999998788,0.5187723658075364,0.38543317531090415
12.200999999998677,0.5749412040926635,0.35411565911562476
12.400999999998566,0.6364647108666424,0.31775854760914185
12.600999999998455,0.6934549039981078,0.28601175167556897
12.800999999998345,0.7518499388573834,0.2510210507305404
13.000999999998234,0.8025549300661489,0.2118606166146991
13.200999999998123,0.8544173561644054,0.16544662726418943
13.400999999998012,0.9000597371412583,0.11661641670179879
13.600999999997901,0.9304564123525799,0.07436799133546622
13.80099999999779,0.9368275719902965,0.040467574958960716
14.00099999999768,0.9266155245708152,0.000989115063464675
14.200999999997569,0.9153571025038701,-0.04610893024356047
14.400999999997458,0.8979526348563127,-0.0997762203796906
14.600999999997347,0.8785172748541394,-0.14786577911870893
14.800999999997236,0.854105079239684,-0.19450936770999683
15.000999999997125,0.8278464459002138,-0.24494956578592933
15.200999999997014,0.8078241497266179,-0.2920093292052773
15.400999999996904,0.7840204863865364,-0.3381322236152526
15.600999999996793,0.7575871634527145,-0.38875494388132253
15.800999999996682,0.7191190291549248,-0.4437071268736825
16.000999999996573,0.6688854541526028,-0.49619719262208567
16.200999999996817,0.6176226023589896,-0.5228975431135208
16.40099999999706,0.5672183148761452,-0.5195560396381735
16.600999999997306,0.5214353151378939,-0.5000216709178581
16.80099999999755,0.4923395527854923,-0.4843187373329316
17.000999999997795,0.4568016877465543,-0.459904203036709
17.20099999999804,0.4103323555479722,-0.42427479329190493
17.400999999998284,0.3601177651562042,-0.37252560809489005
17.60099999999853,0.3381867921856452,-0.31950139564447105
17.800999999998773,0.34474435180509444,-0.2631812804906383
18.000999999999017,0.3629468354468159,-0.21518887302521444
18.20099999999926,0.38836011276201715,-0.16666736188968598
18.400999999999506,0.41322346962801126,-0.11733136913029098
18.60099999999975,0.4440552475615405,-0.0631662584927835
18.799999999999994,0.4718731086187674,-0.011172773649979139
19.000000000000238,0.49647767658793635,0.024538450531227093
19.200000000000482,0.5475663797789,0.047211715873134344
19.400000000000727,0.5881512352390372,0.060274122095918474
19.60000000000097,0.6317429475166764,0.06370889167699915
19.800000000001216,0.6773978454629946,0.05952027979332795
20.00000000000146,0.7252847360916395,0.05133946126068063
