Time (s),X (m),Y (m)
0.001,0.0011130987088041246,0.0005155841445599734
0.20000000000000015,-0.0013330316538962246,-0.0017787269356630752
0.4000000000000003,0.006089404968146552,0.0019016636613262132
0.6000000000000004,0.02016298360942044,0.003406528309132121
0.8000000000000006,0.03282002388757747,0.008961487692657935
1.0000000000000007,0.03080334318940208,0.00858893613853521
1.2009999999999785,0.03737818280073994,0.014729084356556935
1.4009999999999565,0.04611004089796289,0.006770071420569704
1.6009999999999345,0.05342655414965334,-0.002122065729147217
1.8009999999999124,0.06667315173238922,-0.001796407937177365
2.0009999999998906,0.07722325179649128,-0.0015729621722872138
2.2009999999998686,0.08352575429718001,-0.008559628102441997
2.4009999999998466,0.10744758655139149,-0.007890704907437264
2.6009999999998246,0.13180093943630564,0.0011048507847723989
2.8009999999998025,0.14371391495858135,0.016109731792923878
3.0009999999997805,0.15554076796013985,0.02194582344198165
3.2009999999997585,0.16608295311678803,0.026614369659692116
3.4009999999997365,0.18493996014141428,0.04020979365290442
3.6009999999997144,0.20007800769424927,0.05038502925624329
3.8009999999996924,0.21563198314308388,0.049795228805328655
4.000999999999671,0.23009899117024576,0.05033408248915157
4.200999999999738,0.2512220568090188,0.05677250815529481
4.400999999999804,0.2746046820930187,0.061445649024174334
4.600999999999871,0.301727591835568,0.07328806666304774
4.800999999999938,0.3337002932843715,0.09395631985318985
5.000000000000004,0.3562500785279533,0.11215009654590988
5.200000000000071,0.3792424858357786,0.12440336827130057
5.400000000000138,0.4074959916444656,0.14691957212466705
5.600000000000205,0.437183317875703,0.16637638536634378
5.800000000000272,0.4585363239470371,0.1754045128348275
6.000000000000338,0.47836396627889294,0.18039004294149463
6.200000000000405,0.5002072053471818,0.18825384645443527
6.400000000000472,0.5196391671807348,0.19546584066403982
6.600000000000539,0.542634933496513,0.20991593466077405
6.800000000000606,0.5598096705672675,0.21623371966425559
7.000000000000672,0.581807226637265,0.2271451051205869
7.200000000000739,0.6058427594131361,0.237763134086022
7.400000000000806,0.6285803674697908,0.2519434765375826
7.600000000000873,0.6514877036895068,0.26393987378532885
7.8000000000009395,0.6697037426845976,0.28271649389260406
8.000000000001005,0.6879372988420618,0.3031357311126312
8.200000000000895,0.7084826799876359,0.3070730965676878
8.400000000000784,0.7276635030027266,0.32362820371645834
8.600000000000673,0.7505392830045127,0.34386904617153724
8.800000000000562,0.7744986984366705,0.35866066477921454
9.000000000000451,0.7923091766091478,0.37484609284766335
9.20000000000034,0.814009633436108,0.39378184795635646
9.40000000000023,0.8366543458699913,0.41183219707465046
9.600000000000119,0.8523843279434273,0.4326712835663356
9.800000000000008,0.8748254280761161,0.46498087595528564
10.000999999999896,0.8982791689141675,0.48335254931904453
10.200999999999786,0.9142921817859361,0.5121095385668938
10.400999999999675,0.9262418955574748,0.5394806587540212
10.600999999999564,0.941339805894433,0.5542122993568297
10.800999999999453,0.9624640734281746,0.5750320258938687
11.000999999999342,0.980400888207756,0.5937627206360306
11.200999999999231,1.000402816062108,0.6152665756753791
11.40099999999912,1.0149786210012817,0.6398415758701038
11.60099999999901,1.0315062641641406,0.66166550917005
11.800999999998899,1.0426971868140211,0.6935456115382869
12.000999999998788,1.0528502203485006,0.7228254465474518
12.200999999998677,1.0671231614485281,0.7528888873897382
12.400999999998566,1.0854261080488459,0.7796551960333881
12.600999999998455,1.1004391674266003,0.8075205187190975
12.800999999998345,1.1169746434595729,0.8375222814730625
13.000999999998234,1.1366577315573423,0.8598764896417466
13.200999999998123,1.155742916582235,0.8824906157486687
13.400999999998012,1.1717769871427877,0.9108254720291837
13.600999999997901,1.1836115787897026,0.9338471539752733
13.80099999999779,1.1928155583982432,0.9599649450055333
14.00099999999768,1.199440313235292,0.9810708396108229
14.200999999997569,1.2113985226819979,1.0029164515471671
14.400999999997458,1.2214354189054868,1.0273143289982745
14.600999999997347,1.2241429038318339,1.0520826387897992
14.800999999997236,1.2250111245990791,1.074815330144823
15.000999999997125,1.222254611777084,1.0966814603707173
15.200999999997014,1.2186181107319116,1.1160683605087358
15.400999999996904,1.2199780947279135,1.1303455384289804
15.600999999996793,1.2236628888892793,1.1488980669378108
15.800999999996682,1.2287333774967968,1.16892937788082
16.000999999996573,1.2332091366312619,1.1959310374937957
16.200999999996817,1.2442981437709861,1.2185114192682203
16.40099999999706,1.2517835998475393,1.2485190957213612
16.600999999997306,1.2625537266492532,1.2691307628430395
16.80099999999755,1.2791067759961061,1.296419822704281
17.000999999997795,1.292709817435402,1.315784791323042
17.20099999999804,1.3036931746175255,1.3421143031514804
17.400999999998284,1.3196446240796236,1.3755358404213256
17.60099999999853,1.3445286523050155,1.3967439643403872
17.800999999998773,1.366210351165467,1.4313293352822327
18.000999999999017,1.381847025443093,1.4627501580155933
18.20099999999926,1.3918549765642323,1.4824427688145487
18.400999999999506,1.406946211470849,1.499332774113535
18.60099999999975,1.4254531796385543,1.5196246587737792
18.799999999999994,1.4357896033385782,1.5417636649299515
19.000000000000238,1.4455566297885156,1.5683168857442027
19.200000000000482,1.4485381766185548,1.6105522228508626
19.400000000000727,1.4557168040223798,1.6391580007641813
19.60000000000097,1.461400140625918,1.6613942230488021
19.800000000001216,1.467805696297939,1.6952067686796426
20.00000000000146,1.4715136542330451,1.7242360840151374
