Time (s),X (m),Y (m)
0.001,-0.0007489004572251305,-0.00035268032603768894
0.20000000000000015,0.005420549651505108,0.0004066277250592265
0.4000000000000003,0.011043105816422233,0.0022665797806023865
0.6000000000000004,0.019013524005474614,0.004599646837216735
0.8000000000000006,0.051923463259854634,0.007609110174597536
1.0000000000000007,0.07739296574815242,0.005126080248082562
1.2009999999999785,0.10266040351973715,-0.0006258406384839879
1.4009999999999565,0.12828370145466828,-0.013822266282388083
1.6009999999999345,0.1538109018570786,-0.029724248962276517
1.8009999999999124,0.1693937572021199,-0.043307227468338476
2.0009999999998906,0.1890360406250588,-0.056307427066768445
2.2009999999998686,0.21841687882702315,-0.07354683021013249
2.4009999999998466,0.2643129924984499,-0.09488987951251085
2.6009999999998246,0.3004247642291266,-0.11853023514345089
2.8009999999998025,0.3299802423347168,-0.1435330609553115
3.0009999999997805,0.36442793241861865,-0.17222812712527838
3.2009999999997585,0.39350563622829654,-0.19593649125946092
3.4009999999997365,0.4231008769628133,-0.22189525238241015
3.6009999999997144,0.45074473528555176,-0.24833705126975492
3.8009999999996924,0.46182205107007207,-0.2789115368866047
4.000999999999671,0.463535710940592,-0.3007851502902602
4.200999999999738,0.45967791031787597,-0.31157216105910923
4.400999999999804,0.4449001469265784,-0.33056861421799766
4.600999999999871,0.4255763354839312,-0.36002438143035825
4.800999999999938,0.40422900240166115,-0.39471758157270015
5.000000000000004,0.37998333519614996,-0.43770377451926
5.200000000000071,0.3493414515991235,-0.4865380180983276
5.400000000000138,0.31543837656387896,-0.5344735380469647
5.600000000000205,0.27783797859477155,-0.574580463296174
5.800000000000272,0.24128370141517952,-0.6138534952350632
6.000000000000338,0.20324483291592213,-0.6554978674995524
6.200000000000405,0.16125206256389324,-0.7041921300227514
6.400000000000472,0.11493292757348436,-0.7574653274043573
6.600000000000539,0.07120673485624737,-0.8103721247218798
6.800000000000606,0.017865979802885307,-0.866134944112454
7.000000000000672,-0.04626276747832713,-0.9184239803243536
7.200000000000739,-0.10736652936317773,-0.9475431995274249
7.400000000000806,-0.15693393143662712,-0.9514381645101909
7.600000000000873,-0.2027670674055841,-0.9331327195244143
7.8000000000009395,-0.24768274027727602,-0.9005976587708839
8.000000000001005,-0.3046362168812012,-0.8571459710083597
8.200000000000895,-0.36876895402137627,-0.8019676756990503
8.400000000000784,-0.43704575757673697,-0.7350075259074608
8.600000000000673,-0.5004848347880485,-0.6749313203084126
8.800000000000562,-0.5572516449985392,-0.6102843999621022
9.000000000000451,-0.5897109224151784,-0.5413915442459349
9.20000000000034,-0.58853638337027,-0.4845725563911191
9.40000000000023,-0.5613345667826454,-0.42684530390236924
9.600000000000119,-0.5216965889586681,-0.3688993183482558
9.800000000000008,-0.4777877988090053,-0.3172320076879088
10.000999999999896,-0.4341642051080097,-0.27201363862056493
10.200999999999786,-0.38653304671710437,-0.21810002184446006
10.400999999999675,-0.3353517068732884,-0.15773518364473296
10.600999999999564,-0.2834105689167209,-0.09616654594750813
10.800999999999453,-0.23003755740504866,-0.03012678249590215
11.000999999999342,-0.17146133919315984,0.029143959600955716
11.200999999999231,-0.10825166677353251,0.09340214791437518
11.40099999999912,-0.048740239858102045,0.15564645073338054
11.60099999999901,0.011837641942199125,0.21124907828882228
11.800999999998899,0.07457804177183666,0.24543516660453563
12.000999999998788,0.13497680929511902,0.2436568704462769
12.200999999998677,0.18750379540539822,0.22098911236340338
12.400999999998566,0.23313666356327514,0.18712196112783444
12.600999999998455,0.28045268639462395,0.1464701296813428
12.800999999998345,0.33651193432464305,0.10333490624517479
13.000999999998234,0.40091216052133105,0.0600076919276465
13.200999999998123,0.462621387719295,0.01531183006259535
13.400999999998012,0.5156179922050496,-0.032501899679036245
13.600999999997901,0.5695092949705609,-0.08640329772713701
13.80099999999779,0.6299327048464899,-0.15329625940894767
14.00099999999768,0.6850660043046687,-0.21209633505135844
14.200999999997569,0.7306415580699935,-0.2657181224321643
14.400999999997458,0.7527000857969044,-0.3107012737020167
14.600999999997347,0.7419104804184133,-0.35198093767693733
14.800999999997236,0.7118577199637284,-0.3992629681090927
15.000999999997125,0.6705420959356828,-0.4470765811236833
15.200999999997014,0.6232495294314754,-0.49777487715052127
15.400999999996904,0.5736411142267961,-0.5481595587057104
15.600999999996793,0.5244337957436562,-0.587308318042711
15.800999999996682,0.477616633104376,-0.6025011545362648
16.000999999996573,0.42691216797700665,-0.5941481443442109
16.200999999996817,0.3669813614361632,-0.5695136896695624
16.40099999999706,0.2966360205111042,-0.5331667953394849
16.600999999997306,0.23246499111270086,-0.4894567862181021
16.80099999999755,0.15556227892341,-0.44373827665101073
17.000999999997795,0.08291472335421941,-0.39223579121133767
17.20099999999804,0.01336019616704474,-0.33053688889330973
17.400999999998284,-0.05097440543856647,-0.271363325314366
17.60099999999853,-0.1157204214615106,-0.2146818843731229
17.800999999998773,-0.17375043692159559,-0.14900854591925675
18.000999999999017,-0.2108971096982544,-0.08599569526761994
18.20099999999926,-0.21630768742637516,-0.02982204285588962
18.400999999999506,-0.1958345312988028,0.023857977380708644
18.60099999999975,-0.15471021893737633,0.0796604990810515
18.799999999999994,-0.106748329599492,0.13580177427396903
19.000000000000238,-0.04759396226691516,0.19260138820472458
19.200000000000482,0.014668050645876748,0.2466436843292586
19.400000000000727,0.07736257749350386,0.29708309257487886
19.60000000000097,0.1292399362116494,0.336190855375385
19.800000000001216,0.17576127025261098,0.34663675112761433
20.00000000000146,0.2183842564904166,0.3333327343696391
