Time (s),X (m),Y (m)
0.001,0.0001302085367132322,-0.0010272443824616275
0.20000000000000015,0.000778606905597158,0.0003710539706692844
0.4000000000000003,0.0030379258345706686,-0.0006951823733060868
0.6000000000000004,0.005958512196242096,0.0038122646189750944
0.8000000000000006,0.009293860772112928,0.0002994229305348222
1.0000000000000007,0.0112952444197026,0.0053313420521093335
1.2009999999999785,0.01364799798575392,0.01074879681879228
1.4009999999999565,0.018875996433815663,-0.001342040203632663
1.6009999999999345,0.02501040464003732,-0.014684276724929184
1.8009999999999124,0.02955695014843307,-0.0184813592754306
2.0009999999998906,0.03173887618927513,-0.0146216621587722
2.2009999999998686,0.037079954464297016,-0.020753005173249364
2.4009999999998466,0.04187444122694144,-0.027918647273757816
2.6009999999998246,0.04595809123640176,-0.02977263146230525
2.8009999999998025,0.05113622484818933,-0.03848134943675822
3.0009999999997805,0.05687816098966832,-0.04562586421089167
3.2009999999997585,0.06317157981575004,-0.05262090553276914
3.4009999999997365,0.06745915052050022,-0.043179292485016056
3.6009999999997144,0.07262002368297911,-0.050429925452826575
3.8009999999996924,0.07637184553364568,-0.04276642054295307
4.000999999999671,0.08092617203916017,-0.04644640564661021
4.200999999999738,0.08495019102918742,-0.04297452211555173
4.400999999999804,0.08966180391526712,-0.041440193575677756
4.600999999999871,0.09310527521835149,-0.03802637279098333
4.800999999999938,0.09756205593659462,-0.034552467632120436
5.000000000000004,0.10168111418180695,-0.026022498868427158
5.200000000000071,0.10681772137802041,-0.031531414158937704
5.400000000000138,0.10986949642466007,-0.03232748967012301
5.600000000000205,0.11431750819122764,-0.02953188132151242
5.800000000000272,0.11996496941042772,-0.03242041954642341
6.000000000000338,0.12502792663105697,-0.033764218882509696
6.200000000000405,0.12910670560050727,-0.027997325645876973
6.400000000000472,0.1349855236377683,-0.03176919934161253
6.600000000000539,0.13897893882665546,-0.03513241090689625
6.800000000000606,0.14362783939707813,-0.03274645480115597
7.000000000000672,0.14993513268329872,-0.03552729685130565
7.200000000000739,0.1548115507706945,-0.04147617743918784
7.400000000000806,0.15862172865627183,-0.042183825322955434
7.600000000000873,0.16298952533916705,-0.03787854115880167
7.8000000000009395,0.16854172409565457,-0.04041832278200432
8.000000000001005,0.17311629750263818,-0.04282299199058207
8.200000000000895,0.17702613469268258,-0.04113989505643368
8.400000000000784,0.18539164761236587,-0.05323107794365382
8.600000000000673,0.1937686360250617,-0.05780545633858004
8.800000000000562,0.19898410977450218,-0.055439444866088046
9.000000000000451,0.20511257894979354,-0.06042516347928674
9.20000000000034,0.21338910380052534,-0.06949569224058655
9.40000000000023,0.21960218166612647,-0.0675462426511456
9.600000000000119,0.22454404531242655,-0.06510286681274619
9.800000000000008,0.23112944235850727,-0.07108113208266063
10.000999999999896,0.2351254410023716,-0.06497712847264914
10.200999999999786,0.241792338231771,-0.06922156546035932
10.400999999999675,0.2468671220875333,-0.07190399060097141
10.600999999999564,0.2506710748951539,-0.06657033870682041
10.800999999999453,0.2557870408327329,-0.06710109562426203
11.000999999999342,0.26104777715681127,-0.06923950795413492
11.200999999999231,0.26611602759319036,-0.07063012730844663
11.40099999999912,0.2701446232153055,-0.07217291031958115
11.60099999999901,0.2739155627825409,-0.06645321802256889
11.800999999998899,0.280480580214996,-0.06941307945767097
12.000999999998788,0.28435749856693454,-0.06652123062330512
12.200999999998677,0.2892466780583788,-0.059183823873100616
12.400999999998566,0.29271211204639896,-0.05190830437326339
12.600999999998455,0.2986489744972266,-0.05601337157457292
12.800999999998345,0.3040160254213168,-0.05732526315244197
13.000999999998234,0.30895132860425983,-0.05998266428947711
13.200999999998123,0.313460109044636,-0.056013983379740596
13.400999999998012,0.3213568271310744,-0.06285910828052459
13.600999999997901,0.32423478100940656,-0.058026417471815694
13.80099999999779,0.33115263866696243,-0.05997989036523695
14.00099999999768,0.33640317844776196,-0.06392730645910875
14.200999999997569,0.3412151306251957,-0.06594319621661913
14.400999999997458,0.34614858517287583,-0.06318563296931258
14.600999999997347,0.35262125910533315,-0.06490273975117054
14.800999999997236,0.3553824817233472,-0.06208291218255455
15.000999999997125,0.3629492385868685,-0.06728174614248238
15.200999999997014,0.3666534818784581,-0.06793062300928769
15.400999999996904,0.37207119592283516,-0.06606489871772692
15.600999999996793,0.3790078007095443,-0.06974543367149297
15.800999999996682,0.38438646636460266,-0.0722135385141934
16.000999999996573,0.388043760854185,-0.07223118146196135
16.200999999996817,0.39229517005647757,-0.07001586393830776
16.40099999999706,0.39853563627225097,-0.07191244442487453
16.600999999997306,0.4043146952615343,-0.07574953241877805
16.80099999999755,0.4086092221768728,-0.07589048914075704
17.000999999997795,0.412535306261405,-0.06886997782637497
17.20099999999804,0.4196297559768532,-0.07574981789911905
17.400999999998284,0.4230066603181127,-0.07234057602570614
17.60099999999853,0.43055806211336306,-0.07766746196660694
17.800999999998773,0.43339545622810793,-0.06807021672955496
18.000999999999017,0.4394329692211764,-0.06710822960924362
18.20099999999926,0.4430754279561181,-0.05765478764704743
18.400999999999506,0.4467543055944124,-0.05473991524695442
18.60099999999975,0.4520760551606027,-0.05528949572782065
18.799999999999994,0.4577421428680445,-0.062437121637468944
19.000000000000238,0.46568878062448177,-0.06784554548154466
19.200000000000482,0.4725433229540345,-0.06355877685771574
19.400000000000727,0.4754729138329884,-0.05304690229035549
19.60000000000097,0.4822546982735515,-0.058000313363283686
19.800000000001216,0.4870605595898608,-0.058359003159689324
20.00000000000146,0.4925335099856984,-0.055392318865663495
