Time (s),X (m),Y (m)
0.001,0.0012473251573109415,8.987223813608099e-05
0.20000000000000015,-0.0033887150970585193,-0.0005092360887462437
0.4000000000000003,0.006801083548580408,-0.0018106283134030922
0.6000000000000004,0.023981022619095033,-0.007968931817757458
0.8000000000000006,0.050412724998012255,-0.022688554277706677
1.0000000000000007,0.07359060607921127,-0.03606452297183839
1.2009999999999785,0.09219779058249007,-0.04821606159390893
1.4009999999999565,0.11251185706398886,-0.06259843335919843
1.6009999999999345,0.1295793938047033,-0.07440698669870613
1.8009999999999124,0.15487323474196965,-0.08857143063144225
2.0009999999998906,0.18858077742670828,-0.10741501750340637
2.2009999999998686,0.21253348409270376,-0.12598492732398017
2.4009999999998466,0.24358068503637467,-0.14892705837693623
2.6009999999998246,0.2821369304434926,-0.173997327092042
2.8009999999998025,0.3112109359041253,-0.19648082035220352
3.0009999999997805,0.3457286592100834,-0.22179935980147458
3.2009999999997585,0.3841660500861576,-0.24730969413506906
3.4009999999997365,0.42237639913481695,-0.2735356480781456
3.6009999999997144,0.4547326262092947,-0.2898277873280104
3.8009999999996924,0.4914934931971009,-0.3074096894599407
4.000999999999671,0.5312545025043872,-0.33139848659223187
4.200999999999738,0.5791685903248237,-0.3603742316487767
4.400999999999804,0.6285493526758027,-0.3929601139481554
4.600999999999871,0.6702366028357356,-0.42418246985440444
4.800999999999938,0.6847119849542215,-0.47691950211850054
5.000000000000004,0.6822284178305318,-0.5211728796973932
5.200000000000071,0.6701587291090538,-0.555750004149325
5.400000000000138,0.6522769833366382,-0.5964625312125882
5.600000000000205,0.6318211999020575,-0.6313208617678485
5.800000000000272,0.6103898593824425,-0.6751846565717508
6.000000000000338,0.5864782244574878,-0.7175064539080837
6.200000000000405,0.559328411364726,-0.76212464869904
6.400000000000472,0.5232626041099534,-0.813509301302468
6.600000000000539,0.4870752730657363,-0.8624101354707899
6.800000000000606,0.4493609209184964,-0.9062081919574588
7.000000000000672,0.4115438007966766,-0.931701980676892
7.200000000000739,0.36694625365732514,-0.9360528195769544
7.400000000000806,0.3196209499646472,-0.9232643306735919
7.600000000000873,0.26578820335918485,-0.8935711700646857
7.8000000000009395,0.21291026780782452,-0.8628054751499284
8.000000000001005,0.159306114607553,-0.8301231961159361
8.200000000000895,0.10881381699083885,-0.7962928174053421
8.400000000000784,0.060234473017244966,-0.7563351644302635
8.600000000000673,0.010164205568959899,-0.7140784643216528
8.800000000000562,-0.037928284815187695,-0.6652138036973325
9.000000000000451,-0.07204530447971252,-0.6218373838715263
9.20000000000034,-0.0828736151280259,-0.5784572401805645
9.40000000000023,-0.07477110081386569,-0.5300414839406731
9.600000000000119,-0.0607786890785996,-0.48251326648756454
9.800000000000008,-0.034717186952854355,-0.4293965924705689
10.000999999999896,-0.0015298014650463394,-0.37467354166917954
10.200999999999786,0.03243997891936941,-0.32018018401446957
10.400999999999675,0.06632711428508195,-0.2645127775021812
10.600999999999564,0.10547339924630927,-0.21049533551013053
10.800999999999453,0.15031412090178162,-0.14836164274214755
11.000999999999342,0.20015673997894234,-0.08574254429671992
11.200999999999231,0.255702618983332,-0.024303239822795485
11.40099999999912,0.314122660701691,0.010238558069500364
11.60099999999901,0.37498296844451273,0.009902803380402746
11.800999999998899,0.4266608996823212,-0.009668524924715934
12.000999999998788,0.47517822309264013,-0.035898277231926984
12.200999999998677,0.5289497932134202,-0.06328651194203863
12.400999999998566,0.580198519201697,-0.09056634029054202
12.600999999998455,0.6306861404019345,-0.11184625589646088
12.800999999998345,0.6817585765006291,-0.129756266171172
13.000999999998234,0.7352742463358498,-0.15453104702434792
13.200999999998123,0.7858285935800817,-0.1901648089502238
13.400999999998012,0.846713310283657,-0.234403037769532
13.600999999997901,0.9141266656082107,-0.2800755692883698
13.80099999999779,0.970205100267621,-0.32011396583447016
14.00099999999768,1.0295624849859104,-0.3592847770327081
14.200999999997569,1.0847210993346939,-0.39278257428982905
14.400999999997458,1.119553776845477,-0.4312139022699244
14.600999999997347,1.1272065270735587,-0.47259975590970416
14.800999999997236,1.1113331555005037,-0.5256120557196139
15.000999999997125,1.0867014030972926,-0.5806628665292659
15.200999999997014,1.0590420905096474,-0.6381612872244169
15.400999999996904,1.0343671620462025,-0.6900182807134992
15.600999999996793,1.0015892873502383,-0.7197305664343613
15.800999999996682,0.9704869165379951,-0.7200828227169754
16.000999999996573,0.9263707008921801,-0.708084067212198
16.200999999996817,0.8741179609087866,-0.6870958432698414
16.40099999999706,0.8184007734929507,-0.6593253337837266
16.600999999997306,0.7684243428120353,-0.6360042259401797
16.80099999999755,0.7132622252800364,-0.6071326714502977
17.000999999997795,0.6549755071882573,-0.5708417068484072
17.20099999999804,0.5927098672073894,-0.5268833627974021
17.400999999998284,0.5299510372975434,-0.4853756511166797
17.60099999999853,0.46937923205539966,-0.4444985965087931
17.800999999998773,0.4153737995536197,-0.40031802421438817
18.000999999999017,0.3797924260910382,-0.34454269971991475
18.20099999999926,0.37385164600623616,-0.29561860812055674
18.400999999999506,0.38736199373562513,-0.2509857112956845
18.60099999999975,0.4076442871366876,-0.20483279337156518
18.799999999999994,0.43148263816363575,-0.15881490281756497
19.000000000000238,0.46395884614489946,-0.1167733594222194
19.200000000000482,0.5042586708169269,-0.09086388360298535
19.400000000000727,0.5508240341120064,-0.08220875067190153
19.60000000000097,0.6009401908084834,-0.09094256729258689
19.800000000001216,0.6567409804989957,-0.12146002206367522
20.00000000000146,0.7193083564620358,-0.1623910918583624
