Time (s),X (m),Y (m)
0.001,-0.0007489004572251305,0.00035268032603768894
0.20000000000000015,0.004455032004757015,-0.0015189177129100815
0.4000000000000003,0.007999365405678947,-0.0006781554763509746
0.6000000000000004,0.0040193588225068706,0.003095403976760528
0.8000000000000006,0.0009797433886098309,0.006215410245404675
1.0000000000000007,0.014151748904426576,0.001613770852900733
1.2009999999999785,0.025777333039215426,-0.00032434723617933396
1.4009999999999565,0.04283406911003011,-0.0022294080447903455
1.6009999999999345,0.06923536009515083,-0.01328728856324952
1.8009999999999124,0.09291072047108781,-0.019778088018216258
2.0009999999998906,0.11807507662333303,-0.017812648162338098
2.2009999999998686,0.14367112484845065,-0.024519669759956272
2.4009999999998466,0.16981221059155424,-0.030844618705256326
2.6009999999998246,0.19567182908943642,-0.029876139557438716
2.8009999999998025,0.22732061550546054,-0.04106031461889719
3.0009999999997805,0.25471560640267116,-0.0625543066163426
3.2009999999997585,0.27749913302963136,-0.07930245145385151
3.4009999999997365,0.3030494047908924,-0.09261353888593783
3.6009999999997144,0.3179137647753103,-0.11688850935822989
3.8009999999996924,0.3150821664415756,-0.14717626219830954
4.000999999999671,0.3020066161980572,-0.17891007512332774
4.200999999999738,0.29091148832423236,-0.2153678602971956
4.400999999999804,0.27784274588741636,-0.2501738597642367
4.600999999999871,0.2372026754936079,-0.27276395391596364
4.800999999999938,0.18721920226307154,-0.2803681553481212
5.000000000000004,0.1522631979529707,-0.27531582565538604
5.200000000000071,0.11850070546308712,-0.26249858023265993
5.400000000000138,0.07984120873766552,-0.25091642879385434
5.600000000000205,0.04026332554901411,-0.23066369892543295
5.800000000000272,-0.0027447833958270267,-0.20768674605797896
6.000000000000338,-0.03917324219725747,-0.19335472277134488
6.200000000000405,-0.07315832781534352,-0.17782041783218225
6.400000000000472,-0.10289346791303194,-0.1669443945841372
6.600000000000539,-0.14386046667764735,-0.13821740735120025
6.800000000000606,-0.18762411429921472,-0.1072813359569975
7.000000000000672,-0.23077525373013646,-0.06311473564956466
7.200000000000739,-0.2559137432855192,-0.032231550208390525
7.400000000000806,-0.2660361158032259,-0.002710117225360425
7.600000000000873,-0.2617295937379585,0.02997075243048433
7.8000000000009395,-0.24534589834075055,0.07899666923198771
8.000000000001005,-0.2367874098657549,0.12761432666316078
8.200000000000895,-0.2237340488790624,0.1718031874664588
8.400000000000784,-0.1924027754909669,0.21448459529707323
8.600000000000673,-0.16746539015334005,0.24419740256573755
8.800000000000562,-0.12844784590813138,0.24698474101143464
9.000000000000451,-0.08388445719792322,0.23930865591188935
9.20000000000034,-0.039825851629604864,0.22400528735046057
9.40000000000023,0.004204180123502464,0.2051170296806229
9.600000000000119,0.04936812730587414,0.17917924247515646
9.800000000000008,0.08657276438796392,0.1460448807563868
10.000999999999896,0.09331192896993803,0.09341361110837121
10.200999999999786,0.07149996094772253,0.037583186365827824
10.400999999999675,0.04419967036441199,-0.00807738321197409
10.600999999999564,0.0024991834137296125,-0.04630851933181589
10.800999999999453,-0.045849930995257526,-0.06521638817223249
11.000999999999342,-0.09059711030947647,-0.0694744382701631
11.200999999999231,-0.14114615825282198,-0.05581427543150881
11.40099999999912,-0.18856294316650313,-0.041896043855222366
11.60099999999901,-0.23658515125276994,-0.02373228964560297
11.800999999998899,-0.2739990669668976,0.004335416358976806
12.000999999998788,-0.2942135126133213,0.04644033802208389
12.200999999998677,-0.29810017268996386,0.09102432016126817
12.400999999998566,-0.2970393024090652,0.13186006210092957
12.600999999998455,-0.29653198890900545,0.1673342106888043
12.800999999998345,-0.28450011485959126,0.2095064472379178
13.000999999998234,-0.2677234061419652,0.2544627976879721
13.200999999998123,-0.2319672289658327,0.2960893060401571
13.400999999998012,-0.18582167226667803,0.3130309962758218
13.600999999997901,-0.14216601535102052,0.30644725825313324
13.80099999999779,-0.09959821078971023,0.2968236129824673
14.00099999999768,-0.053583489660212806,0.27679670869590245
14.200999999997569,-0.0029196444385702846,0.25524783609696855
14.400999999997458,0.04365045266282298,0.2388127502160963
14.600999999997347,0.09455835792962416,0.2149122250748009
14.800999999997236,0.147961665102815,0.19004499906257377
15.000999999997125,0.19899478004134738,0.16951380231947769
15.200999999997014,0.23569094180410638,0.13509261427351466
15.400999999996904,0.24651703595570662,0.09318373470238597
15.600999999996793,0.24329864293268194,0.05302082682304934
15.800999999996682,0.23223564936660251,0.005237981546863251
16.000999999996573,0.21924055473021922,-0.04735087241792828
16.200999999996817,0.20884429274983946,-0.09937763368533988
16.40099999999706,0.2016593757785781,-0.14681719337975488
16.600999999997306,0.18240754653377658,-0.19906123680938184
16.80099999999755,0.15836201367313857,-0.24858473892980062
17.000999999997795,0.12449435717325831,-0.28339551855064815
17.20099999999804,0.08209259516015183,-0.29613215090057066
17.400999999998284,0.04063253828985879,-0.2924248860769183
17.60099999999853,-0.0008360296665088807,-0.28343398031943406
17.800999999998773,-0.04818033545777779,-0.2635783283068034
18.000999999999017,-0.09872559646127006,-0.23583315626628612
18.20099999999926,-0.15057713861733346,-0.20637647824615057
18.400999999999506,-0.1995917130227487,-0.17193565216300627
18.60099999999975,-0.2405588912997848,-0.13706369990820003
18.799999999999994,-0.27119929624806344,-0.10815979906105531
19.000000000000238,-0.28896604240455503,-0.07524796421855474
19.200000000000482,-0.29253776658164155,-0.04712285128896498
19.400000000000727,-0.28749446243978033,-0.012704446477306758
19.60000000000097,-0.2750749590523627,0.03308131650147124
19.800000000001216,-0.2608997982548606,0.07934715847128625
20.00000000000146,-0.24597754802800648,0.11785562225774304
