Time (s),X (m),Y (m)
0.001,0.0003099530129853942,0.0010272443824616275
0.20000000000000015,0.0029687970026151,0.004694124980773616
0.4000000000000003,0.004046023494783267,0.005177769886760682
0.6000000000000004,0.0068390948677414,0.011067879178985354
0.8000000000000006,0.010836049549054615,0.01035530886362602
1.0000000000000007,0.014493145258809641,0.0076290553348127566
1.2009999999999785,0.019541175479270347,0.013633953450436727
1.4009999999999565,0.025911414244345964,0.00789309269654892
1.6009999999999345,0.028909939531504423,0.01306765961545288
1.8009999999999124,0.033015890064949226,0.015309554486011807
2.0009999999998906,0.03661148979868755,0.01819606318055443
2.2009999999998686,0.04045560377480636,0.02073778359941986
2.4009999999998466,0.04422005436583867,0.027295044208298168
2.6009999999998246,0.04868060249672898,0.027233518663734326
2.8009999999998025,0.051393100396581765,0.03096424243267153
3.0009999999997805,0.05509686997285872,0.03310382802583003
3.2009999999997585,0.05992740709566272,0.03536571949003154
3.4009999999997365,0.06427908505267245,0.0345537169706766
3.6009999999997144,0.06899757480909018,0.03296443585761797
3.8009999999996924,0.072643138325207,0.035379917618045945
4.000999999999671,0.07591486312267604,0.04058924581245931
4.200999999999738,0.07929142517326028,0.04475320297530727
4.400999999999804,0.08198892729284046,0.05034570512313491
4.600999999999871,0.08655767006443395,0.050448535890790965
4.800999999999938,0.0900067042125125,0.053785903816931706
5.000000000000004,0.0935431528038439,0.060759248967719275
5.200000000000071,0.09884774608420208,0.061992633576211896
5.400000000000138,0.10373185678912446,0.06558186360982957
5.600000000000205,0.10892490687289759,0.06754500092601982
5.800000000000272,0.11245398235699966,0.07064351997041338
6.000000000000338,0.1199793676808823,0.0713369561584599
6.200000000000405,0.12153315055134302,0.07813683717435893
6.400000000000472,0.12349331626375154,0.08331036903331299
6.600000000000539,0.12851989214587822,0.08646622482727191
6.800000000000606,0.13104415676474698,0.0927632561558003
7.000000000000672,0.13226155599651324,0.09704543075272473
7.200000000000739,0.1331911594249335,0.10327140739579115
7.400000000000806,0.13597414447060685,0.10781606297711559
7.600000000000873,0.13888468204551893,0.11384486512850092
7.8000000000009395,0.13711048221891853,0.1204867769342194
8.000000000001005,0.14108558051199735,0.12429690988155241
8.200000000000895,0.14499738619172647,0.12827751218026262
8.400000000000784,0.14302882524554317,0.1347966110298075
8.600000000000673,0.1427868594613038,0.1403728591753655
8.800000000000562,0.1442276843298123,0.1437751950788157
9.000000000000451,0.14719456903785358,0.14871721524159673
9.20000000000034,0.14310414680565217,0.1544136194085557
9.40000000000023,0.1435702369564941,0.15964192427030507
9.600000000000119,0.1473879014238792,0.1663370089347131
9.800000000000008,0.1440261671040699,0.17280998465600106
10.000999999999896,0.14333261299494257,0.17903104920406154
10.200999999999786,0.14655405785846234,0.1843944616901809
10.400999999999675,0.1485806183357386,0.1915157115926676
10.600999999999564,0.1472801387047835,0.19850849041532984
10.800999999999453,0.15036520142391835,0.20362154835606236
11.000999999999342,0.14994754982211442,0.21004899525508477
11.200999999999231,0.14477310322533005,0.2156806440629255
11.40099999999912,0.14263895248832356,0.22145633112154423
11.60099999999901,0.14482315363984788,0.22650314353222592
11.800999999998899,0.14549484871468907,0.23362048227609084
12.000999999998788,0.14536661528303121,0.23903113283723768
12.200999999998677,0.14451347385028557,0.24408607839463634
12.400999999998566,0.14561950235668703,0.2496965859989503
12.600999999998455,0.14571835549632284,0.2553972697415589
12.800999999998345,0.14258796521260728,0.2596516943510457
13.000999999998234,0.138612590779773,0.26394228890158866
13.200999999998123,0.140571875952661,0.26953957306892334
13.400999999998012,0.1416177912844303,0.2759611151905425
13.600999999997901,0.13794990329993737,0.28152634234662666
13.80099999999779,0.13434012167380754,0.28594613052054646
14.00099999999768,0.13645815989847598,0.2922982641336252
14.200999999997569,0.1358933128858025,0.2989750128851209
14.400999999997458,0.13250215553516986,0.30246700221864503
14.600999999997347,0.12661869933563047,0.30496991863581413
14.800999999997236,0.1234401679560145,0.3106227234969658
15.000999999997125,0.12332257797190307,0.3155540630800568
15.200999999997014,0.12244828071757669,0.3215868684210849
15.400999999996904,0.12203179371260849,0.32710210002592033
15.600999999996793,0.12139383781949789,0.3341655721278869
15.800999999996682,0.11644595889778041,0.33823818750782236
16.000999999996573,0.1117416538635859,0.3429278010031817
16.200999999996817,0.10788050999040466,0.34551249218896685
16.40099999999706,0.10542859644989003,0.3482619032152557
16.600999999997306,0.09985480577129349,0.3507088468776449
16.80099999999755,0.09498692493750117,0.3539761843706319
17.000999999997795,0.09156098978990278,0.35629348635494895
17.20099999999804,0.09147980179489432,0.36167813889758277
17.400999999998284,0.09000667030439258,0.36958520742824724
17.60099999999853,0.08289989387702705,0.37265612994944397
17.800999999998773,0.077749022480617,0.3761113769421621
18.000999999999017,0.07602100797052282,0.38184622113803063
18.20099999999926,0.07180985880732309,0.3855525059817467
18.400999999999506,0.06600349834185854,0.38633424287023543
18.60099999999975,0.0612898444025819,0.3873655029803024
18.799999999999994,0.05682777115795853,0.3931195982175627
19.000000000000238,0.052993829526253824,0.40058045728606934
19.200000000000482,0.04997064936845916,0.40588100328060916
19.400000000000727,0.04491072676932309,0.4101203049177691
19.60000000000097,0.03927404740085161,0.4139460574144739
19.800000000001216,0.031985717907776864,0.4134154311426407
20.00000000000146,0.026655120482985812,0.41463486163209295
