Time (s),X (m),Y (m)
0.001,0.0007356649194092869,0.0008930179339548111
0.20000000000000015,0.00434326184982386,0.0033190132462617462
0.4000000000000003,0.010658117800680036,0.005967290995747122
0.6000000000000004,0.01573900295607993,0.0018064408226189388
0.8000000000000006,0.02045249408924453,-0.0017073968449800034
1.0000000000000007,0.029101054858709407,-0.00018154817574985875
1.2009999999999785,0.04099080319846306,-0.0008804106804039848
1.4009999999999565,0.05238111014722585,0.0023366527468433895
1.6009999999999345,0.061940132066134565,-0.002249594110404477
1.8009999999999124,0.06796854459859782,-0.014290039064025354
2.0009999999998906,0.07395558817329086,-0.012074270352269115
2.2009999999998686,0.08236008659647431,-0.004385404638961629
2.4009999999998466,0.09178056205670078,-0.0033758455108056644
2.6009999999998246,0.09991228269954278,0.0028332298990241473
2.8009999999998025,0.10845820000471519,0.00906220640151772
3.0009999999997805,0.11905956684965514,0.012720795719678
3.2009999999997585,0.1292556510364972,0.019040825773156522
3.4009999999997365,0.13990182940760684,0.02058680080426082
3.6009999999997144,0.14715751622094506,0.025503971925368022
3.8009999999996924,0.1541559224631514,0.03303099931679906
4.000999999999671,0.16027334023199413,0.04327848069409074
4.200999999999738,0.16715859499880675,0.055323484516096554
4.400999999999804,0.17726597114915824,0.06288060232849062
4.600999999999871,0.1856098613525853,0.0686416454959082
4.800999999999938,0.19358437256198588,0.07709914294883272
5.000000000000004,0.2012542673533374,0.08475792213288755
5.200000000000071,0.21069633755881212,0.08846156347024202
5.400000000000138,0.2169050605492315,0.09562796176473023
5.600000000000205,0.21989573400704862,0.10309552539497174
5.800000000000272,0.22446994819363983,0.1110108896373812
6.000000000000338,0.22988065319027057,0.11003603579191794
6.200000000000405,0.2333663293728529,0.11698247468251577
6.400000000000472,0.23818847333322912,0.12677955028387441
6.600000000000539,0.24490554335334772,0.13601487894162945
6.800000000000606,0.2474113237490297,0.14878464046039416
7.000000000000672,0.24921568115552206,0.1565933463091877
7.200000000000739,0.2515195374629518,0.16479583667255746
7.400000000000806,0.25255947304909326,0.176778091895122
7.600000000000873,0.25548079973127813,0.1896587587451818
7.8000000000009395,0.264962068885675,0.19413155744636953
8.000000000001005,0.26941079108085414,0.202042085650601
8.200000000000895,0.27094104965114707,0.21404702471025003
8.400000000000784,0.2735551909241646,0.22679103646307605
8.600000000000673,0.2790002418768389,0.23674902347341056
8.800000000000562,0.2799510952413051,0.24723162553924985
9.000000000000451,0.28286504601200807,0.25617556504738315
9.20000000000034,0.28467117632378697,0.2661011687714138
9.40000000000023,0.2916031139016202,0.27252630285990875
9.600000000000119,0.2858473340143574,0.28817374545228314
9.800000000000008,0.28308025292681444,0.2994592806581276
10.000999999999896,0.28116048287391426,0.3098430011040036
10.200999999999786,0.27843287438051717,0.3203223003706638
10.400999999999675,0.2763617120373911,0.33389666405694646
10.600999999999564,0.2703851642122397,0.3451988105777824
10.800999999999453,0.26612503360542566,0.3587838972698742
11.000999999999342,0.26477989164111826,0.372806944272485
11.200999999999231,0.25973960701259535,0.3849816629159661
11.40099999999912,0.25585796807507943,0.3983685116790096
11.60099999999901,0.25597612296163585,0.4082661119205366
11.800999999998899,0.24897585637360153,0.4197451781803242
12.000999999998788,0.24608544618732806,0.42851470962808547
12.200999999998677,0.24014270223349954,0.4400506617492988
12.400999999998566,0.2351357433100345,0.45402447679956726
12.600999999998455,0.2264453291207863,0.46679485497282325
12.800999999998345,0.2211892366384809,0.4774505146296842
13.000999999998234,0.21200929238222355,0.4883476745346642
13.200999999998123,0.19965053874915584,0.4980696000793502
13.400999999998012,0.1907970382866675,0.5101810092639603
13.600999999997901,0.1852271975024106,0.5164982487700656
13.80099999999779,0.18078110735424577,0.5247916094058558
14.00099999999768,0.16821895646731908,0.5348621054558369
14.200999999997569,0.15653690998601708,0.5423611621690173
14.400999999997458,0.15004565851709042,0.5506666421590034
14.600999999997347,0.1431832664776811,0.5585631343961007
14.800999999997236,0.1315946581593642,0.5667906941067384
15.000999999997125,0.11747208578831342,0.5712145228440002
15.200999999997014,0.10538568663226852,0.5775024137766133
15.400999999996904,0.0933525215937125,0.5853987581419665
15.600999999996793,0.08106967674367456,0.5899792812014685
15.800999999996682,0.06980296712999266,0.5941899803392386
16.000999999996573,0.05949492936260058,0.5981922186274276
16.200999999996817,0.04926546634823973,0.6016607595579347
16.40099999999706,0.04111831926505528,0.6054160140205435
16.600999999997306,0.034183653216061385,0.6110252701846639
16.80099999999755,0.022820710026476912,0.6174621982111587
17.000999999997795,0.012315004343983034,0.6217143782886537
17.20099999999804,0.005563929983279307,0.6285675528563793
17.400999999998284,-0.009770403630167072,0.6323981102412403
17.60099999999853,-0.01819168788544323,0.6415400975828733
17.800999999998773,-0.030207873616507275,0.6463244813111716
18.000999999999017,-0.040983772761943045,0.6528853064546444
18.20099999999926,-0.05197593975208762,0.6601021999601597
18.400999999999506,-0.06579726286977405,0.660600569055958
18.60099999999975,-0.07360174852627457,0.6599431414383424
18.799999999999994,-0.08902055361091904,0.661183438720499
19.000000000000238,-0.10082683205013598,0.6651773318147436
19.200000000000482,-0.11137325943507186,0.6656271265943329
19.400000000000727,-0.12482205959513616,0.6656788989996686
19.60000000000097,-0.13711720739697367,0.6657644296414578
19.800000000001216,-0.15088663886580944,0.6624905942859807
20.00000000000146,-0.16064399872692262,0.6625762411582667
