Time (s),X (m),Y (m)
0.001,-0.0006729371591054978,-0.000515584144559974
0.20000000000000015,0.0049864068830497345,0.002455759798492996
0.4000000000000003,0.005602971892883594,-0.0004844256346560617
0.6000000000000004,0.01485459895717174,-0.0012402945094642393
0.8000000000000006,0.03232918237712965,-0.002390184650227027
1.0000000000000007,0.03353895518476634,0.0006680241462115447
1.2009999999999785,0.04412012053293973,-0.002775225644500503
1.4009999999999565,0.06357973012671878,-0.0002950055479609126
1.6009999999999345,0.07372755868698819,-0.0016206393209943623
1.8009999999999124,0.08185716141661932,-0.0019327332474028131
2.0009999999998906,0.09318685438093488,0.0012338265224289993
2.2009999999998686,0.1149380738974344,0.009794968985484046
2.4009999999998466,0.13592409788505852,0.010940791967045255
2.6009999999998246,0.1543073405167381,0.013058635055240138
2.8009999999998025,0.1660903840892582,0.01881268458918059
3.0009999999997805,0.17415705296009756,0.02074936209039612
3.2009999999997585,0.18526227362240988,0.024357848192184763
3.4009999999997365,0.1996120395765452,0.027034752370921608
3.6009999999997144,0.21802793970126041,0.032624038674991085
3.8009999999996924,0.23438761793734852,0.030921600823769445
4.000999999999671,0.2524139078244424,0.029242239244563234
4.200999999999738,0.26343347041967685,0.03612406891243618
4.400999999999804,0.28715715047672385,0.03563710666909882
4.600999999999871,0.31041774901658625,0.03423766548953434
4.800999999999938,0.33052877060667685,0.03596801125715488
5.000000000000004,0.35417496944025395,0.038164592591074346
5.200000000000071,0.3827359734441294,0.04020327562137715
5.400000000000138,0.4182886500934093,0.04450648258216831
5.600000000000205,0.44130574977052245,0.04998850118853935
5.800000000000272,0.4592347114071035,0.05052754804687052
6.000000000000338,0.4835944848322843,0.044337878652501606
6.200000000000405,0.5154359396352359,0.04119701755728999
6.400000000000472,0.5358814940498501,0.04446919658901057
6.600000000000539,0.5504249948647861,0.04668163754900531
6.800000000000606,0.5776349295253276,0.04693023705342413
7.000000000000672,0.6034736276419891,0.04725768107843944
7.200000000000739,0.633961900132055,0.04480910244850924
7.400000000000806,0.6521600817866139,0.03453982094754273
7.600000000000873,0.6701615943744739,0.027853648127808325
7.8000000000009395,0.6799364308877058,0.020132351065016933
8.000000000001005,0.6927694426615236,0.016242739952007142
8.200000000000895,0.7165558976525656,0.008158547525032138
8.400000000000784,0.7427271627620056,-0.010458032373376917
8.600000000000673,0.7700571906817822,-0.02229003861799902
8.800000000000562,0.7844433822866709,-0.035673388191885896
9.000000000000451,0.8146896789116422,-0.04829289687976808
9.20000000000034,0.8521326111413465,-0.06370852650314555
9.40000000000023,0.8738921309811628,-0.07843918708021616
9.600000000000119,0.8867421693248975,-0.09580025126627789
9.800000000000008,0.9045465584300407,-0.11061117637062388
10.000999999999896,0.9255199324600741,-0.12505454717757095
10.200999999999786,0.9359576152585345,-0.14407143754003002
10.400999999999675,0.9544736043432676,-0.16206508454373889
10.600999999999564,0.9813851188435935,-0.16878174571737226
10.800999999999453,1.0122928807375968,-0.1734724698011074
11.000999999999342,1.0408358184254176,-0.1768547068483602
11.200999999999231,1.064541202025743,-0.17617395200798966
11.40099999999912,1.0889544118059817,-0.1798263096616574
11.60099999999901,1.1174517590281032,-0.18313214442216136
11.800999999998899,1.1430123632429339,-0.18646578557869264
12.000999999998788,1.158728082852284,-0.18793098467455785
12.200999999998677,1.1842421655942301,-0.18752592165448195
12.400999999998566,1.2114933354614936,-0.1915343888450536
12.600999999998455,1.2373830492245546,-0.19511498403532787
12.800999999998345,1.2617180903296974,-0.20144183789528172
13.000999999998234,1.2724988706235885,-0.2094251034945238
13.200999999998123,1.2942333423211014,-0.21709985559407063
13.400999999998012,1.30687698881407,-0.2259817166552756
13.600999999997901,1.316716900012529,-0.23140695041764472
13.80099999999779,1.323922275902736,-0.24234130849164073
14.00099999999768,1.3324032878230283,-0.2569546327651316
14.200999999997569,1.350653103176484,-0.2741337681051474
14.400999999997458,1.367272526296557,-0.2859017750632097
14.600999999997347,1.3882562704253305,-0.2967615087404091
14.800999999997236,1.4008035351518224,-0.3068782009399776
15.000999999997125,1.4292303142386604,-0.32060762648225044
15.200999999997014,1.4591554453948106,-0.3350359666438158
15.400999999996904,1.4913046384529545,-0.34527599814066523
15.600999999996793,1.5248300056691948,-0.34898831490221993
15.800999999996682,1.55771595471422,-0.35052984357423767
16.000999999996573,1.5822663372902843,-0.35456609421324775
16.200999999996817,1.5975006040321809,-0.3639283259305924
16.40099999999706,1.611264530002409,-0.37409900776104715
16.600999999997306,1.6289068121059904,-0.3734368230973116
16.80099999999755,1.6485023605594673,-0.37889559556173663
17.000999999997795,1.6749832920831933,-0.39427647988586667
17.20099999999804,1.707841332388606,-0.40367575807655637
17.400999999998284,1.7426081507122089,-0.4100022475155817
17.60099999999853,1.7655415291815246,-0.41635607804139185
17.800999999998773,1.7957440311769934,-0.42706379423632235
18.000999999999017,1.8285775291704331,-0.43629554433438056
18.20099999999926,1.8568203934073155,-0.4480402646281843
18.400999999999506,1.883641744301726,-0.4602655658810616
18.60099999999975,1.9036004256273829,-0.47639449570005316
18.799999999999994,1.9264165225505228,-0.4943280122028282
19.000000000000238,1.954039415553412,-0.5063504747621893
19.200000000000482,1.9692480957686405,-0.5219329239717947
19.400000000000727,1.9750382776336675,-0.5448662526392133
19.60000000000097,1.9932480343122028,-0.5709029102240897
19.800000000001216,2.011166265369417,-0.5871613424960158
20.00000000000146,2.0188173102388505,-0.5994710482643048
