Time (s),X (m),Y (m)
0.001,4.1020280575708355e-05,0.0010155025257856582
0.20000000000000015,0.002745333381492416,-0.0006228276350287184
0.4000000000000003,0.00950430718224557,-0.007203974640670745
0.6000000000000004,0.02703998015787959,-0.014692932379008128
0.8000000000000006,0.05488270044725643,-0.027297338196078356
1.0000000000000007,0.09052240302686691,-0.046175050582646385
1.2009999999999785,0.12845122435133843,-0.0603876262378218
1.4009999999999565,0.1774548522771457,-0.0695660232106916
1.6009999999999345,0.23006577230867992,-0.08693783687136715
1.8009999999999124,0.281001593735591,-0.11349698226722256
2.0009999999998906,0.325494627429361,-0.14837924203061398
2.2009999999998686,0.3550487502047374,-0.19054534926273453
2.4009999999998466,0.38802009474654736,-0.23653392712415192
2.6009999999998246,0.41488794499902054,-0.279456747345621
2.8009999999998025,0.41751709409218263,-0.3262030965542138
3.0009999999997805,0.41026675105642135,-0.3775017710590975
3.2009999999997585,0.38766708818903567,-0.4284482415654124
3.4009999999997365,0.3633560616039932,-0.48523258417454745
3.6009999999997144,0.3302953050253858,-0.529058615412125
3.8009999999996924,0.2818462708764545,-0.5557447130665512
4.000999999999671,0.2257776907668533,-0.571323229818264
4.200999999999738,0.16799756910771052,-0.5790013882247208
4.400999999999804,0.11322183319418867,-0.5676222073169016
4.600999999999871,0.05779130254263276,-0.5443414428451977
4.800999999999938,-0.00034387763721422466,-0.5204100316263676
5.000000000000004,-0.04478711297002868,-0.4792410009384213
5.200000000000071,-0.07964093624272149,-0.4394848035668483
5.400000000000138,-0.0804806783332629,-0.39676894222969955
5.600000000000205,-0.0747624002312893,-0.3521258007179381
5.800000000000272,-0.07865057775545123,-0.29755318349092075
6.000000000000338,-0.07567738491955533,-0.24162668026062614
6.200000000000405,-0.050764178575451596,-0.17807374275381513
6.400000000000472,-0.02042422929555868,-0.11420155858082368
6.600000000000539,0.013105080270801326,-0.054681686433633414
6.800000000000606,0.045980523354421814,0.005109386930580248
7.000000000000672,0.085905797068527,0.051815952916823366
7.200000000000739,0.13228167415145972,0.06409014207549274
7.400000000000806,0.18587585814530025,0.06012822733408475
7.600000000000873,0.240431392791309,0.04399594079308511
7.8000000000009395,0.289752684332651,0.013171296894496103
8.000000000001005,0.3217086568642385,-0.028433610503595146
8.200000000000895,0.33147024540733594,-0.07312318919965785
8.400000000000784,0.3159550493344188,-0.11694891833189185
8.600000000000673,0.2816635576497106,-0.1437919625504205
8.800000000000562,0.23522197276736811,-0.1527683425219478
9.000000000000451,0.180059309152229,-0.15596466617250884
9.20000000000034,0.11754221279601323,-0.1544492818703156
9.40000000000023,0.055255691131345805,-0.15443945494823805
9.600000000000119,-0.004762604276761345,-0.14194747153876247
9.800000000000008,-0.06758952335909306,-0.12591817331531016
10.000999999999896,-0.1293498798828351,-0.09952314337943603
10.200999999999786,-0.17609935886408093,-0.0695850431126649
10.400999999999675,-0.20187792192826934,-0.02855454417243646
10.600999999999564,-0.20224349766850924,0.013767418202759708
10.800999999999453,-0.17851459207337625,0.04221903322598599
11.000999999999342,-0.1472561951635264,0.06272547504336672
11.200999999999231,-0.10691432387122152,0.07153291397318089
11.40099999999912,-0.060005305465826185,0.06329950715169466
11.60099999999901,-0.0064676369475497745,0.05476213344711862
11.800999999998899,0.04936490532249063,0.03624830111933578
12.000999999998788,0.11396368915266586,0.01835574301015489
12.200999999998677,0.17604125146617677,-0.0015104762930683224
12.400999999998566,0.23392866878068122,-0.0326865325619242
12.600999999998455,0.2773077731124743,-0.07541872788249461
12.800999999998345,0.29545617681519143,-0.13195732782374334
13.000999999998234,0.29018816627961413,-0.19247902171437226
13.200999999998123,0.266606615034042,-0.21828140843450522
13.400999999998012,0.22558217640628234,-0.21173522773451225
13.600999999997901,0.17998440414373035,-0.1941624705285589
13.80099999999779,0.12711092474513053,-0.1678615421079521
14.00099999999768,0.0816042485529158,-0.13553381331441539
14.200999999997569,0.07066349396484475,-0.09700800224100893
14.400999999997458,0.08704105811509893,-0.054496116859651396
14.600999999997347,0.11727607152465637,-0.01318480935624402
14.800999999997236,0.16047393744490854,0.006533891031749566
15.000999999997125,0.21044510256231982,0.02780144911984098
15.200999999997014,0.26871621875424523,0.04430456903173122
15.400999999996904,0.3308193415117117,0.036761385589417106
15.600999999996793,0.3919685050707645,0.01293955534151515
15.800999999996682,0.4514133675166617,-0.013782977796333336
16.000999999996573,0.5024824236726495,-0.048388620695347086
16.200999999996817,0.5321768472607769,-0.09095602905629835
16.40099999999706,0.5413567319146081,-0.1357062497625665
16.600999999997306,0.5247147916611925,-0.17854027762112926
16.80099999999755,0.5024339062657288,-0.22866859018960148
17.000999999997795,0.48068712370610295,-0.2827324341318618
17.20099999999804,0.4455659346029508,-0.33185628962489194
17.400999999998284,0.4092688194233542,-0.3858092374461301
17.60099999999853,0.37240014327008464,-0.44069394708906645
17.800999999998773,0.3285732420035641,-0.48678059056617545
18.000999999999017,0.27455929540180496,-0.5261355969443149
18.20099999999926,0.21956061805677404,-0.5357732136581531
18.400999999999506,0.1657399436771991,-0.5166797156250924
18.60099999999975,0.125923331442423,-0.48072353912146293
18.799999999999994,0.10720300261717776,-0.43897211174725465
19.000000000000238,0.10117465082920626,-0.38577720018588574
19.200000000000482,0.1077989168102456,-0.32655876554438934
19.400000000000727,0.12636985516171317,-0.26799287663899973
19.60000000000097,0.15747528390428314,-0.22502768957878977
19.800000000001216,0.19728574469249308,-0.20146179037503836
20.00000000000146,0.24684541951736122,-0.19420224475453254
