Time (s),X (m),Y (m)
0.001,-0.0007489004572251305,-0.00035268032603768894
0.20000000000000015,0.00837107928974808,0.0011659092187182635
0.4000000000000003,0.010822633881439465,0.0002587630968063636
0.6000000000000004,0.030682414836824205,0.005633987243701066
0.8000000000000006,0.04065758173505337,0.012025022731293149
1.0000000000000007,0.03237780366794338,0.01329447913867578
1.2009999999999785,0.03295446571233268,0.023249537832517195
1.4009999999999565,0.0345605535069298,0.026378735809946086
1.6009999999999345,0.061269997647396546,0.03414822016716021
1.8009999999999124,0.06766271333652406,0.037558631024344015
2.0009999999998906,0.08195806284745422,0.04079072664028536
2.2009999999998686,0.10208531710795372,0.03775714039701503
2.4009999999998466,0.1283470517830358,0.03239417441447874
2.6009999999998246,0.1460128137619158,0.02412658035125778
2.8009999999998025,0.15846606351213927,0.015408446173236076
3.0009999999997805,0.16648901180229328,0.005924859449981698
3.2009999999997585,0.17801602122708315,-0.00526629736421206
3.4009999999997365,0.20285984052203007,-0.017600910339659017
3.6009999999997144,0.2249622679789095,-0.025989863040059097
3.8009999999996924,0.24573871359864974,-0.04050855022601128
4.000999999999671,0.2589632134773853,-0.05457161986592712
4.200999999999738,0.2914493129385316,-0.07167030685781196
4.400999999999804,0.31821951798215414,-0.09073110576689324
4.600999999999871,0.3454363577332199,-0.10348663812401071
4.800999999999938,0.3702408806858728,-0.12131086783222042
5.000000000000004,0.40661253278335924,-0.13649196042416803
5.200000000000071,0.43738549324346027,-0.15905347167325323
5.400000000000138,0.46482784009147277,-0.18313881158256246
5.600000000000205,0.4860950063934447,-0.20409872756209865
5.800000000000272,0.5053863965584335,-0.2260750003500624
6.000000000000338,0.5235613642218969,-0.24275201794023557
6.200000000000405,0.550339034692766,-0.2555032315696325
6.400000000000472,0.5924719291645418,-0.2708429003604027
6.600000000000539,0.6257896666986427,-0.28215390856519074
6.800000000000606,0.6413676367044133,-0.2899952905657888
7.000000000000672,0.6512937747641792,-0.3015973675043203
7.200000000000739,0.6853501171390695,-0.31176697250597685
7.400000000000806,0.7099984782165593,-0.32083390583073473
7.600000000000873,0.7333492489909622,-0.33746973688315635
7.8000000000009395,0.7619918278447816,-0.36056290737310004
8.000000000001005,0.8005847980994236,-0.3800479346803391
8.200000000000895,0.8417279338153896,-0.400462455874216
8.400000000000784,0.869139961774716,-0.4214345186929057
8.600000000000673,0.8956264702526445,-0.43153428259280296
8.800000000000562,0.9246403491487264,-0.4474614946217964
9.000000000000451,0.97542623107383,-0.4656993719623906
9.20000000000034,1.0195920003817955,-0.4908943467103143
9.40000000000023,1.0581905374444014,-0.5155863828809781
9.600000000000119,1.0978308948437383,-0.5403677988123758
9.800000000000008,1.1308152044725053,-0.5670544400005041
10.000999999999896,1.1459959074415234,-0.5934651798222446
10.200999999999786,1.1680558585753265,-0.6130195477069876
10.400999999999675,1.2034056145410137,-0.642475927538231
10.600999999999564,1.2422646098307182,-0.6776375935844391
10.800999999999453,1.2738236101925313,-0.7094055806424867
11.000999999999342,1.3090011347395423,-0.7399964508207773
11.200999999999231,1.3391151301441124,-0.7676149394164246
11.40099999999912,1.371855632416008,-0.796715162624597
11.60099999999901,1.4120080201329177,-0.8257281590350303
11.800999999998899,1.4541448552806489,-0.8541709733686386
12.000999999998788,1.4876139141666274,-0.8825852480382296
12.200999999998677,1.5297956129912884,-0.913946633842828
12.400999999998566,1.5660589255011867,-0.938253088322381
12.600999999998455,1.5846728085769979,-0.9614734910351439
12.800999999998345,1.6107671886328958,-0.9795958367760779
13.000999999998234,1.6427994717219194,-1.0082380283743742
13.200999999998123,1.6832642286682908,-1.0424412409031794
13.400999999998012,1.7255790306970038,-1.0787532394088049
13.600999999997901,1.7649268040294501,-1.1167870328737917
13.80099999999779,1.801185027639564,-1.1566864727143111
14.00099999999768,1.8370029012415465,-1.1942856076343609
14.200999999997569,1.8634257404357453,-1.2330604470555828
14.400999999997458,1.8858249217683887,-1.2653520110272867
14.600999999997347,1.902568948475957,-1.3012797064546642
14.800999999997236,1.920567292179569,-1.3555631754663888
15.000999999997125,1.9368397200360774,-1.4005743188451878
15.200999999997014,1.9455789357614217,-1.431017134962462
15.400999999996904,1.9488668277488697,-1.4675691277499898
15.600999999996793,1.9485336822501462,-1.5014396060195876
15.800999999996682,1.9395787339126396,-1.5240373547580361
16.000999999996573,1.9228256802838182,-1.553922516220048
16.200999999996817,1.906384981391351,-1.5824087003537304
16.40099999999706,1.8917616895905471,-1.6079785844325387
16.600999999997306,1.8708842858785497,-1.641085991179279
16.80099999999755,1.852428764340888,-1.6658226429751737
17.000999999997795,1.8309558421443475,-1.6859715999077638
17.20099999999804,1.8059438797862049,-1.7215716377713293
17.400999999998284,1.7785058592003924,-1.7497146646178863
17.60099999999853,1.7450736389308255,-1.779874041960169
17.800999999998773,1.715681334976361,-1.8025062854857665
18.000999999999017,1.6948543794196265,-1.8233258423278682
18.20099999999926,1.6719827125218807,-1.8508261328993678
18.400999999999506,1.6427357095305568,-1.8766736687667205
18.60099999999975,1.6238219840922314,-1.9098529355151448
18.799999999999994,1.6132456805215174,-1.9318519770187044
19.000000000000238,1.6031894867415466,-1.964603899338281
19.200000000000482,1.5851715005655282,-2.004251972291028
19.400000000000727,1.5620643492909339,-2.040917873866099
19.60000000000097,1.537074452092888,-2.0719993896097786
19.800000000001216,1.5124922934019827,-2.0977726453791363
20.00000000000146,1.4923962552943453,-2.1280495502081793
