Time (s),X (m),Y (m)
0.001,0.0011890620069237587,-0.00035268032603768894
0.20000000000000015,0.0021285078474426603,-0.00017950346096420498
0.4000000000000003,0.012459892853995475,-0.0034567002799235566
0.6000000000000004,0.012210494255208832,-0.0031502866918765612
0.8000000000000006,0.014429546318954977,-0.003163493489687776
1.0000000000000007,0.016431580292426525,-0.003391591274644504
1.2009999999999785,0.019206453996715007,-0.0041071330873004245
1.4009999999999565,0.021190966467235398,-0.0048583091770461806
1.6009999999999345,0.022469803685973264,-0.005369093320629557
1.8009999999999124,0.023544548849635936,-0.005793990032271498
2.0009999999998906,0.024563055308982396,-0.006217261542732362
2.2009999999998686,0.025572930726084915,-0.006652806403070663
2.4009999999998466,0.026796995738128705,-0.007117454392680108
2.6009999999998246,0.027793654994490612,-0.007554887135294197
2.8009999999998025,0.029270787061721593,-0.008052598211922907
3.0009999999997805,0.030572427305028994,-0.008532534239375491
3.2009999999997585,0.03178627842453508,-0.008987093929020399
3.4009999999997365,0.03336244704050117,-0.009501716091235108
3.6009999999997144,0.03497922759006368,-0.01006101939291791
3.8009999999996924,0.03666924738973691,-0.010573641222341234
4.000999999999671,0.03836735803968828,-0.01105963542668609
4.200999999999738,0.04027675910899483,-0.011633843692595444
4.400999999999804,0.04221902474228756,-0.012158642657529693
4.600999999999871,0.044134587431690644,-0.01269853217938343
4.800999999999938,0.04600982454167883,-0.013149441384752264
5.000000000000004,0.048119993920378724,-0.013727853370663843
5.200000000000071,0.05017370977936678,-0.014249054756738159
5.400000000000138,0.05242910379995265,-0.014771456874573163
5.600000000000205,0.05485620987158444,-0.015373781482996146
5.800000000000272,0.05756840444539997,-0.015955945119219994
6.000000000000338,0.060074974984813845,-0.016474182449847573
6.200000000000405,0.0626606601203572,-0.017012020334823238
6.400000000000472,0.06543169291834441,-0.01755232126585314
6.600000000000539,0.06807937548515011,-0.018054728030727992
6.800000000000606,0.07080646386310821,-0.01855902245068638
7.000000000000672,0.07369592178727048,-0.019047401869293015
7.200000000000739,0.07656823814462634,-0.019493708529276964
7.400000000000806,0.07984486159365846,-0.020002319076276386
7.600000000000873,0.08283394000281082,-0.02042968296845342
7.8000000000009395,0.08590664646267264,-0.02081478793919263
8.000000000001005,0.0891243565045611,-0.021181575912276294
8.200000000000895,0.09242546744574412,-0.021542523627085416
8.400000000000784,0.095721464385205,-0.021858250025850203
8.600000000000673,0.09904103433899866,-0.022149465718673808
8.800000000000562,0.10214922119924046,-0.022363767712197086
9.000000000000451,0.10546568405534225,-0.02254364280000568
9.20000000000034,0.10881202255140003,-0.022680521847483225
9.40000000000023,0.11192339030516062,-0.02276636616589674
9.600000000000119,0.11509885519352782,-0.022823357286636786
9.800000000000008,0.11845938442713597,-0.022833025351205023
10.000999999999896,0.12162342454892086,-0.022788109929012784
10.200999999999786,0.1247710462135091,-0.022732220795322618
10.400999999999675,0.12804009253961493,-0.022605223161842276
10.600999999999564,0.13137252427263374,-0.02239828442606646
10.800999999999453,0.13459141418008155,-0.022141137668056
11.000999999999342,0.13780793768396,-0.02182064111062559
11.200999999999231,0.14085870623357355,-0.021442167584758875
11.40099999999912,0.14412579386487817,-0.021027852338256547
11.60099999999901,0.14734712441384504,-0.020469183616419386
11.800999999998899,0.15055695718110715,-0.01988715557394173
12.000999999998788,0.15388689220025564,-0.019192155202834568
12.200999999998677,0.15725692591415388,-0.018405155621682167
12.400999999998566,0.160504322347819,-0.01754408713768421
12.600999999998455,0.1637147475401403,-0.016585558853565077
12.800999999998345,0.16704531396705152,-0.0155355877371059
13.000999999998234,0.17032056016316993,-0.014387488934294455
13.200999999998123,0.17367881160696805,-0.012998687581757163
13.400999999998012,0.17716609997436078,-0.011458707332406465
13.600999999997901,0.18122411719632442,-0.009004937555925503
13.80099999999779,0.18572097912624597,-0.0044624635240553615
14.00099999999768,0.1910741590857398,0.0045631254481100295
14.200999999997569,0.19664807448760954,0.014133590933443015
14.400999999997458,0.20169192197190386,0.023448683962329277
14.600999999997347,0.20717020874005757,0.03259557215267799
14.800999999997236,0.21288891925143114,0.04228881795369441
15.000999999997125,0.2185611954365613,0.052200289520339865
15.200999999997014,0.22321538970431234,0.06201541886164517
15.400999999996904,0.22809904837539427,0.07236809562720367
15.600999999996793,0.23225852072360134,0.08258356047410097
15.800999999996682,0.23674511003914567,0.09323772706205719
16.000999999996573,0.2402195588125037,0.10347851859834037
16.200999999996817,0.24335911903080784,0.11360906613645459
16.40099999999706,0.2464139802546904,0.12388848190140078
16.600999999997306,0.24889844754850168,0.1339322202295887
16.80099999999755,0.2510662602830215,0.1438607296162432
17.000999999997795,0.25326502866197215,0.15422743652218304
17.20099999999804,0.2550943553478671,0.16458562202684734
17.400999999998284,0.2569552281769676,0.17496507677860146
17.60099999999853,0.25840541054727356,0.1851024956342209
17.800999999998773,0.25974269139303363,0.19521764719446477
18.000999999999017,0.2607640589069843,0.20522230707135705
18.20099999999926,0.2616156988396563,0.21527891362026877
18.400999999999506,0.26229448763942564,0.22509362331506108
18.60099999999975,0.26276743593051344,0.2348595052597895
18.799999999999994,0.2629678206650513,0.24435603504700573
19.000000000000238,0.2630637431045923,0.2539069076145911
19.200000000000482,0.2626826529132229,0.2630922643762329
19.400000000000727,0.26237380083182277,0.27270667236142504
19.60000000000097,0.26178248115690944,0.2813457528682821
19.800000000001216,0.26098815145334625,0.29022798075507095
20.00000000000146,0.26003699789552553,0.29922350106780216
