Time (s),X (m),Y (m)
0.001,-0.0003713730577023104,0.0008446836120385872
0.20000000000000015,0.003151150422797101,-0.0013097029208889277
0.4000000000000003,0.0056864343839328904,0.005543036411472858
0.6000000000000004,0.00898056991663351,0.003183658627046649
0.8000000000000006,0.026713160498267424,-0.022994882022158693
1.0000000000000007,0.062303159603463165,-0.05016526711711434
1.2009999999999785,0.10285171428869264,-0.07361147911179278
1.4009999999999565,0.13784045826110142,-0.11964517535598386
1.6009999999999345,0.16275887434012995,-0.17623235092353903
1.8009999999999124,0.1908805399236321,-0.22266507860992168
2.0009999999998906,0.21550186451672323,-0.26201646305900866
2.2009999999998686,0.22926284981497272,-0.303706365130287
2.4009999999998466,0.22042786011841162,-0.3511678717578067
2.6009999999998246,0.2009773078666826,-0.4001902068519946
2.8009999999998025,0.16941325237219723,-0.43941790078274273
3.0009999999997805,0.12345064176339872,-0.46296200485364797
3.2009999999997585,0.0701156878242822,-0.48190019517395555
3.4009999999997365,0.01769150444600221,-0.49259972307016253
3.6009999999997144,-0.023537933890323545,-0.48930283715069345
3.8009999999996924,-0.07066745758734984,-0.4660615652625916
4.000999999999671,-0.12185654350975234,-0.43197230978348033
4.200999999999738,-0.16573050837000128,-0.39021108780312813
4.400999999999804,-0.20215487984300148,-0.3473152458892133
4.600999999999871,-0.22747120127435336,-0.3007831791187917
4.800999999999938,-0.23128472650567541,-0.25629026114168596
5.000000000000004,-0.20415391008004338,-0.21703989545725544
5.200000000000071,-0.17795146135957618,-0.16984796906165261
5.400000000000138,-0.14185183066215099,-0.14306848454995022
5.600000000000205,-0.10053271994205999,-0.13621399087515335
5.800000000000272,-0.054147557862579736,-0.13818537619193447
6.000000000000338,-0.010942382751571764,-0.17502828788674082
6.200000000000405,0.03149815133898311,-0.21945093929868348
6.400000000000472,0.06409776849780181,-0.26918762054476175
6.600000000000539,0.07826788983983303,-0.3328499822967553
6.800000000000606,0.09499754173360847,-0.3959948364745
7.000000000000672,0.11745959788067957,-0.4530466169038924
7.200000000000739,0.12964601800316755,-0.5309907903838001
7.400000000000806,0.12728045485221678,-0.613924223298429
7.600000000000873,0.1117968631583587,-0.6903259004945353
7.8000000000009395,0.07983142492332053,-0.7490844645427485
8.000000000001005,0.04027672747371689,-0.7913134056886998
8.200000000000895,-0.011411750390516806,-0.8210552530875658
8.400000000000784,-0.06365247458936095,-0.8445232277323534
8.600000000000673,-0.12234245569213104,-0.8328406438729004
8.800000000000562,-0.17418590477029955,-0.7990224604839804
9.000000000000451,-0.2144255030351527,-0.748767776160286
9.20000000000034,-0.25055453488099566,-0.6954885525771674
9.40000000000023,-0.27854875391283784,-0.644546152281753
9.600000000000119,-0.2761037542322602,-0.5938773355618154
9.800000000000008,-0.2404060295936772,-0.550036878924561
10.000999999999896,-0.18651718422468785,-0.515784200285481
10.200999999999786,-0.12635063545241454,-0.49327535334694544
10.400999999999675,-0.06469983223938304,-0.4787630287630317
10.600999999999564,-0.00030365735626705794,-0.4811685531423056
10.800999999999453,0.06208424233277321,-0.5104652002818539
11.000999999999342,0.11728073386130689,-0.547566162368505
11.200999999999231,0.16166369650897375,-0.5836794149364897
11.40099999999912,0.19822195868907838,-0.6162584390603614
11.60099999999901,0.23372097405027945,-0.6585539998636081
11.800999999998899,0.234855794728383,-0.7031604831370769
12.000999999998788,0.19599621315439406,-0.7369953389063818
12.200999999998677,0.14210020648264435,-0.7528218160263218
12.400999999998566,0.08253092659781054,-0.7681250715014105
12.600999999998455,0.01787884785731006,-0.7567513378761072
12.800999999998345,-0.05163783057088391,-0.7453111704323772
13.000999999998234,-0.11362985454745514,-0.7139263629725092
13.200999999998123,-0.1596653610875969,-0.6711374560297135
13.400999999998012,-0.19394741212541347,-0.6244536852198508
13.600999999997901,-0.2116675561810042,-0.5711091329619844
13.80099999999779,-0.1841649326436591,-0.5228603320872368
14.00099999999768,-0.1297937266335821,-0.48846469709253754
14.200999999997569,-0.0764142275594219,-0.4653911643059702
14.400999999997458,-0.014710428055378165,-0.45311241549561354
14.600999999997347,0.044365799031941835,-0.47170332755867633
14.800999999997236,0.08816149424879416,-0.518229408092585
15.000999999997125,0.11876194928267136,-0.5719746999450559
15.200999999997014,0.13916967182768925,-0.6212089640503803
15.400999999996904,0.15773070362939898,-0.6773181772536493
15.600999999996793,0.17621306277065837,-0.7374866320195114
15.800999999996682,0.18777060810479432,-0.7962337359849553
16.000999999996573,0.16900013326931707,-0.8624742114056931
16.200999999996817,0.13081878291966959,-0.9316860553729676
16.40099999999706,0.09614998918111402,-0.9893940950406849
16.600999999997306,0.04845925198081582,-1.0283147281455407
16.80099999999755,-0.018706089799723182,-1.0456724955529901
17.000999999997795,-0.09860262519494063,-1.0419070977258822
17.20099999999804,-0.1805574462363006,-1.0369252837572998
17.400999999998284,-0.26650653968084875,-1.0310433840180289
17.60099999999853,-0.35535799369001897,-1.0286319304147364
17.800999999998773,-0.44196449477932936,-1.0122455680037503
18.000999999999017,-0.5171819393784226,-0.9751663567926553
18.20099999999926,-0.5720508639530667,-0.9136224158271674
18.400999999999506,-0.6115412283742483,-0.8521214842073671
18.60099999999975,-0.6448181326043089,-0.7869535707802805
18.799999999999994,-0.6769641066219791,-0.7267780565862302
19.000000000000238,-0.6971694827572942,-0.6627482251094993
19.200000000000482,-0.6957058604990342,-0.5960633341039977
19.400000000000727,-0.7037220493620753,-0.5310117101012501
19.60000000000097,-0.7033162872742857,-0.46381409637999643
19.800000000001216,-0.6878590680813348,-0.4019258305338793
20.00000000000146,-0.6572783171208397,-0.3528415136467589
