Time (s),X (m),Y (m)
0.001,0.0010647643868879006,-0.0005914538325516239
0.20000000000000015,-3.464431581550809e-05,0.0002819342455835189
0.4000000000000003,0.00997055700947001,-0.0016824873864594051
0.6000000000000004,0.03029447217846563,-0.006303077411532362
0.8000000000000006,0.05031136942777069,-0.011203237351814855
1.0000000000000007,0.0747326826923552,-0.017779127044524865
1.2009999999999785,0.10121758467398344,-0.01647697467657283
1.4009999999999565,0.1325622051347447,-0.02042614439021247
1.6009999999999345,0.16314364143755028,-0.027071173328425294
1.8009999999999124,0.18653799865446447,-0.04174544053265449
2.0009999999998906,0.20180371577555634,-0.0663355421076544
2.2009999999998686,0.20720737101652859,-0.10159928112099126
2.4009999999998466,0.20548979870002373,-0.14174071632324908
2.6009999999998246,0.19923476255537836,-0.1858097865834004
2.8009999999998025,0.18884082475166752,-0.2304305339449396
3.0009999999997805,0.17611674223858878,-0.2731442397311374
3.2009999999997585,0.165187360678729,-0.31018340087090746
3.4009999999997365,0.14695999281264155,-0.33618067161551207
3.6009999999997144,0.11710724045343285,-0.35554516964134625
3.8009999999996924,0.07325366345844264,-0.35276988584710745
4.000999999999671,0.019687696070096846,-0.33807716831919
4.200999999999738,-0.029041658901443963,-0.3110819094131208
4.400999999999804,-0.06363674381908599,-0.2788527682729271
4.600999999999871,-0.08693813956393333,-0.2437656677605647
4.800999999999938,-0.10109898689252568,-0.21012456350851413
5.000000000000004,-0.10299567427633029,-0.16398525433478664
5.200000000000071,-0.10293721086875013,-0.11820964619957489
5.400000000000138,-0.08658201963257404,-0.07399546300502648
5.600000000000205,-0.04615535172761051,-0.027753243012950513
5.800000000000272,0.0012986614250353411,0.0034556639386971962
6.000000000000338,0.0393307715075187,0.025636400925908773
6.200000000000405,0.08045895451843094,0.035071259373167546
6.400000000000472,0.11285686144687226,0.03633407135776118
6.600000000000539,0.15223717712687104,0.02005761285407961
6.800000000000606,0.19256138946133522,-0.008990970661012062
7.000000000000672,0.21906174368857237,-0.044375230572199574
7.200000000000739,0.2359714490002494,-0.07484381442730306
7.400000000000806,0.23369232754050104,-0.11231146282285408
7.600000000000873,0.22609348343738916,-0.16013639852283323
7.8000000000009395,0.20912150040495753,-0.2208239281380087
8.000000000001005,0.18186745702696774,-0.2857280694342511
8.200000000000895,0.16262676384851016,-0.3441893218765014
8.400000000000784,0.13827857127984278,-0.3993093681525667
8.600000000000673,0.11793250626461765,-0.4521535327299294
8.800000000000562,0.08953988198685085,-0.48598848560994806
9.000000000000451,0.048702236093489476,-0.4933892832992386
9.20000000000034,-0.0025412276647405942,-0.4735266910720273
9.40000000000023,-0.05377931418588826,-0.45074578091271117
9.600000000000119,-0.09424190179009144,-0.4217103794081271
9.800000000000008,-0.11648698240384389,-0.3823434035159552
10.000999999999896,-0.13048291151788613,-0.3395721969894227
10.200999999999786,-0.128418866133065,-0.2805993925011158
10.400999999999675,-0.11170279685129046,-0.20840230415396452
10.600999999999564,-0.08509176934116551,-0.13836382609697945
10.800999999999453,-0.05417945955964436,-0.0798265105610887
11.000999999999342,-0.0037737725760604657,-0.042124364176933896
11.200999999999231,0.05177070249831134,-0.02129245079161671
11.40099999999912,0.10549903371722852,-0.013921661305599365
11.60099999999901,0.16417770284597677,-0.023134561752042523
11.800999999998899,0.22689124457259743,-0.040639291082702374
12.000999999998788,0.2908123713035426,-0.0648030156056308
12.200999999998677,0.35176761840143467,-0.09898018556172303
12.400999999998566,0.38994796316054736,-0.14717920965988265
12.600999999998455,0.3943594328364436,-0.2064173139765474
12.800999999998345,0.3890363101768682,-0.2675369038846077
13.000999999998234,0.3572175183776543,-0.31617773530217225
13.200999999998123,0.29769059790942903,-0.32034233314568966
13.400999999998012,0.23315045847005222,-0.3022874685729583
13.600999999997901,0.17406177325073208,-0.2911413320800765
13.80099999999779,0.12217812532468511,-0.26950947621593857
14.00099999999768,0.08548428347372515,-0.2440222298966818
14.200999999997569,0.06445782269244255,-0.21150394687703805
14.400999999997458,0.05381225918407499,-0.17212253347822778
14.600999999997347,0.05003647981245363,-0.12580635834377848
14.800999999997236,0.05540973570206401,-0.07614105355457437
15.000999999997125,0.06379728230092373,-0.023157122472980216
15.200999999997014,0.08888680686825144,0.015358479495028096
15.400999999996904,0.11534360844807388,0.048808253694361765
15.600999999996793,0.15735273772386804,0.06704755410774747
15.800999999996682,0.21664099122915734,0.06129260615152647
16.000999999996573,0.27923027301679515,0.03931907355208754
16.200999999996817,0.3262131708403563,0.0010992353395309102
16.40099999999706,0.3558481380537034,-0.04888939020741626
16.600999999997306,0.3611075236296897,-0.10260589248743565
16.80099999999755,0.360061285301918,-0.1569207520748479
17.000999999997795,0.3462380504783559,-0.21902091655267203
17.20099999999804,0.3279634743208035,-0.2874874112554591
17.400999999998284,0.31396200746686076,-0.35580205401386994
17.60099999999853,0.2968665213310051,-0.41894981872390996
17.800999999998773,0.2773536622498642,-0.48163737558308617
18.000999999999017,0.2641219986976149,-0.5519957490204899
18.20099999999926,0.23459964928021346,-0.6202540387204648
18.400999999999506,0.19748254356686917,-0.6810983721693123
18.60099999999975,0.1559978831521853,-0.7344544788708481
18.799999999999994,0.09359105744683939,-0.7684232872022783
19.000000000000238,0.029498793059673244,-0.7883902778580634
19.200000000000482,-0.025083088716149997,-0.8006514352932079
19.400000000000727,-0.08251729013694882,-0.8059510706738926
19.60000000000097,-0.14172693343537351,-0.8026193474558775
19.800000000001216,-0.19782861781717995,-0.7732814282800848
20.00000000000146,-0.23935865521695643,-0.725080341296315
