Time (s),X (m),Y (m)
0.001,0.0011890620069237587,-0.00035268032603768894
0.20000000000000015,0.004443236404262299,-0.00038689786340412937
0.4000000000000003,0.014074059340329181,-0.0016438889269072125
0.6000000000000004,0.026085186501751303,-0.008310950561319549
0.8000000000000006,0.04112414819675787,-0.012587643651503787
1.0000000000000007,0.06994170803011066,-0.01795747645997801
1.2009999999999785,0.09581128787316195,-0.023794434342883242
1.4009999999999565,0.12608372792508557,-0.03551486552040148
1.6009999999999345,0.15911267048136682,-0.04371981984082455
1.8009999999999124,0.19069499565110043,-0.04763529909251071
2.0009999999998906,0.22067040954577993,-0.05198263951242391
2.2009999999998686,0.23599055088450577,-0.08941706296722961
2.4009999999998466,0.2358100030408693,-0.13786306731022144
2.6009999999998246,0.2310487755887567,-0.1861382046936581
2.8009999999998025,0.22119499608359208,-0.23355881293286754
3.0009999999997805,0.18570600028063053,-0.28042002935457644
3.2009999999997585,0.13782948152738636,-0.31272256303007334
3.4009999999997365,0.08119690777692448,-0.3286491517557473
3.6009999999997144,0.0259438290572185,-0.33128646187934835
3.8009999999996924,-0.030668243328984518,-0.3206660083621263
4.000999999999671,-0.08387592902796875,-0.30129516611684704
4.200999999999738,-0.11483645522873026,-0.24883941464392031
4.400999999999804,-0.11699211380929152,-0.18965626208109168
4.600999999999871,-0.08694327368722936,-0.1334853701801793
4.800999999999938,-0.05157008776745857,-0.09408865735590219
5.000000000000004,-0.005290480657391918,-0.0740284367759137
5.200000000000071,0.0369890718271718,-0.07015329165046612
5.400000000000138,0.0816044142083922,-0.08274261503084482
5.600000000000205,0.12276297520281988,-0.0976630441266803
5.800000000000272,0.1500213856802928,-0.13554002500054213
6.000000000000338,0.160183342182375,-0.1796766636538397
6.200000000000405,0.15949019067708872,-0.2211215238133782
6.400000000000472,0.16160477051077032,-0.27054876390978305
6.600000000000539,0.13901581510899175,-0.32181888405466186
6.800000000000606,0.09239964047938715,-0.3596631119113072
7.000000000000672,0.04022377781351893,-0.3774410492267165
7.200000000000739,-0.011662617231166846,-0.3710392734731886
7.400000000000806,-0.05998763707545607,-0.3558605839731464
7.600000000000873,-0.10228513159594073,-0.32709279144530723
7.8000000000009395,-0.12807899791549232,-0.29199362369877896
8.000000000001005,-0.12656347904438597,-0.24112030661749048
8.200000000000895,-0.10944663962196452,-0.17774465947473359
8.400000000000784,-0.0942382326600975,-0.1139432042382919
8.600000000000673,-0.06681304852916553,-0.0570983469993947
8.800000000000562,-0.04313439388463607,-0.018993930775019482
9.000000000000451,-0.021433956644482142,0.000908255055584163
9.20000000000034,0.007532589770375484,0.005695148728952741
9.40000000000023,0.034991127884407586,-0.01642308157940578
9.600000000000119,0.04761097802037272,-0.06772579151706778
9.800000000000008,0.04840623375069389,-0.12991830363069526
10.000999999999896,0.03761765991275555,-0.1922057873113155
10.200999999999786,0.020723191376720042,-0.2524908965849649
10.400999999999675,-0.01511406159240893,-0.3025714880611979
10.600999999999564,-0.06800687764300956,-0.3423056778786986
10.800999999999453,-0.13527898995394758,-0.3622007247436047
11.000999999999342,-0.20926737358847347,-0.3558070522505197
11.200999999999231,-0.27877106639303617,-0.34166874214100346
11.40099999999912,-0.3499836671006274,-0.3129710537071095
11.60099999999901,-0.4214783456205125,-0.27899853058144186
11.800999999998899,-0.4982628801067167,-0.2310631053101237
12.000999999998788,-0.5777892501228025,-0.18239331450673113
12.200999999998677,-0.648436305155852,-0.1312376815860915
12.400999999998566,-0.6980770934874321,-0.07829874032249479
12.600999999998455,-0.728154124199482,-0.03259819532376042
12.800999999998345,-0.7266598028245886,0.014534181789489863
13.000999999998234,-0.6981649882800454,0.04696231923540671
13.200999999998123,-0.6544161114984166,0.05213177568951517
13.400999999998012,-0.6126552332171132,0.01869649114908075
13.600999999997901,-0.586631709932701,-0.02257206297353129
13.80099999999779,-0.5816023429155018,-0.07971425633659777
14.00099999999768,-0.5870947495809125,-0.14159250433357795
14.200999999997569,-0.5914334529985659,-0.19861358012251273
14.400999999997458,-0.6106563523507992,-0.2660041258840756
14.600999999997347,-0.6386775899998467,-0.3391822084500836
14.800999999997236,-0.6741012295350306,-0.40427553742386957
15.000999999997125,-0.7257501899679708,-0.4554042560992468
15.200999999997014,-0.7821760211692402,-0.48256014456775465
15.400999999996904,-0.8488219956261873,-0.4914477073131835
15.600999999996793,-0.9099862231591522,-0.4981239558464471
15.800999999996682,-0.9678627435270515,-0.4941451362434872
16.000999999996573,-1.0418883584967853,-0.4751367959995833
16.200999999996817,-1.1149052657826315,-0.45872239669842396
16.40099999999706,-1.1936342369699353,-0.43455405671693226
16.600999999997306,-1.2717013176036092,-0.40061409975331697
16.80099999999755,-1.3233252119987853,-0.35459872861729863
17.000999999997795,-1.3489405566801267,-0.30653356871032633
17.20099999999804,-1.3556402645835026,-0.24846109352099296
17.400999999998284,-1.351282200597654,-0.19174943099908903
17.60099999999853,-1.3485781986653003,-0.13468905121880245
17.800999999998773,-1.3336344196784187,-0.06804515581700421
18.000999999999017,-1.3007359269689653,-0.0004589507233837525
18.20099999999926,-1.2450166526516913,0.04438793760026906
18.400999999999506,-1.180968115207708,0.06421064021624827
18.60099999999975,-1.1121554600028658,0.05792531168497304
18.799999999999994,-1.0476730572800745,0.02268988443523641
19.000000000000238,-1.0014356592394926,-0.02162998138007843
19.200000000000482,-0.975137445715595,-0.06767087384557394
19.400000000000727,-0.9875922045984983,-0.11582685679812145
19.60000000000097,-1.0128830729030562,-0.1505793778989772
19.800000000001216,-1.0525795825220885,-0.16796246915442628
20.00000000000146,-1.116986667463481,-0.16759863296216654
