Time (s),X (m),Y (m)
0.001,0.0003099530129853942,-0.0010272443824616275
0.20000000000000015,0.0014476156919545134,0.001952402711461533
0.4000000000000003,0.0035011231533928168,0.0007575124302559538
0.6000000000000004,0.005372055414315697,0.001391180136431347
0.8000000000000006,0.006411628620778251,0.0028183653360730264
1.0000000000000007,0.00851558781475515,0.0011022450920877749
1.2009999999999785,0.01004505571783305,0.0006619483747713719
1.4009999999999565,0.011211031921644384,-0.000251505275254826
1.6009999999999345,0.013324708156332238,-0.001107745208234413
1.8009999999999124,0.014564308854721443,-0.0010229321092229385
2.0009999999998906,0.016160558449440646,-0.0009173517639525541
2.2009999999998686,0.01774488964045943,-0.00028232650971355284
2.4009999999998466,0.02017465135434621,-0.0018233936498784568
2.6009999999998246,0.021802004785604248,-0.002673936653735796
2.8009999999998025,0.023616909216239497,-0.0025962449703698736
3.0009999999997805,0.02531713161181544,-0.003067411432911499
3.2009999999997585,0.026678166153818607,-0.003793532898680969
3.4009999999997365,0.028773786080115448,-0.003659687435251015
3.6009999999997144,0.030595693066386237,-0.0034963030738259047
3.8009999999996924,0.03248034557824659,-0.003429954580512895
4.000999999999671,0.034323024234126316,-0.0026767734434994736
4.200999999999738,0.037585524534420246,-0.00323591741190744
4.400999999999804,0.04050062186711707,-0.0018029776714468273
4.600999999999871,0.0427162564614252,-0.0016532705019606149
4.800999999999938,0.04574336829184284,-0.0013908041850708508
5.000000000000004,0.0481665169506186,-0.00042579535493863347
5.200000000000071,0.0503278052380932,0.001267113216748094
5.400000000000138,0.054021366034329346,0.002631749671131829
5.600000000000205,0.05666116489833342,0.004046345464302535
5.800000000000272,0.05939965130068514,0.005265933784338222
6.000000000000338,0.060814586597869896,0.007480450902057954
6.200000000000405,0.06327450593733094,0.007733246612810193
6.400000000000472,0.06469178767337296,0.00925553897211367
6.600000000000539,0.06745435710216703,0.01108874006269993
6.800000000000606,0.06947902443937143,0.011789099179514512
7.000000000000672,0.07094079438476261,0.012653004568152389
7.200000000000739,0.07316454716697912,0.014235216492688519
7.400000000000806,0.0745837004421644,0.01571822157159347
7.600000000000873,0.07558906318588736,0.016847711768521175
7.8000000000009395,0.07665373523927463,0.018274938547666913
8.000000000001005,0.07766080198469869,0.018730222145807055
8.200000000000895,0.07912596246369877,0.01985243759465177
8.400000000000784,0.08021186170424371,0.021234474521728594
8.600000000000673,0.08030653731237271,0.02237208766286152
8.800000000000562,0.08153541804967061,0.023765920270944742
9.000000000000451,0.08269613948725876,0.02523394284052036
9.20000000000034,0.08417345263551478,0.02645685123880986
9.40000000000023,0.08575375010652223,0.027234305170647025
9.600000000000119,0.08751009172030307,0.028605601518575198
9.800000000000008,0.08930187124656921,0.029368432610187355
10.000999999999896,0.09034503164781554,0.030688854965349503
10.200999999999786,0.09198198104171199,0.031892703577384086
10.400999999999675,0.09362951024524188,0.033657585641391735
10.600999999999564,0.09485072301030105,0.035908686704531664
10.800999999999453,0.09537175831693259,0.03796736714896529
11.000999999999342,0.09539874004184,0.03978296243532636
11.200999999999231,0.0976478079421146,0.04233655820532256
11.40099999999912,0.09940177127547031,0.04446604384822432
11.60099999999901,0.09998632204899092,0.04717528642315636
11.800999999998899,0.10123362299414734,0.050138714145878005
12.000999999998788,0.10217129438675919,0.05327418227395528
12.200999999998677,0.10354044155177161,0.055774094508123984
12.400999999998566,0.10366053061444329,0.05869793053912965
12.600999999998455,0.10380139917820437,0.061805980293943685
12.800999999998345,0.10491304951571008,0.06461212607136801
13.000999999998234,0.10483285803640216,0.0673702996913546
13.200999999998123,0.10530459591422738,0.07063483073124162
13.400999999998012,0.10526804851538253,0.07342379288154027
13.600999999997901,0.10552884611346174,0.07631569121445429
13.80099999999779,0.1053599201391777,0.07961321962011485
14.00099999999768,0.10524640134435619,0.08207878806518984
14.200999999997569,0.10431477398072175,0.08497156207613799
14.400999999997458,0.1048390615322598,0.08807548169894873
14.600999999997347,0.10364899090849211,0.0908246162375437
14.800999999997236,0.10327750364588789,0.09291750882041812
15.000999999997125,0.1023945857147683,0.09591074773725977
15.200999999997014,0.10174295462681597,0.09828493473731513
15.400999999996904,0.10125218364144296,0.10006170449051578
15.600999999996793,0.1003438437592149,0.10221882747499371
15.800999999996682,0.09982198074895765,0.10456989643143663
16.000999999996573,0.09939190714624242,0.10630733805590561
16.200999999996817,0.09845772506164185,0.1080832522035058
16.40099999999706,0.0969073984069437,0.11015838229484969
16.600999999997306,0.09551019761270474,0.11238226650083384
16.80099999999755,0.09358770564117744,0.11460849400046845
17.000999999997795,0.09161964784333096,0.11712598688119637
17.20099999999804,0.08949193335109523,0.11955989212133247
17.400999999998284,0.08734852629452391,0.12195085290288209
17.60099999999853,0.08496574783330574,0.12432833584060687
17.800999999998773,0.08253268951514127,0.12679764167048735
18.000999999999017,0.07994570033219867,0.12895283710567318
18.20099999999926,0.07740920866764295,0.13118589484332102
18.400999999999506,0.07535778736130465,0.13236903746418094
18.60099999999975,0.07347799305297395,0.13357575347610928
18.799999999999994,0.07185105207375377,0.1351844064039293
19.000000000000238,0.06921557120397158,0.13535113398286466
19.200000000000482,0.06694832073394869,0.13635153997854685
19.400000000000727,0.06384081091282975,0.13757049347774802
19.60000000000097,0.0612533340042914,0.13871566182374762
19.800000000001216,0.05868345910111482,0.13983578071315883
20.00000000000146,0.05601548244175057,0.14009915215564883
