Time (s),X (m),Y (m)
0.001,0.0008115346074009382,-0.0008446836120385868
0.20000000000000015,0.003227163683409356,-0.002102062309538019
0.4000000000000003,0.00950411047937221,-0.008426578503032812
0.6000000000000004,0.014800511431837303,-0.010007456246255346
0.8000000000000006,0.018058225114101288,-1.4672927691714029e-05
1.0000000000000007,0.022818157124848627,-0.006250303170709063
1.2009999999999785,0.0322943076265503,-0.0015098319108148158
1.4009999999999565,0.04118298003846381,-0.0030162710839161193
1.6009999999999345,0.05744186929642645,0.0026146824538362335
1.8009999999999124,0.07212995442623121,0.010115659923269469
2.0009999999998906,0.0832419001934124,0.005707004849416874
2.2009999999998686,0.09081368951343537,0.005776396332600807
2.4009999999998466,0.09798736419400969,0.010721078684481295
2.6009999999998246,0.10980310868303439,0.0008285123415906521
2.8009999999998025,0.12228948976396152,-0.006264013416745703
3.0009999999997805,0.13303066898784088,-0.0042978278593159185
3.2009999999997585,0.14188227612418217,-0.011558577467942388
3.4009999999997365,0.1515174085158018,-0.014926743446940326
3.6009999999997144,0.16153930632488198,-0.0226784780186346
3.8009999999996924,0.1765722598789211,-0.03401167244893828
4.000999999999671,0.1869103132831051,-0.041296617411749115
4.200999999999738,0.19198544627118289,-0.045849009511415406
4.400999999999804,0.2039000751234715,-0.049446767778873066
4.600999999999871,0.21324770725554346,-0.0573382731814157
4.800999999999938,0.2251821972625173,-0.05521511554603636
5.000000000000004,0.23316266468076147,-0.06809090752760211
5.200000000000071,0.24522788243893973,-0.07236237244431125
5.400000000000138,0.2576956689658749,-0.07481718912314562
5.600000000000205,0.26337856675892535,-0.079951711337747
5.800000000000272,0.27104932297323614,-0.08979721105970409
6.000000000000338,0.2740387017849213,-0.10163048807109147
6.200000000000405,0.2819863588498877,-0.10400341222683816
6.400000000000472,0.2932859808737261,-0.11563648705856884
6.600000000000539,0.30739491536371516,-0.12348794714094702
6.800000000000606,0.31828916600307666,-0.1285184548778268
7.000000000000672,0.3192331829183135,-0.1449619531212025
7.200000000000739,0.32904911499741357,-0.14692611426262805
7.400000000000806,0.33852001290941125,-0.15594555108436978
7.600000000000873,0.348343730367994,-0.16638346342164728
7.8000000000009395,0.35770284405456765,-0.1779149174869285
8.000000000001005,0.3642155520560256,-0.18835768066267466
8.200000000000895,0.3703998193630918,-0.19899161715412647
8.400000000000784,0.37788257844100975,-0.2084062632619052
8.600000000000673,0.3890970109960067,-0.20626370056378038
8.800000000000562,0.39954885380920574,-0.21656797172770587
9.000000000000451,0.41173325982005,-0.21650782550681033
9.20000000000034,0.41973580161563667,-0.22434045874530903
9.40000000000023,0.4292978592772119,-0.23591724295707947
9.600000000000119,0.4322937249031296,-0.2435295263981617
9.800000000000008,0.44412180381268607,-0.2537190283499853
10.000999999999896,0.45476364174869455,-0.2687829948551679
10.200999999999786,0.4643891338725067,-0.27734016154561325
10.400999999999675,0.4669903318752946,-0.28711868871791174
10.600999999999564,0.47106015877817015,-0.3005414075006167
10.800999999999453,0.478146751679674,-0.3105093227804961
11.000999999999342,0.479363625561741,-0.3243385222155786
11.200999999999231,0.48547894646288736,-0.3410479503181527
11.40099999999912,0.49089887299687235,-0.35577487601117264
11.60099999999901,0.5003122571698331,-0.36157473538498586
11.800999999998899,0.5093160006382145,-0.36027762126592466
12.000999999998788,0.5118830032431252,-0.3717383775712323
12.200999999998677,0.5164536615744684,-0.3827365920128788
12.400999999998566,0.5208776118443408,-0.3909209211049448
12.600999999998455,0.5271936276525743,-0.405361814767342
12.800999999998345,0.5285918957687006,-0.4158437770483698
13.000999999998234,0.535969445192404,-0.4237452746151931
13.200999999998123,0.5452310186727272,-0.42824451759117993
13.400999999998012,0.553844884285965,-0.44234958286512116
13.600999999997901,0.557541474726947,-0.45596110770667425
13.80099999999779,0.5625918899536853,-0.47046870176254885
14.00099999999768,0.5678613450447914,-0.4851529221234867
14.200999999997569,0.570672496202408,-0.5014205875842416
14.400999999997458,0.5756569422501184,-0.5201759836623907
14.600999999997347,0.577909033864944,-0.5410888409465954
14.800999999997236,0.5801236312763459,-0.5548506603574188
15.000999999997125,0.5852776327977499,-0.5621980917134781
15.200999999997014,0.5959884676037296,-0.5721376334236996
15.400999999996904,0.5993360616334755,-0.57957965885516
15.600999999996793,0.6056338069980076,-0.5886494306399502
15.800999999996682,0.6094313844320879,-0.6061646110238882
16.000999999996573,0.6136062601490385,-0.6204924044527632
16.200999999996817,0.6210844981701149,-0.628357862445294
16.40099999999706,0.6249429548586741,-0.6322997066838778
16.600999999997306,0.6270746158159567,-0.6423887780813649
16.80099999999755,0.6334756913688403,-0.6525668083317326
17.000999999997795,0.6388849185351092,-0.6674217032528161
17.20099999999804,0.6477705888317276,-0.6773082124247448
17.400999999998284,0.6561726724976653,-0.6848591720163018
17.60099999999853,0.6628525396557846,-0.6898004981686833
17.800999999998773,0.6664724431524484,-0.7048371077193599
18.000999999999017,0.666063608170883,-0.7230961691203213
18.20099999999926,0.670408661971074,-0.7339961229580084
18.400999999999506,0.6776582082553226,-0.737408085416311
18.60099999999975,0.6846373102076493,-0.7516073947562243
18.799999999999994,0.6928610978060694,-0.7598546078199984
19.000000000000238,0.6948867481259724,-0.7669573248578601
19.200000000000482,0.7026002866299516,-0.7779489450197489
19.400000000000727,0.7072226375236857,-0.7925334768938164
19.60000000000097,0.7097376521972718,-0.8047152519961764
19.800000000001216,0.7161364023686189,-0.8132068139110856
20.00000000000146,0.724516878631895,-0.8161384078591345
