Time (s),X (m),Y (m)
0.001,4.1020280575708355e-05,0.0010155025257856582
0.20000000000000015,0.001440686461754853,0.00044486053519480156
0.4000000000000003,0.0030171153480193476,0.007507744025774353
0.6000000000000004,0.0063836606034769,0.0012995594623924013
0.8000000000000006,0.012623205737293513,-0.004675921029053233
1.0000000000000007,0.022094988746470808,-0.003687744430568851
1.2009999999999785,0.028514258571622826,-0.008668436738868846
1.4009999999999565,0.03847793689253268,-0.006860497689410485
1.6009999999999345,0.04747436799358234,-0.005569637491299044
1.8009999999999124,0.0540728123415313,-0.01267925704364083
2.0009999999998906,0.06350406518270822,-0.01265710061900562
2.2009999999998686,0.0748378745473724,-0.018962515531818182
2.4009999999998466,0.08462013498225338,-0.025716242132362566
2.6009999999998246,0.09083382930744739,-0.04036819898394274
2.8009999999998025,0.10295488678405974,-0.034368079643661634
3.0009999999997805,0.11225826030587178,-0.03888978629723189
3.2009999999997585,0.12183034622868219,-0.057632527340609134
3.4009999999997365,0.12951063253075418,-0.07159115657067089
3.6009999999997144,0.14256922594802987,-0.0823441222790864
3.8009999999996924,0.1547160454279355,-0.08407226240773688
4.000999999999671,0.1660446305612307,-0.08543570306545327
4.200999999999738,0.17710893648003664,-0.09440238554491649
4.400999999999804,0.18226222171427836,-0.1080505434981388
4.600999999999871,0.19134408796068228,-0.11539262831693259
4.800999999999938,0.19876923050065864,-0.12915308541073678
5.000000000000004,0.20692747705458378,-0.12709627342187993
5.200000000000071,0.21871466574770929,-0.12783752009274676
5.400000000000138,0.2281214509470596,-0.13550085400823672
5.600000000000205,0.24368808670419762,-0.13505812502233386
5.800000000000272,0.25820176409642276,-0.1347792459830853
6.000000000000338,0.26729078588272304,-0.1485930971090651
6.200000000000405,0.2788558692674012,-0.15228681369721683
6.400000000000472,0.2922404755281223,-0.1567351633475958
6.600000000000539,0.30606295723355587,-0.1590832993889078
6.800000000000606,0.31458706045794615,-0.16926202576542018
7.000000000000672,0.3179085121710155,-0.1890216113723585
7.200000000000739,0.32682091496158044,-0.18936004129875028
7.400000000000806,0.33571973351632844,-0.20744939854950264
7.600000000000873,0.344133135680172,-0.2195655057181103
7.8000000000009395,0.3580376031348557,-0.21759751027040988
8.000000000001005,0.3667986747864685,-0.23247700475953964
8.200000000000895,0.38050812655960653,-0.24034009167627157
8.400000000000784,0.39611215786907095,-0.2415451837330529
8.600000000000673,0.4037866400443608,-0.24990278891687762
8.800000000000562,0.41597360838434855,-0.26067742028183133
9.000000000000451,0.42850719273642407,-0.27232252746070457
9.20000000000034,0.4323214394520205,-0.2875424082381073
9.40000000000023,0.44294860350372073,-0.29079298058762837
9.600000000000119,0.4578141753149115,-0.30028159903867374
9.800000000000008,0.46631051175011656,-0.31316686330160487
10.000999999999896,0.47958247655017744,-0.31372338581547204
10.200999999999786,0.4865140201651826,-0.32245143008561733
10.400999999999675,0.4954360545241465,-0.3353979197508343
10.600999999999564,0.5092610026262862,-0.3362768869386235
10.800999999999453,0.5223399706452445,-0.3461233824849906
11.000999999999342,0.5368053469308198,-0.34912432413668626
11.200999999999231,0.5523661291916765,-0.34651598378116616
11.40099999999912,0.5638273656584799,-0.3578436627308975
11.60099999999901,0.5706299214353825,-0.370353954185222
11.800999999998899,0.5773288687371553,-0.3819281228869858
12.000999999998788,0.585491586274567,-0.3911352659841503
12.200999999998677,0.5925608016633696,-0.4000888846626724
12.400999999998566,0.6016582347454549,-0.41049111593841336
12.600999999998455,0.6087474211671553,-0.4212296705078953
12.800999999998345,0.6130773133801569,-0.4314102912733035
13.000999999998234,0.6255983404224739,-0.43778793565263124
13.200999999998123,0.6355904846801008,-0.4544915267033648
13.400999999998012,0.6446174706664025,-0.4614958887747342
13.600999999997901,0.6606672647928069,-0.4718061160103466
13.80099999999779,0.6724706605521042,-0.48234997061854673
14.00099999999768,0.6797011514179289,-0.49831667980105315
14.200999999997569,0.6891318693509709,-0.5098048300254622
14.400999999997458,0.7014244623201854,-0.5161586264300029
14.600999999997347,0.717201914902283,-0.5284180628490737
14.800999999997236,0.7296477678859701,-0.530918492035811
15.000999999997125,0.7413459990864922,-0.541885531749941
15.200999999997014,0.7478055758217983,-0.5528104756090795
15.400999999996904,0.7592158173864854,-0.5583009424533273
15.600999999996793,0.7692168720764327,-0.5700542517967184
15.800999999996682,0.7740250428028169,-0.5808390040027454
16.000999999996573,0.7863975400982538,-0.5869849748540307
16.200999999996817,0.797289706163328,-0.5946398280351772
16.40099999999706,0.8096158715997647,-0.6061328401004873
16.600999999997306,0.8174231496897834,-0.6185346233414307
16.80099999999755,0.8301127602362083,-0.6230233880369191
17.000999999997795,0.8446323661507685,-0.6311976243575045
17.20099999999804,0.8595394986556681,-0.6352992473562639
17.400999999998284,0.8705913999017086,-0.636390596583301
17.60099999999853,0.8849735969334822,-0.6365385890097933
17.800999999998773,0.9005838910646585,-0.6381554810508929
18.000999999999017,0.914099679483356,-0.6572221904988946
18.20099999999926,0.9256917310197516,-0.6656038388887238
18.400999999999506,0.939171769379309,-0.6751477025834263
18.60099999999975,0.9532624441648332,-0.6831627456333949
18.799999999999994,0.9659514583561386,-0.6840019804983044
19.000000000000238,0.9816340761308143,-0.68965737462525
19.200000000000482,0.9952667534165553,-0.6931340904716315
19.400000000000727,1.0094411545245687,-0.709193753385187
19.60000000000097,1.0265868007864756,-0.7140842703538195
19.800000000001216,1.0373789763491363,-0.7206950024868243
20.00000000000146,1.0518747935237003,-0.715560411790547
