Time (s),X (m),Y (m)
0.001,0.0011890620069237587,-0.00035268032603768894
0.20000000000000015,0.0012905083666178336,0.0008516037688923704
0.4000000000000003,0.004593432712129069,0.007434787030803369
0.6000000000000004,0.007424088495760918,0.015159249680769146
0.8000000000000006,0.015823040346370717,0.017895134937324794
1.0000000000000007,0.04087002351698439,0.014752035891789162
1.2009999999999785,0.06956320406603134,0.006586875470867771
1.4009999999999565,0.11093443198846216,-0.013955563497324278
1.6009999999999345,0.15465183730114127,-0.029955741451537548
1.8009999999999124,0.19440482685199775,-0.03515414627507149
2.0009999999998906,0.22172756346369973,-0.04877567402124136
2.2009999999998686,0.23535702014936477,-0.07117620326794954
2.4009999999998466,0.2425355316092532,-0.10146744275581569
2.6009999999998246,0.23469683227477486,-0.1310582671659041
2.8009999999998025,0.22311802781280993,-0.1610195440050709
3.0009999999997805,0.2099199902256638,-0.19128413674964106
3.2009999999997585,0.19385649918096975,-0.21823016450559676
3.4009999999997365,0.16288407984747635,-0.2347903792785079
3.6009999999997144,0.13035574146737566,-0.24072945692941233
3.8009999999996924,0.08651927766624047,-0.23502910971532126
4.000999999999671,0.031197789692589416,-0.21550793326928275
4.200999999999738,-0.027405191902434563,-0.18819257096661351
4.400999999999804,-0.08294223632631827,-0.16561149940034386
4.600999999999871,-0.13878150324598917,-0.13723533714671876
4.800999999999938,-0.19070411640717433,-0.09878748798318493
5.000000000000004,-0.2302189972848654,-0.05329000611209923
5.200000000000071,-0.24818360931245828,-0.007395769621859089
5.400000000000138,-0.24943319107252782,0.04015743986488803
5.600000000000205,-0.2359999374523944,0.09314924074928106
5.800000000000272,-0.21786623315081846,0.1468434044560753
6.000000000000338,-0.19331475907228637,0.19878245006731782
6.200000000000405,-0.1531207039673957,0.24638125605014444
6.400000000000472,-0.10783580302385742,0.2796690225532364
6.600000000000539,-0.06275114070383046,0.2989140456261551
6.800000000000606,-0.015187249787648738,0.30236709522829114
7.000000000000672,0.043706255814388216,0.2922693892457054
7.200000000000739,0.10552891060427132,0.27228092461529557
7.400000000000806,0.16434523915946816,0.24823748718154404
7.600000000000873,0.22541035075968188,0.20837941958507392
7.8000000000009395,0.2783282718850625,0.14327222942829682
8.000000000001005,0.3032657649412313,0.08340476644194732
8.200000000000895,0.306641433066493,0.021563799914108842
8.400000000000784,0.3033017165105134,-0.03283498972518543
8.600000000000673,0.29169738365802944,-0.08751369369637005
8.800000000000562,0.2573252101508662,-0.14852057864478457
9.000000000000451,0.219665560210627,-0.21142933936546796
9.20000000000034,0.16713670753364807,-0.2602846995458501
9.40000000000023,0.09710179477793769,-0.28487604140088096
9.600000000000119,0.019084286172012903,-0.2884933002973457
9.800000000000008,-0.049861634470636455,-0.27827448082304634
10.000999999999896,-0.11636175093072934,-0.2610868466304171
10.200999999999786,-0.17467433209326502,-0.23900475158975037
10.400999999999675,-0.23052532648269292,-0.21493945425948213
10.600999999999564,-0.288088458805506,-0.1804172724029709
10.800999999999453,-0.34162353896028164,-0.14218734193367727
11.000999999999342,-0.3722637054058763,-0.10164259897546862
11.200999999999231,-0.3754475786603501,-0.05283245045214413
11.40099999999912,-0.3694302018753544,-0.005175406675343991
11.60099999999901,-0.3555231279023489,0.04364257437199631
11.800999999998899,-0.3319662789299677,0.0751314469357977
12.000999999998788,-0.2934741855276774,0.0879216597850605
12.200999999998677,-0.25115251716963494,0.08159901508779341
12.400999999998566,-0.2022845454940057,0.046545740111173683
12.600999999998455,-0.15441041324260119,0.015245989876574976
12.800999999998345,-0.12277989934009592,-0.024546468164950597
13.000999999998234,-0.11248253664061625,-0.06677718855482957
13.200999999998123,-0.11193349480503202,-0.11547340554845632
13.400999999998012,-0.12077805511167677,-0.17292081936714168
13.600999999997901,-0.13500264615940924,-0.23713916175403602
13.80099999999779,-0.15828042120068647,-0.3065066257460048
14.00099999999768,-0.1883923407508098,-0.37486645240696354
14.200999999997569,-0.2245646396662762,-0.4438680016531281
14.400999999997458,-0.2743604624568406,-0.4968630992917682
14.600999999997347,-0.33241564255914585,-0.5178334177354945
14.800999999997236,-0.3882500093464913,-0.5174761455274235
15.000999999997125,-0.4463186386441696,-0.5046886503723489
15.200999999997014,-0.5136449636801075,-0.47422158488262134
15.400999999996904,-0.5751038088899011,-0.4391159169988997
15.600999999996793,-0.6225718984533156,-0.3994865115996753
15.800999999996682,-0.6532503975949128,-0.35240463856876403
16.000999999996573,-0.6635556499376225,-0.30207601386985994
16.200999999996817,-0.6500986093602851,-0.24768588299485117
16.40099999999706,-0.6244865344678384,-0.20194874564805973
16.600999999997306,-0.589534258010117,-0.18269791698677726
16.80099999999755,-0.5422183174242035,-0.1866347703851573
17.000999999997795,-0.489197606102721,-0.20279803030183918
17.20099999999804,-0.43180805688417195,-0.2347646597981162
17.400999999998284,-0.3880876157860322,-0.2878232230062398
17.60099999999853,-0.37029319458803023,-0.3405941205681081
17.800999999998773,-0.3698493268685821,-0.39320509214170474
18.000999999999017,-0.37812731036453995,-0.4426743881721628
18.20099999999926,-0.3819336203578801,-0.48621453420434846
18.400999999999506,-0.4052239057038004,-0.5285739045865064
18.60099999999975,-0.44081694376528907,-0.5688278017967747
18.799999999999994,-0.4694805832691993,-0.6000388119870923
19.000000000000238,-0.4958019728717012,-0.6194050049624255
19.200000000000482,-0.531103595983178,-0.623817215694735
19.400000000000727,-0.5780824904498435,-0.6056936322837024
19.60000000000097,-0.6287446112551346,-0.5648342020309657
19.800000000001216,-0.6781364649920234,-0.5188844232336534
20.00000000000146,-0.7106195358567123,-0.47153875883415625
