Time (s),X (m),Y (m)
0.001,0.00013020853671323254,0.0010272443824616275
0.20000000000000015,0.0022872197843502146,-0.0028287798879264546
0.4000000000000003,0.0041056978709467385,-0.002523329660712564
0.6000000000000004,0.006638470241504656,0.00017259764036710326
0.8000000000000006,0.00894588466544622,0.0005083129387299028
1.0000000000000007,0.014675146633295432,-0.0007399725635952918
1.2009999999999785,0.016076618680034228,-0.0010405011619276374
1.4009999999999565,0.020160960147712476,0.00047441475673564793
1.6009999999999345,0.023258684073084512,0.0017589409132997215
1.8009999999999124,0.027444333763122723,0.0009219045022739708
2.0009999999998906,0.030277146618072015,0.0028592617720801378
2.2009999999998686,0.03287966871717618,0.0011151866307305244
2.4009999999998466,0.0362035555496462,-0.001018942501101321
2.6009999999998246,0.04028643197542227,-0.002484758550972975
2.8009999999998025,0.04498977193136443,-0.0006095306306939687
3.0009999999997805,0.047978054037237844,-0.004320702493061595
3.2009999999997585,0.05103145673460385,-0.003807578064616074
3.4009999999997365,0.05567054775167963,-0.00490858086086454
3.6009999999997144,0.05985885263866119,-0.00739851075115703
3.8009999999996924,0.063686261705993,-0.009114513602973924
4.000999999999671,0.06662359791365043,-0.010434471867540507
4.200999999999738,0.07056923166813746,-0.012677684405211912
4.400999999999804,0.07448709958541658,-0.014618279804119188
4.600999999999871,0.07874693408542648,-0.014939718669060334
4.800999999999938,0.08263819143719715,-0.016561856275205997
5.000000000000004,0.08678313604283373,-0.01957471758000366
5.200000000000071,0.0916842813798123,-0.01982790775184618
5.400000000000138,0.09601194926232108,-0.019921230746295576
5.600000000000205,0.09985741897264755,-0.020316064791418467
5.800000000000272,0.1040167486013611,-0.021277372753298156
6.000000000000338,0.10858147623181472,-0.02276735508688108
6.200000000000405,0.11290307147831279,-0.023006294699544214
6.400000000000472,0.11721826804055487,-0.022759482585778087
6.600000000000539,0.12192370792865696,-0.02294832091715528
6.800000000000606,0.12613343261518406,-0.022948037582946137
7.000000000000672,0.1310132522318578,-0.02327518430145842
7.200000000000739,0.13518104631255928,-0.02193486085664666
7.400000000000806,0.13940500785852794,-0.02162697454919477
7.600000000000873,0.14345706886196874,-0.021345428451153902
7.8000000000009395,0.14814663674458234,-0.02254935714563385
8.000000000001005,0.15266195068091637,-0.020738883704664597
8.200000000000895,0.15727746183124416,-0.02099537844981
8.400000000000784,0.16258971477581985,-0.020632628203597483
8.600000000000673,0.16628324233839423,-0.020468517715557025
8.800000000000562,0.17126093729504124,-0.018470549545127588
9.000000000000451,0.1762272850045705,-0.016799743779024948
9.20000000000034,0.18029157202146304,-0.015679434085869876
9.40000000000023,0.1843763138717606,-0.01418695030516457
9.600000000000119,0.18922377689028244,-0.014731009874830102
9.800000000000008,0.19337278832900498,-0.013584237808471355
10.000999999999896,0.19732469844255635,-0.011425749953305054
10.200999999999786,0.202659210536048,-0.010601754494926783
10.400999999999675,0.20664589117549084,-0.009430978776581545
10.600999999999564,0.21210526028754245,-0.00785226524213602
10.800999999999453,0.2168621007973414,-0.005774033491457614
11.000999999999342,0.22155931351910244,-0.0031129967898801043
11.200999999999231,0.22729506126616625,-0.0021077907883309804
11.40099999999912,0.23347073035483198,-0.0005124330457087678
11.60099999999901,0.23903922857698545,0.0022312018678436185
11.800999999998899,0.24451608766232402,0.00459617992489818
12.000999999998788,0.2513850939873699,0.005280477227697355
12.200999999998677,0.2548476443108711,0.008788674890696698
12.400999999998566,0.2598626169466503,0.011144978284442166
12.600999999998455,0.2639312444935645,0.01372118317810324
12.800999999998345,0.26969050288197205,0.015237029729707025
13.000999999998234,0.2734509669092229,0.018703256320123252
13.200999999998123,0.2751599797829483,0.021598543059317094
13.400999999998012,0.2811323981777619,0.02221133395057819
13.600999999997901,0.28556139360588806,0.024846862239111867
13.80099999999779,0.2895781442629842,0.02755289184460296
14.00099999999768,0.294744065841578,0.030023499906389806
14.200999999997569,0.3000195600261783,0.032256686839742164
14.400999999997458,0.30505883663765193,0.03473604940895335
14.600999999997347,0.3087651432075909,0.03849554892401479
14.800999999997236,0.3136826689005514,0.041092037326390184
15.000999999997125,0.31693604233709594,0.0440451088826394
15.200999999997014,0.32131544760930925,0.04665474744506811
15.400999999996904,0.3263740224450218,0.049024905430201035
15.600999999996793,0.3298437325030065,0.05257318307685376
15.800999999996682,0.33301531210332325,0.05601976339823819
16.000999999996573,0.3363231162835992,0.05899640577194105
16.200999999996817,0.34130512645796063,0.061527027472277875
16.40099999999706,0.3446762450018278,0.0648118696172141
16.600999999997306,0.34961489801624396,0.06790631365888619
16.80099999999755,0.35287559810742714,0.07124312139002607
17.000999999997795,0.35614298944720174,0.07550987925383644
17.20099999999804,0.3605154666300759,0.07823002129808478
17.400999999998284,0.36443060829713547,0.08101451107007739
17.60099999999853,0.36606813584482634,0.08482345128200033
17.800999999998773,0.36955737299878766,0.08778466291516719
18.000999999999017,0.37282473536242305,0.09106219956771179
18.20099999999926,0.37609659786192945,0.09481638806216215
18.400999999999506,0.37913932097685715,0.09851226723782303
18.60099999999975,0.38166851734149376,0.10258093114048425
18.799999999999994,0.3833978651247924,0.10686600289818655
19.000000000000238,0.3868352524878178,0.1108571265722604
19.200000000000482,0.3894004922004697,0.1149466163716867
19.400000000000727,0.39084668589647975,0.11978215812017608
19.60000000000097,0.3928876774016144,0.12372270590281871
19.800000000001216,0.3940372729576782,0.1282158308404531
20.00000000000146,0.39546507994750535,0.13340786064635624
