Time (s),X (m),Y (m)
0.001,0.0012161128565605834,0.00026688599193002506
0.20000000000000015,-0.0012152014839487,-0.0010115096685480035
0.4000000000000003,0.0036019886597697007,-0.0029076666422333964
0.6000000000000004,0.011687636705936161,-0.004023492904527966
0.8000000000000006,0.03655321517647529,-0.008488481018610132
1.0000000000000007,0.08058062245266698,-0.02028807673986444
1.2009999999999785,0.125442719788042,-0.03582498403187139
1.4009999999999565,0.1672992834627432,-0.05784972658194582
1.6009999999999345,0.20722821715787418,-0.08030671777935644
1.8009999999999124,0.24262928188356686,-0.10102184636995386
2.0009999999998906,0.27112775958763113,-0.12319689075578827
2.2009999999998686,0.28314133187621787,-0.14756419668566614
2.4009999999998466,0.2804783166199452,-0.17572386301977272
2.6009999999998246,0.26613979013789285,-0.21479659776583815
2.8009999999998025,0.24484574730009345,-0.25666165732130636
3.0009999999997805,0.22028300960718183,-0.29275542965238205
3.2009999999997585,0.19287423253579633,-0.32885068246300675
3.4009999999997365,0.16087591793623338,-0.37806490420847105
3.6009999999997144,0.12763005006585448,-0.42771650497514546
3.8009999999996924,0.09429447135479403,-0.47750137158302125
4.000999999999671,0.05815796729820935,-0.5282108191334328
4.200999999999738,0.013885506522783682,-0.5879471423330809
4.400999999999804,-0.03324667176391135,-0.6482586152844182
4.600999999999871,-0.08468921210015984,-0.7153106200348694
4.800999999999938,-0.13482630960932315,-0.7831986158388132
5.000000000000004,-0.18156569535330255,-0.8456019868259802
5.200000000000071,-0.23189773668407765,-0.8778785205689305
5.400000000000138,-0.2854641564299136,-0.8711650536695761
5.600000000000205,-0.3378370216096532,-0.8414098868587239
5.800000000000272,-0.385815816506732,-0.7965453175340071
6.000000000000338,-0.40951789257045407,-0.752237033907582
6.200000000000405,-0.407495057546939,-0.7085346747157176
6.400000000000472,-0.38945531852748877,-0.6767236912692149
6.600000000000539,-0.3715874935412212,-0.6634102726323076
6.800000000000606,-0.33764492331339285,-0.6725281299406628
7.000000000000672,-0.29219157137372787,-0.693707997304
7.200000000000739,-0.24792847092101597,-0.7241183836208631
7.400000000000806,-0.20018390190657614,-0.7663003493469136
7.600000000000873,-0.16680363298021192,-0.8112680195539194
7.8000000000009395,-0.1550024303261783,-0.8626665641839727
8.000000000001005,-0.17256806617117385,-0.9208481570832289
8.200000000000895,-0.20400414367015604,-0.9729812788286886
8.400000000000784,-0.23294436088055728,-1.00472808876822
8.600000000000673,-0.26249517797745875,-1.0064591832250003
8.800000000000562,-0.30840976639318624,-0.9881999325847803
9.000000000000451,-0.3619580690790583,-0.960290238708943
9.20000000000034,-0.40838283834683636,-0.9338294629094027
9.40000000000023,-0.4463030094116638,-0.9117431091987246
9.600000000000119,-0.49063582680621626,-0.8864470088439917
9.800000000000008,-0.5385581359094204,-0.8596268823647965
10.000999999999896,-0.600184648507522,-0.8265340227800221
10.200999999999786,-0.6619507617313837,-0.7963908515545145
10.400999999999675,-0.7187547415020608,-0.7659442601085299
10.600999999999564,-0.780987636575524,-0.7316950241203486
10.800999999999453,-0.847994003130289,-0.6850320204936209
11.000999999999342,-0.9202915073370299,-0.6267284010242433
11.200999999999231,-0.9965571687337708,-0.5570736689604269
11.40099999999912,-1.0750896999527595,-0.4937130812531085
11.60099999999901,-1.1371324197153039,-0.44006446816159855
11.800999999998899,-1.2081012087594412,-0.3860149507062184
12.000999999998788,-1.2912301671391682,-0.32555002802100647
12.200999999998677,-1.3846368866757326,-0.25912574393313575
12.400999999998566,-1.472886310633499,-0.19373393844616285
12.600999999998455,-1.5673787293397583,-0.12584235556293252
12.800999999998345,-1.6685774595899834,-0.05531926295808219
13.000999999998234,-1.7693048635395654,0.013360371119306635
13.200999999998123,-1.8752669843766951,0.08021246619468134
13.400999999998012,-1.9731352020945856,0.13946072456997854
13.600999999997901,-2.0638162308444525,0.20084576675210927
13.80099999999779,-2.1552121488406195,0.26650724702194234
14.00099999999768,-2.2432654189691736,0.3331219827646908
14.200999999997569,-2.331486893146625,0.402479863230504
14.400999999997458,-2.422270085662412,0.4734646000740625
14.600999999997347,-2.5179824016447947,0.5437301817944339
14.800999999997236,-2.6131635002458693,0.6135331305269908
15.000999999997125,-2.7068470455432037,0.6858643476111933
15.200999999997014,-2.7983669565064875,0.7595307254809023
15.400999999996904,-2.883066414796189,0.830529638562367
15.600999999996793,-2.9742079686162635,0.9055876122305455
15.800999999996682,-3.0693419242063906,0.9807447639358232
16.000999999996573,-3.1665526351721733,1.0514233118288667
16.200999999996817,-3.2483317811557018,1.1214318953357045
16.40099999999706,-3.33524424609461,1.1949875185727745
16.600999999997306,-3.4304965565287215,1.2734940511525883
16.80099999999755,-3.530019875006842,1.3604505695495286
17.000999999997795,-3.6219334437802457,1.4580826797878452
17.20099999999804,-3.6755188902888896,1.5563523557494343
17.400999999998284,-3.677305472345139,1.6435855925322165
17.60099999999853,-3.6485743550344876,1.7199639905514714
17.800999999998773,-3.602948471376242,1.8040868137372479
18.000999999999017,-3.5444478043513166,1.8937399322531518
18.20099999999926,-3.48308735133357,1.9811380896880557
18.400999999999506,-3.4170570086672476,2.07358653211874
18.60099999999975,-3.3490902355342467,2.165482526443348
18.799999999999994,-3.2866212437894413,2.2544825651225917
19.000000000000238,-3.225023355196991,2.3334335475332972
19.200000000000482,-3.16501988766173,2.4181052538311683
19.400000000000727,-3.1044897747330045,2.5087085299496032
19.60000000000097,-3.0443438811151484,2.61261045632902
19.800000000001216,-2.981859489931761,2.734265939140852
20.00000000000146,-2.9142397376098366,2.855834963361327
