Time (s),X (m),Y (m)
0.001,0.0011546366250239817,-0.00043579054991000363
0.20000000000000015,0.0025069916810440958,-0.0008095969457579875
0.4000000000000003,0.01396097874250068,3.078399282029495e-05
0.6000000000000004,0.04266510166328682,-0.004564068739060724
0.8000000000000006,0.0698127501698667,-0.0043158741881135386
1.0000000000000007,0.0976069617552101,0.0036920574420640064
1.2009999999999785,0.1265951579143892,0.004825167340914079
1.4009999999999565,0.1555332698613101,0.005725491335603008
1.6009999999999345,0.1655043425767937,-0.01268430634189869
1.8009999999999124,0.17516285407484644,-0.036764880184374155
2.0009999999998906,0.18163495429974869,-0.061714477848139784
2.2009999999998686,0.17186802394269327,-0.08865708105632225
2.4009999999998466,0.15429999103208006,-0.11035924433438975
2.6009999999998246,0.1202100509794041,-0.12314131176397632
2.8009999999998025,0.07938759620122311,-0.12325519315029478
3.0009999999997805,0.03162414224006722,-0.11096950187705998
3.2009999999997585,-0.017486983763184378,-0.09082301020962821
3.4009999999997365,-0.06714076064535922,-0.06590093617900251
3.6009999999997144,-0.10438893149188191,-0.04137879834989229
3.8009999999996924,-0.12776664241101274,-0.019896918764352154
4.000999999999671,-0.13712365308319557,0.021842059097469002
4.200999999999738,-0.13498404328316388,0.07454388039342529
4.400999999999804,-0.12454069418897848,0.12725424748571734
4.600999999999871,-0.10476249242317157,0.1838009378241195
4.800999999999938,-0.09482139325402171,0.2366460773191481
5.000000000000004,-0.07928846412150785,0.29146529513424474
5.200000000000071,-0.04835332011284626,0.3435619777674944
5.400000000000138,0.0009350222474099658,0.3771880373554853
5.600000000000205,0.05742253622205773,0.38835763422470587
5.800000000000272,0.1129155743144116,0.3870195801091201
6.000000000000338,0.17046942371884066,0.3587276378609223
6.200000000000405,0.20691972937604472,0.2992443914155541
6.400000000000472,0.21460007033826542,0.23015664676459874
6.600000000000539,0.19835052945744489,0.16465646286812802
6.800000000000606,0.15352936494057018,0.11383527704994767
7.000000000000672,0.10521096150800606,0.08284296177003808
7.200000000000739,0.061081000122700756,0.07490297403659044
7.400000000000806,0.016987168264805556,0.08636037249121514
7.600000000000873,-0.015827043948034008,0.12122903213414317
7.8000000000009395,-0.033758251397463426,0.17448669865392438
8.000000000001005,-0.038110653789784385,0.2350734924611959
8.200000000000895,-0.03182928201763762,0.29846057227548123
8.400000000000784,-0.011237482333671563,0.36612163595646396
8.600000000000673,0.0117259242895482,0.4356392980959096
8.800000000000562,0.02472071714845921,0.4929087543157834
9.000000000000451,0.04092346066158502,0.5472232746936943
9.20000000000034,0.0700795211749187,0.6058958773203713
9.40000000000023,0.10799613339105528,0.6589175794960184
9.600000000000119,0.15620301648482565,0.6909551199611347
9.800000000000008,0.20491585367399553,0.7027916189059377
10.000999999999896,0.25613657272719653,0.7034350803254729
10.200999999999786,0.3169132314570727,0.6906065086881725
10.400999999999675,0.37865071252681387,0.6590500572269112
10.600999999999564,0.44098807892192127,0.6368642136955147
10.800999999999453,0.48787465990585943,0.5959522826342448
11.000999999999342,0.5108791561384634,0.5301054144239995
11.200999999999231,0.5193969281828011,0.4740363479242169
11.40099999999912,0.5205824411988013,0.42329495573596926
11.60099999999901,0.508494856635532,0.36871676037574336
11.800999999998899,0.4982094064711073,0.3162628126044957
12.000999999998788,0.4729089560129856,0.27957030701501007
12.200999999998677,0.42863219980394046,0.2638874783974046
12.400999999998566,0.3822501019347546,0.2666976251849027
12.600999999998455,0.332230029265542,0.27500015102057157
12.800999999998345,0.27751438462257616,0.29669920526046856
13.000999999998234,0.24131005777222259,0.3428950605597138
13.200999999998123,0.23294985066786786,0.3964949716215003
13.400999999998012,0.24402147937683444,0.44938737659935285
13.600999999997901,0.27935318785696295,0.5124395357845777
13.80099999999779,0.33972459409296374,0.5719220919608125
14.00099999999768,0.39137903536398433,0.6076199027601775
14.200999999997569,0.4539512143117279,0.6174710472468019
14.400999999997458,0.5210747766166264,0.6144034330898825
14.600999999997347,0.5735593578029153,0.5882440167364564
14.800999999997236,0.5976456573939549,0.5392787168175043
15.000999999997125,0.6006888107417684,0.48333091327320316
15.200999999997014,0.5845866068430267,0.42266039532094307
15.400999999996904,0.5641512613203651,0.35728649678899344
15.600999999996793,0.5180664553681307,0.3063001720643806
15.800999999996682,0.46693834038102827,0.2783757306589774
16.000999999996573,0.42033204289881737,0.26635010601388387
16.200999999996817,0.36473754144726794,0.26968746468928917
16.40099999999706,0.306191620086145,0.28943608590129805
16.600999999997306,0.24199391889410707,0.31882083604838624
16.80099999999755,0.18287163058566897,0.34588831078416454
17.000999999997795,0.13338916914856166,0.3769143192010922
17.20099999999804,0.10624020812371313,0.42432128930521495
17.400999999998284,0.1026902631628172,0.4824592484141353
17.60099999999853,0.11085657961944728,0.5409109337084888
17.800999999998773,0.12325170457094808,0.6018691563453078
18.000999999999017,0.14781197231229426,0.6648688097674742
18.20099999999926,0.17687936465915197,0.7370714851467453
18.400999999999506,0.21318153174808044,0.7997981625878399
18.60099999999975,0.2591476324527731,0.8429075124417571
18.799999999999994,0.3213105685182419,0.8597035634409405
19.000000000000238,0.38292139588461716,0.8660028318473687
19.200000000000482,0.44905382751004413,0.8473859390027496
19.400000000000727,0.5102962943065517,0.8173609378554798
19.60000000000097,0.5480883569609218,0.7728041598072299
19.800000000001216,0.5697803384340294,0.7097154779234561
20.00000000000146,0.5726455496211026,0.6335610860660146
