Time (s),X (m),Y (m)
0.001,0.0011890620069237587,-0.00035268032603768894
0.20000000000000015,-0.0001357063087444721,0.0009195461955374735
0.4000000000000003,0.00619841645464284,-0.003640684397709437
0.6000000000000004,0.005156663310052584,-0.0017070701591768067
0.8000000000000006,0.007323561305038767,0.004449687690501582
1.0000000000000007,0.02215622285956591,0.013252628115572637
1.2009999999999785,0.033794384118299145,0.01746972876259681
1.4009999999999565,0.05420727971172923,0.0201142044345965
1.6009999999999345,0.08363538188726398,0.01757763371937368
1.8009999999999124,0.11422799395450756,0.010792242419904596
2.0009999999998906,0.14541629029111514,0.000807124445090685
2.2009999999998686,0.17671791115758217,-0.01261687028011126
2.4009999999998466,0.21493129146110174,-0.022791218394991604
2.6009999999998246,0.24408166318486174,-0.030195524950259327
2.8009999999998025,0.2782221443704635,-0.053075359941255604
3.0009999999997805,0.3142294663052657,-0.07986253033830672
3.2009999999997585,0.3436650387122669,-0.10328796946963498
3.4009999999997365,0.3659924584260776,-0.12316211124003952
3.6009999999997144,0.3924130464197857,-0.14403433921386802
3.8009999999996924,0.42095908522210146,-0.17761377760718364
4.000999999999671,0.4436502373440727,-0.22027625697635478
4.200999999999738,0.46164532069077063,-0.25562210081150566
4.400999999999804,0.4695453909917541,-0.29151056100054673
4.600999999999871,0.4635647542608739,-0.3307860565078349
4.800999999999938,0.4534798787253516,-0.3701278506956291
5.000000000000004,0.44055207986744943,-0.40716972152172864
5.200000000000071,0.4258449587553433,-0.4477736391860039
5.400000000000138,0.41250522229909703,-0.48839789559216534
5.600000000000205,0.4060522321253504,-0.5225870858758429
5.800000000000272,0.3975944500927293,-0.5617788113003027
6.000000000000338,0.3851946333875672,-0.603662885689116
6.200000000000405,0.3708066948784674,-0.6471837490399948
6.400000000000472,0.345100572223479,-0.69173467122835
6.600000000000539,0.3157713548614937,-0.7272711511287269
6.800000000000606,0.26685474203543663,-0.7450335793193231
7.000000000000672,0.22420918614373045,-0.7550947749597322
7.200000000000739,0.18294852589004346,-0.7523219928049574
7.400000000000806,0.1387262851737682,-0.7334459661646858
7.600000000000873,0.09366052911633606,-0.7107228471220495
7.8000000000009395,0.058560497946593494,-0.6728952011756129
8.000000000001005,0.04430226427759185,-0.6295209077113351
8.200000000000895,0.04756231103276712,-0.586782483278174
8.400000000000784,0.06739541956458588,-0.5384607767041933
8.600000000000673,0.093029881493975,-0.4893113228160686
8.800000000000562,0.11891209885097695,-0.44024168641133943
9.000000000000451,0.1551733987275575,-0.40647860241337824
9.20000000000034,0.1966776528985214,-0.3896454891253357
9.40000000000023,0.23812631475737797,-0.39076073315592985
9.600000000000119,0.27373450769499974,-0.4023822330632434
9.800000000000008,0.3146398451284359,-0.4287303884702382
10.000999999999896,0.3461234392517288,-0.47057580122450926
10.200999999999786,0.3548060303562828,-0.513894696695718
10.400999999999675,0.3492487407664887,-0.5564909760374267
10.600999999999564,0.3319325416833737,-0.6037501275951247
10.800999999999453,0.30746437692913736,-0.647625024095866
11.000999999999342,0.2875652518216395,-0.6890413145990221
11.200999999999231,0.26363745216173884,-0.7312824654944703
11.40099999999912,0.23569131571435195,-0.7725194013852408
11.60099999999901,0.20668738941989778,-0.8041197945522705
11.800999999998899,0.1654878991496905,-0.8224946678793698
12.000999999998788,0.1266978988217172,-0.832589462969701
12.200999999998677,0.08288013146145068,-0.8272190266992467
12.400999999998566,0.04881195111390277,-0.821850219842494
12.600999999998455,0.014104684765997116,-0.8066512251059954
12.800999999998345,-0.030137286897243577,-0.785129153782119
13.000999999998234,-0.08000292604561073,-0.7436295406016983
13.200999999998123,-0.12857229000808532,-0.7084102798947222
13.400999999998012,-0.1610609974022804,-0.6647395038838483
13.600999999997901,-0.16650613022863944,-0.6093459186158188
13.80099999999779,-0.15963545474617263,-0.5725332169788175
14.00099999999768,-0.14333882370671827,-0.5359397358676165
14.200999999997569,-0.11355127117221896,-0.48830570708763865
14.400999999997458,-0.08839027703406105,-0.4330926308096531
14.600999999997347,-0.05885025895233053,-0.3783461779474967
14.800999999997236,-0.02015572508235743,-0.3305644949407497
15.000999999997125,0.008851647334052172,-0.2919828139564507
15.200999999997014,0.034195788518012096,-0.2641252809390764
15.400999999996904,0.06069795341634357,-0.24893936487866836
15.600999999996793,0.09067363370327294,-0.24455813079481253
15.800999999996682,0.1326672308974541,-0.25586251226864054
16.000999999996573,0.18030716176544143,-0.2753685837977208
16.200999999996817,0.23010194650037918,-0.30266149033646905
16.40099999999706,0.2752726380300362,-0.3313006337892562
16.600999999997306,0.3105212235095051,-0.365240156113385
16.80099999999755,0.33176242358207864,-0.4012626803365214
17.000999999997795,0.33412853644476487,-0.4508659229554733
17.20099999999804,0.3246870046124051,-0.5109667614187149
17.400999999998284,0.3053841115995394,-0.5721745770759669
17.60099999999853,0.27360512451904245,-0.6308749553026242
17.800999999998773,0.252877769711935,-0.684397331901558
18.000999999999017,0.23359523391566397,-0.7203397160253318
18.20099999999926,0.19052704176736626,-0.7412640963426494
18.400999999999506,0.14342090815329278,-0.7457465689146991
18.60099999999975,0.108162127497593,-0.7389444794929485
18.799999999999994,0.06394433801111675,-0.7282566454935252
19.000000000000238,0.026983228039961712,-0.7154505338296165
19.200000000000482,-0.015926873989481293,-0.6927856912751577
19.400000000000727,-0.0624821294828685,-0.6640948280351947
19.60000000000097,-0.11481325458750082,-0.6353488290743373
19.800000000001216,-0.16190407239174992,-0.6107346971044553
20.00000000000146,-0.20219743474920263,-0.5723736745354127
