Time (s),X (m),Y (m)
0.001,-0.0006246028371892732,-0.0005914538325516239
0.20000000000000015,0.003105462637802001,0.0009462934994721036
0.4000000000000003,0.003906438026002592,-0.0025847128073835227
0.6000000000000004,0.0049067406390411825,-0.0018195199914827491
0.8000000000000006,0.008615969291624346,0.004674738129600659
1.0000000000000007,0.023473262567401936,0.015307524502364698
1.2009999999999785,0.03661494620574489,0.019660652336699745
1.4009999999999565,0.042013940147300026,0.02728196136345761
1.6009999999999345,0.04895567996514178,0.034965763042934465
1.8009999999999124,0.06379234235820254,0.04436408197209382
2.0009999999998906,0.07512544261014954,0.05806409510948796
2.2009999999998686,0.08718101260824887,0.06390868553432821
2.4009999999998466,0.09959050212237477,0.07232193004959316
2.6009999999998246,0.11783342540960927,0.08048594342815843
2.8009999999998025,0.12981961571673006,0.08189479344608544
3.0009999999997805,0.13929739123906199,0.08607398319232269
3.2009999999997585,0.15279399118732215,0.09390605236913442
3.4009999999997365,0.1696658976869187,0.09937355884980216
3.6009999999997144,0.18252051196710828,0.09791594733523303
3.8009999999996924,0.18761606355315188,0.09301173083155562
4.000999999999671,0.1988777478540443,0.10411881184585316
4.200999999999738,0.21039880445459497,0.11258412797982492
4.400999999999804,0.22043875942183982,0.1210320328723618
4.600999999999871,0.23534990724900687,0.12711986285639415
4.800999999999938,0.25275069529502925,0.1339490269573226
5.000000000000004,0.2718389681514465,0.1464249396604185
5.200000000000071,0.29151305734105143,0.15284781351751223
5.400000000000138,0.30457833665325956,0.16201855886037933
5.600000000000205,0.3203777259716068,0.17712562904057194
5.800000000000272,0.3364196140808355,0.18958150954322334
6.000000000000338,0.34698694487604087,0.1989162659181922
6.200000000000405,0.35504231899521266,0.21184869969032627
6.400000000000472,0.3693625185553215,0.21733908790483464
6.600000000000539,0.38284998836767087,0.23161719061129035
6.800000000000606,0.396094688611685,0.24425189909210934
7.000000000000672,0.41187108096846464,0.26382619263676815
7.200000000000739,0.42489444263291426,0.28583019658888453
7.400000000000806,0.4351005267651546,0.30758142480625095
7.600000000000873,0.44633649955934007,0.32620569256833093
7.8000000000009395,0.45608664281810746,0.3420878776686743
8.000000000001005,0.46366782818565305,0.35339464496702233
8.200000000000895,0.4715407421944104,0.3656221530255196
8.400000000000784,0.4815601721783929,0.37881359750888327
8.600000000000673,0.4964276976395043,0.3877863450813011
8.800000000000562,0.5119770932244375,0.4003941934083458
9.000000000000451,0.5268393694495342,0.41238300412943935
9.20000000000034,0.5436102650728575,0.42802898413112805
9.40000000000023,0.5569210242149014,0.44440546593952485
9.600000000000119,0.5692579833872409,0.44974100657405575
9.800000000000008,0.5759583914948037,0.4612915724207206
10.000999999999896,0.5819067402610975,0.47900286949624243
10.200999999999786,0.5944552668307284,0.48964106287206977
10.400999999999675,0.600608367113198,0.5043740195182664
10.600999999999564,0.608891113434265,0.5162528952650447
10.800999999999453,0.6188628827322897,0.5272765498793466
11.000999999999342,0.6278797984728581,0.5429439964595004
11.200999999999231,0.6368434951330915,0.5618660755182414
11.40099999999912,0.6485828962356597,0.575531085889997
11.60099999999901,0.6574895702979608,0.5945711382488217
11.800999999998899,0.6664610564472804,0.6053030142043279
12.000999999998788,0.6727245392890754,0.6211654824110847
12.200999999998677,0.6805438018846419,0.6349622414691811
12.400999999998566,0.6918097915239257,0.6427725221977951
12.600999999998455,0.699898688538582,0.6689582211375127
12.800999999998345,0.7073807535268396,0.6894187248555967
13.000999999998234,0.7104857976753027,0.7080145703657278
13.200999999998123,0.7154802998610355,0.7227978434248056
13.400999999998012,0.7261437062632137,0.742882118417882
13.600999999997901,0.7365805342975833,0.7579862889785249
13.80099999999779,0.747425834159801,0.7741327837991476
14.00099999999768,0.7535577675595136,0.7878737814378847
14.200999999997569,0.7644464955905313,0.7982100963109444
14.400999999997458,0.7692150442323819,0.8169671937354367
14.600999999997347,0.7707062598366752,0.8470217243195048
14.800999999997236,0.7723826371355352,0.8663245623937397
15.000999999997125,0.772048999233767,0.8816059749957534
15.200999999997014,0.7768128330645748,0.9028733107794785
15.400999999996904,0.7871220519491866,0.9306663155918812
15.600999999996793,0.7969942057529726,0.9476960402821871
15.800999999996682,0.8017312228790575,0.9637650712164427
16.000999999996573,0.7985497373950118,0.9805525781927108
16.200999999996817,0.7969887451981343,0.9919003175192345
16.40099999999706,0.798926448830872,1.0058725729660634
16.600999999997306,0.7977728551710724,1.0262917046964568
16.80099999999755,0.7889681746497554,1.0523306467928826
17.000999999997795,0.7867032140480493,1.074470508422299
17.20099999999804,0.7944180881783356,1.0817056664993356
17.400999999998284,0.7985046367469537,1.0984328335252385
17.60099999999853,0.8069951315055675,1.1149929078510439
17.800999999998773,0.8178075755459049,1.136660729699733
18.000999999999017,0.8184648340740494,1.1551255028226177
18.20099999999926,0.8148249704731726,1.1658393279718968
18.400999999999506,0.8110539709531832,1.1826525406565536
18.60099999999975,0.8099737191436747,1.1974419816138782
18.799999999999994,0.8108254006642936,1.2153162865760805
19.000000000000238,0.813407932786166,1.2373727827874272
19.200000000000482,0.8095341068847494,1.254988730821207
19.400000000000727,0.8090183623861535,1.2754487112040007
19.60000000000097,0.8129624506349595,1.29475773977781
19.800000000001216,0.8156620964918257,1.3047994239571998
20.00000000000146,0.8128037173188996,1.3190924572684617
