Time (s),X (m),Y (m)
0.001,0.00013020853671323254,0.0010272443824616275
0.20000000000000015,0.0019516229881753526,0.004917780141566697
0.4000000000000003,0.0025325394413618953,0.004719543517025666
0.6000000000000004,0.0061785892385847465,0.0033384030865544275
0.8000000000000006,0.007883102644755951,0.006564773086586728
1.0000000000000007,0.013878524160058657,0.0022974106522237704
1.2009999999999785,0.01540111368156334,0.004724158047647221
1.4009999999999565,0.021347604956938732,-0.0016941030054302348
1.6009999999999345,0.024315833778306924,-0.004092738122560918
1.8009999999999124,0.028314827890148365,-0.0030503067707692974
2.0009999999998906,0.03183589472697358,-0.005856917283464604
2.2009999999998686,0.037104238445452235,-0.00872050297930941
2.4009999999998466,0.04347343800509059,-0.008861595672739846
2.6009999999998246,0.046832954566842847,-0.00666959375184533
2.8009999999998025,0.050178825264033236,-0.004763707447472651
3.0009999999997805,0.05324615882290101,-0.003390630410713727
3.2009999999997585,0.05886501721756424,-0.0035587895096690883
3.4009999999997365,0.06253299955139953,0.00027311778750203225
3.6009999999997144,0.07151518920282533,-0.0024086640524723507
3.8009999999996924,0.07498594463995367,0.00185182225115792
4.000999999999671,0.07951949411838771,0.003449455680294745
4.200999999999738,0.08550243090879549,0.002144995773831904
4.400999999999804,0.08924771908357557,0.005089314701823958
4.600999999999871,0.09654507105503196,0.004153505383884557
4.800999999999938,0.10199219359536832,0.00793233665701268
5.000000000000004,0.10715215208186056,0.010662755234132088
5.200000000000071,0.11298118986396735,0.00935808743797203
5.400000000000138,0.11801910680505892,0.010120864481145537
5.600000000000205,0.12330373128095459,0.010106561476324782
5.800000000000272,0.12777824659049422,0.01067740078826348
6.000000000000338,0.13417258559453682,0.010286085014641694
6.200000000000405,0.1413582591037066,0.009200665044604876
6.400000000000472,0.14377695038984664,0.013652968516589722
6.600000000000539,0.15177641063960226,0.012616982629819773
6.800000000000606,0.15811606159579555,0.014442764998947035
7.000000000000672,0.1653034531011762,0.01569272151148823
7.200000000000739,0.17347470217613004,0.015103628687374056
7.400000000000806,0.17943488179129752,0.016381146130994693
7.600000000000873,0.18765574625263848,0.016031025274927488
7.8000000000009395,0.19778501599350826,0.016331217245780075
8.000000000001005,0.20339225558037688,0.019847387333986628
8.200000000000895,0.20934845948577305,0.023621765075403443
8.400000000000784,0.2158410945063206,0.026425444814055125
8.600000000000673,0.22122806413211674,0.029115701824057982
8.800000000000562,0.2270306436015145,0.033918375410238816
9.000000000000451,0.23334225383530796,0.03555062323054087
9.20000000000034,0.23709624777391972,0.039236043290392965
9.40000000000023,0.2439084517434969,0.04035072526921057
9.600000000000119,0.24671816444348144,0.0452851399315929
9.800000000000008,0.255712483431243,0.04809593754421223
10.000999999999896,0.26114666846288587,0.049203915226274486
10.200999999999786,0.267820234001984,0.052321519026412855
10.400999999999675,0.27437500798549047,0.05703315648253791
10.600999999999564,0.28068403037342016,0.061717256654562395
10.800999999999453,0.2829056999925345,0.06622882197913102
11.000999999999342,0.28766563775126225,0.06793020099884665
11.200999999999231,0.29304410705513495,0.07209995746273824
11.40099999999912,0.30009307718973227,0.07535790387744727
11.60099999999901,0.30279834050141985,0.08094349302805846
11.800999999998899,0.3104431682331723,0.0837832424357776
12.000999999998788,0.3148439647832779,0.09030208724274925
12.200999999998677,0.32004170450345604,0.09655339841688772
12.400999999998566,0.32516318706119857,0.1005590987272835
12.600999999998455,0.33112081656016845,0.1049000112658635
12.800999999998345,0.3332777811624134,0.11008132343011669
13.000999999998234,0.339674259356959,0.11487366025680325
13.200999999998123,0.34329445300536465,0.11983281097083294
13.400999999998012,0.3499041508209186,0.12279999483177485
13.600999999997901,0.35385749754351775,0.12875054275466638
13.80099999999779,0.35664340944374107,0.13444802204527076
14.00099999999768,0.3578725261326693,0.1417517605396934
14.200999999997569,0.36233544036214205,0.14761759494517304
14.400999999997458,0.3644922150882896,0.15433465095131954
14.600999999997347,0.36877498129579944,0.1609093686417799
14.800999999997236,0.3738022178665047,0.1666051874295063
15.000999999997125,0.3738423081380952,0.17187747801900466
15.200999999997014,0.37900080880119874,0.17705590674692534
15.400999999996904,0.3816402389848547,0.18293267366899535
15.600999999996793,0.3850851777963664,0.18958615959260833
15.800999999996682,0.3876106522469469,0.19570682546034676
16.000999999996573,0.39111773354891743,0.20269991720139388
16.200999999996817,0.39529373008407975,0.20856148721696796
16.40099999999706,0.39431989307428544,0.21558988197143925
16.600999999997306,0.3983447642863965,0.22203469761049546
16.80099999999755,0.40259779666366907,0.2283776288289475
17.000999999997795,0.4035570092711485,0.23455948887273717
17.20099999999804,0.4016656450840193,0.24271510857634804
17.400999999998284,0.4053032236852073,0.2490824692821803
17.60099999999853,0.4069330858410754,0.2555335288140874
17.800999999998773,0.4054684436613904,0.25972375787352503
18.000999999999017,0.4064810774181335,0.26589590542044056
18.20099999999926,0.4021664577294002,0.2716655135273649
18.400999999999506,0.4036347894966191,0.27909168553055447
18.60099999999975,0.40170838495440436,0.28501482816298496
18.799999999999994,0.4037946702120422,0.29148879090575774
19.000000000000238,0.4059452656676913,0.2970068362628202
19.200000000000482,0.40608655116364634,0.30382709969015564
19.400000000000727,0.4069559657864719,0.31029879392834003
19.60000000000097,0.4064044427588555,0.3150842600260164
19.800000000001216,0.40267541106992094,0.319491897268117
20.00000000000146,0.40461756664214715,0.3254876216430869
