Time (s),X (m),Y (m)
0.001,0.00048696676677933824,-0.0009960320817112695
0.20000000000000015,0.0012125073946021012,-0.001916689566691683
0.4000000000000003,0.008769623553258428,-0.0006316468075432697
0.6000000000000004,0.02093571178832168,-0.004303595880170992
0.8000000000000006,0.04090035260646647,-0.013324787443566433
1.0000000000000007,0.05135032383334778,-0.04720414778966544
1.2009999999999785,0.059726262924966696,-0.08854746162348778
1.4009999999999565,0.035920926873085665,-0.13573272649892515
1.6009999999999345,-0.006889167062910454,-0.1895355261442754
1.8009999999999124,-0.046045266281199544,-0.2501826111520531
2.0009999999998906,-0.09462923252551818,-0.3050235514465583
2.2009999999998686,-0.1487675536298394,-0.34158488192675557
2.4009999999998466,-0.2145845415775257,-0.346444243889739
2.6009999999998246,-0.28098213615430273,-0.326764258089118
2.8009999999998025,-0.3389409471935701,-0.30108258962920326
3.0009999999997805,-0.3716423824692052,-0.2681809665319307
3.2009999999997585,-0.3724937378110606,-0.22518056582529464
3.4009999999997365,-0.35276925963656414,-0.1679455681183441
3.6009999999997144,-0.3225184681079488,-0.09837840808905565
3.8009999999996924,-0.27801450737703015,-0.030190446857014497
4.000999999999671,-0.2295274270321361,0.03202178652447315
4.200999999999738,-0.174195023253204,0.08213373179719859
4.400999999999804,-0.11575222260713669,0.1208484687867362
4.600999999999871,-0.05102833430895532,0.1402236372466433
4.800999999999938,0.01734754658861773,0.1576720966438572
5.000000000000004,0.08565559049753205,0.20612133643227015
5.200000000000071,0.15665896347726013,0.23087273679835618
5.400000000000138,0.23198805934635489,0.2206366683700964
5.600000000000205,0.3090776026395372,0.175776132504933
5.800000000000272,0.3812228676683709,0.12067090224483759
6.000000000000338,0.45062923102540153,0.07043146081776051
6.200000000000405,0.5153905888754547,0.017699614317802707
6.400000000000472,0.5757153654428073,-0.03308807641678693
6.600000000000539,0.6190306343151158,-0.09071772798364547
6.800000000000606,0.6400774086766783,-0.15863668746635995
7.000000000000672,0.6608300442081435,-0.22947949110599145
7.200000000000739,0.6601621666154885,-0.301804363549899
7.400000000000806,0.6386283731216833,-0.3695005633430498
7.600000000000873,0.6051737889506914,-0.4394253314621307
7.8000000000009395,0.5653570100036738,-0.5040940493344647
8.000000000001005,0.5114110497688673,-0.5570840628323679
8.200000000000895,0.453719602456106,-0.5588250381659333
8.400000000000784,0.40881906441017574,-0.5296308385201985
8.600000000000673,0.3889851044873251,-0.48123465355351386
8.800000000000562,0.38611944274287385,-0.4222527350785618
9.000000000000451,0.41082885356664356,-0.36373101746315256
9.20000000000034,0.4553936716309372,-0.3200618902734014
9.40000000000023,0.5083719771665146,-0.28152941351006067
9.600000000000119,0.5689330200767817,-0.2529147041884884
9.800000000000008,0.6333551957243843,-0.23929573421430733
10.000999999999896,0.7038993107616595,-0.23443410614496482
10.200999999999786,0.778200229802863,-0.25258419880518507
10.400999999999675,0.8530453678718196,-0.28207020606806765
10.600999999999564,0.8992425417627208,-0.32335535323774084
10.800999999999453,0.8980470754617654,-0.37320881510285664
11.000999999999342,0.8681428395399594,-0.42852368749613884
11.200999999999231,0.8273605701985695,-0.4867066822589616
11.40099999999912,0.7801294210594165,-0.5445487385758913
11.60099999999901,0.7257041850376817,-0.5993655652281972
11.800999999998899,0.666053785602817,-0.6239455494465542
12.000999999998788,0.6018857898095512,-0.6135686884830761
12.200999999998677,0.5454906173781405,-0.5812780675928236
12.400999999998566,0.5072916983017006,-0.5389164014127285
12.600999999998455,0.4964840514316043,-0.48873689838589296
12.800999999998345,0.4997978806336556,-0.42435657047928177
13.000999999998234,0.5165793477954191,-0.36203256679409446
13.200999999998123,0.5567439855039372,-0.3081207166465609
13.400999999998012,0.6033743097850713,-0.24071579948938382
13.600999999997901,0.6549607571002085,-0.18844527417654544
13.80099999999779,0.716215567068906,-0.177510052062255
14.00099999999768,0.7782118067391284,-0.19639583829477622
14.200999999997569,0.831549541074247,-0.22416358314407378
14.400999999997458,0.8507490602587793,-0.2633066652889811
14.600999999997347,0.8454179813181683,-0.315176995109529
14.800999999997236,0.8185758087515654,-0.369048899311727
15.000999999997125,0.7842928358720913,-0.4297412990149632
15.200999999997014,0.7435601219619363,-0.4906092111122881
15.400999999996904,0.6964971969486154,-0.547077470984928
15.600999999996793,0.6431915683149297,-0.6019031352841407
15.800999999996682,0.5832423355220816,-0.6190034346244285
16.000999999996573,0.5187392587148162,-0.6115181733640571
16.200999999996817,0.46589044380942457,-0.5770527655307213
16.40099999999706,0.4270157318308936,-0.5282379660810756
16.600999999997306,0.3857734960826203,-0.4711790429999149
16.80099999999755,0.3745188579760083,-0.41125238032966516
17.000999999997795,0.40095942800369005,-0.35249448771197317
17.20099999999804,0.4342782193896063,-0.28668689939817754
17.400999999998284,0.47397090967508476,-0.21401332813909338
17.60099999999853,0.5233300338127032,-0.14906480048918905
17.800999999998773,0.5673227637486482,-0.0762033259887843
18.000999999999017,0.6177345875744278,-0.027913577474241585
18.20099999999926,0.6752148963153363,-0.02489057425148715
18.400999999999506,0.7381486818899893,-0.046797345575832656
18.60099999999975,0.8073251036356586,-0.08192474689775527
18.799999999999994,0.8692549366271279,-0.12656979561127896
19.000000000000238,0.908605809451677,-0.17401763844800788
19.200000000000482,0.9283166283738951,-0.2322961537365494
19.400000000000727,0.9191692847376842,-0.29307194996028674
19.60000000000097,0.8745297789501839,-0.35854059603086086
19.800000000001216,0.81674986307764,-0.42691892574520873
20.00000000000146,0.7699654878572233,-0.4976792275534436
