Time (s),X (m),Y (m)
0.001,0.0001302085367132322,-0.0010272443824616275
0.20000000000000015,0.00282982998824217,0.0030343575320335315
0.4000000000000003,0.01092856487482501,0.0013936897512959855
0.6000000000000004,0.025412677607347497,-0.00516340683529389
0.8000000000000006,0.05675661790650327,-0.008570637559142797
1.0000000000000007,0.09571622958975241,-0.008515269239387658
1.2009999999999785,0.14249495855267114,-0.013658271627518828
1.4009999999999565,0.2023915298140262,-0.011198571234279607
1.6009999999999345,0.24713691782265043,-0.02096414064954041
1.8009999999999124,0.2751873885035485,-0.0414500001561874
2.0009999999998906,0.2850374192459535,-0.07075110644733067
2.2009999999998686,0.27987843587904554,-0.10804677660646325
2.4009999999998466,0.26594879965956103,-0.14562060225987541
2.6009999999998246,0.24224867249748,-0.1820647130843771
2.8009999999998025,0.20968718165020322,-0.20426374959842158
3.0009999999997805,0.17109793020762062,-0.2097191787610335
3.2009999999997585,0.12689251730063522,-0.20974584635538765
3.4009999999997365,0.08199701289137185,-0.2040526607472823
3.6009999999997144,0.029928819295538294,-0.19914158709663224
3.8009999999996924,-0.012286614085047986,-0.18189008607603457
4.000999999999671,-0.06411995829266028,-0.16288454007038128
4.200999999999738,-0.11691928740009119,-0.1373083126363977
4.400999999999804,-0.14213531953884567,-0.1004139074292743
4.600999999999871,-0.15474316727906975,-0.05927545219449052
4.800999999999938,-0.16290063567834343,-0.010558344102698153
5.000000000000004,-0.16898005663262056,0.04425589154225646
5.200000000000071,-0.17912107953705533,0.11350542710426781
5.400000000000138,-0.18447108770547452,0.18469512578692432
5.600000000000205,-0.19174425827403468,0.2551998489353198
5.800000000000272,-0.20264663198388397,0.340764484916218
6.000000000000338,-0.20180145381678366,0.4219813852384038
6.200000000000405,-0.1928565243249871,0.49815860720636296
6.400000000000472,-0.17045907075558203,0.5585941903628641
6.600000000000539,-0.1435542251612209,0.595558923942298
6.800000000000606,-0.10041462146162641,0.6100578304197319
7.000000000000672,-0.047341513453104306,0.6275251067427484
7.200000000000739,0.013575051435086033,0.6354222657497555
7.400000000000806,0.07892938331861829,0.636822943146069
7.600000000000873,0.14397604890753465,0.6254321576261958
7.8000000000009395,0.21055736606477488,0.6200218665087786
8.000000000001005,0.28455927786969276,0.6155309418717756
8.200000000000895,0.34235411557538037,0.6051690836066657
8.400000000000784,0.38030577324647397,0.5878166057785102
8.600000000000673,0.3937159429143657,0.5536663985300202
8.800000000000562,0.3987983108509515,0.49896506273316293
9.000000000000451,0.3892507044558328,0.43284348703851416
9.20000000000034,0.3646555741845654,0.37459415051968076
9.40000000000023,0.33703982731609194,0.32684892290006534
9.600000000000119,0.3047438694943783,0.29282625051558864
9.800000000000008,0.263298741271389,0.25629806354823376
10.000999999999896,0.20998443087686383,0.22432631021885496
10.200999999999786,0.15359618164558425,0.20887931035109095
10.400999999999675,0.09242594316302384,0.19918404361759573
10.600999999999564,0.04153369175407782,0.21345726559549713
10.800999999999453,-0.013891068631802818,0.2333562376516607
11.000999999999342,-0.07381951029664544,0.25270925245612746
11.200999999999231,-0.14252036315314787,0.2824189188994085
11.40099999999912,-0.18319966929860576,0.32635241823725786
11.60099999999901,-0.19895836419097038,0.37256149535637745
11.800999999998899,-0.19790637868136066,0.4111806688267579
12.000999999998788,-0.18010970789840527,0.4349150137754074
12.200999999998677,-0.1460699496720405,0.43221762597289204
12.400999999998566,-0.10106739800702422,0.42961230570448433
12.600999999998455,-0.05015838351974315,0.4173716027189609
12.800999999998345,-0.005652627055271715,0.3997716284076774
13.000999999998234,0.03631489642520349,0.370872087448746
13.200999999998123,0.07765981354346634,0.33240643315994833
13.400999999998012,0.09414397133829017,0.28194947823669314
13.600999999997901,0.09229040006972832,0.22694307559211607
13.80099999999779,0.07282442350221521,0.1772081426984837
14.00099999999768,0.041680254701335115,0.13177535120866576
14.200999999997569,0.004227114916911943,0.12032007785655875
14.400999999997458,-0.03978796560336589,0.13264298890795492
14.600999999997347,-0.0918951914872593,0.14041012555086618
14.800999999997236,-0.1441953159596658,0.1455720082082623
15.000999999997125,-0.19726909301210407,0.15580548563192703
15.200999999997014,-0.25879176134043336,0.15472329395069598
15.400999999996904,-0.3258176813116752,0.13791796616401025
15.600999999996793,-0.4004282557447134,0.12275429399308875
15.800999999996682,-0.46626807086287353,0.1240908788990052
16.000999999996573,-0.5362598632968166,0.13645783362839425
16.200999999996817,-0.5932297181474102,0.16708414216235437
16.40099999999706,-0.6369079057583206,0.2083162484449128
16.600999999997306,-0.6902504908455563,0.2572916619868145
16.80099999999755,-0.7275340038274352,0.31320201204478487
17.000999999997795,-0.7715331750820035,0.3762080061590266
17.20099999999804,-0.8204600514786375,0.44689421965915904
17.400999999998284,-0.8422234725151039,0.5173535619483582
17.60099999999853,-0.8289932410576545,0.5793041509792399
17.800999999998773,-0.8016453014458959,0.6342736068943997
18.000999999999017,-0.7687173236212895,0.6864315279643936
18.20099999999926,-0.7357001964095133,0.7424164361189193
18.400999999999506,-0.7046637189204495,0.7999455016341718
18.60099999999975,-0.6673167214951244,0.8544881818835312
18.799999999999994,-0.6375343403504585,0.9089965189623755
19.000000000000238,-0.6121880258601128,0.9684822417945625
19.200000000000482,-0.5857649852825294,1.0231697900963561
19.400000000000727,-0.5500960271348633,1.080743179522037
19.60000000000097,-0.5138274544312865,1.1456824658977836
19.800000000001216,-0.47620680818863775,1.2061883960544033
20.00000000000146,-0.43594810592528704,1.2581165602999558
