Time (s),X (m),Y (m)
0.001,0.0007356649194092869,0.0008930179339548111
0.20000000000000015,0.0003597473451172372,-0.0022823532499798987
0.4000000000000003,0.0008265547521387159,-0.004065100960858391
0.6000000000000004,0.005980829982808485,-0.01045489712141945
0.8000000000000006,0.018182409533672637,-0.0008705414554592457
1.0000000000000007,0.02842688993044384,0.002620778847243562
1.2009999999999785,0.036119688062308704,0.013300400336101083
1.4009999999999565,0.04332805242135871,0.016730802700015233
1.6009999999999345,0.05086416568424569,0.02274852607996489
1.8009999999999124,0.06477871193560203,0.022260287884718157
2.0009999999998906,0.07799109708902366,0.02030679741709781
2.2009999999998686,0.09024299651627699,0.017376698350881792
2.4009999999998466,0.10357771439509247,0.0188768112456647
2.6009999999998246,0.11951625842253931,0.025753479749898795
2.8009999999998025,0.134678997331989,0.031495240735146625
3.0009999999997805,0.1497430316012234,0.03993087859076736
3.2009999999997585,0.16254601669254043,0.04540182286474843
3.4009999999997365,0.17367854051323597,0.053047915233220354
3.6009999999997144,0.190518687327989,0.06443040368844156
3.8009999999996924,0.20631798734285686,0.07246365371380797
4.000999999999671,0.21845474052858244,0.07548539705273355
4.200999999999738,0.2355985976633425,0.07865439154197584
4.400999999999804,0.25700130561008006,0.08887038368177268
4.600999999999871,0.2790203122743381,0.09733111997234996
4.800999999999938,0.2995240630249512,0.0923444136950316
5.000000000000004,0.3193555185214659,0.10058891013896008
5.200000000000071,0.337559597681514,0.11039003500444376
5.400000000000138,0.3573193219237579,0.12729499100131508
5.600000000000205,0.3751290030484444,0.14701707636858333
5.800000000000272,0.3922011381201006,0.16216904899625376
6.000000000000338,0.4091521841827582,0.1722024425052177
6.200000000000405,0.4251195246625203,0.1878969720207424
6.400000000000472,0.4452263759955674,0.19466323196242463
6.600000000000539,0.461619081529717,0.20752785688766953
6.800000000000606,0.4776205511980938,0.20752862134161207
7.000000000000672,0.494512790196384,0.20804454659107607
7.200000000000739,0.5100712480768715,0.22192409015145537
7.400000000000806,0.5314632173741414,0.22216541161004644
7.600000000000873,0.5480309974400626,0.23577535538819727
7.8000000000009395,0.5597422274113818,0.25781947390152804
8.000000000001005,0.5732007985677299,0.2721754800834795
8.200000000000895,0.5878587201127188,0.2835994949553528
8.400000000000784,0.6025199733911627,0.2983658306475391
8.600000000000673,0.6163508265486589,0.3219123180508663
8.800000000000562,0.6292218153060194,0.33969937509647113
9.000000000000451,0.6485133748087132,0.34787613411051493
9.20000000000034,0.6645488182205779,0.3461054198709879
9.40000000000023,0.6805219046420247,0.35879363665173347
9.600000000000119,0.6954140762876567,0.363181322390063
9.800000000000008,0.7131692963525879,0.3658243444421654
10.000999999999896,0.726432451885976,0.37154819208780354
10.200999999999786,0.7425974338016081,0.38086222188160035
10.400999999999675,0.7553783819143898,0.3913980424557253
10.600999999999564,0.7667053262070475,0.40720830974548694
10.800999999999453,0.7845981888368175,0.4317780597669371
11.000999999999342,0.8006905908246937,0.4450943028012456
11.200999999999231,0.8123607342304965,0.4655796036486702
11.40099999999912,0.8210944626424609,0.48692789036113293
11.60099999999901,0.8391291819308184,0.49585219570504624
11.800999999998899,0.8534676791351147,0.5116065519766272
12.000999999998788,0.8638703448714705,0.5280643864005555
12.200999999998677,0.8785916283956398,0.5411780996647858
12.400999999998566,0.8922649274261995,0.558870576932178
12.600999999998455,0.903441412997282,0.5699114090810175
12.800999999998345,0.9126937126622933,0.5839917368554672
13.000999999998234,0.9172885037936915,0.5983591154908297
13.200999999998123,0.9166686916520819,0.6177047862447737
13.400999999998012,0.9194696862253691,0.6404253009965014
13.600999999997901,0.9164426211868094,0.6643449703322942
13.80099999999779,0.9200815596108628,0.6834874469889636
14.00099999999768,0.9265233573307852,0.7062668162870972
14.200999999997569,0.9351689819118568,0.7272283126383038
14.400999999997458,0.9328263771703803,0.749589410596214
14.600999999997347,0.9218262455903561,0.7770262762255354
14.800999999997236,0.911145353751671,0.8045682976820128
15.000999999997125,0.9056559274747682,0.8308580880945129
15.200999999997014,0.899965802214341,0.8500461324900497
15.400999999996904,0.8907312137312531,0.8735450714329016
15.600999999996793,0.8823350316735035,0.9005109109766883
15.800999999996682,0.8659214302179807,0.9228773536200966
16.000999999996573,0.8622796168871184,0.9413082699556437
16.200999999996817,0.8531920808891882,0.9614297801868446
16.40099999999706,0.8480482628184217,0.9857908310753204
16.600999999997306,0.8485449307267622,1.0111745469498263
16.80099999999755,0.8395746514980382,1.037806711564468
17.000999999997795,0.8221656790905286,1.0624581524488887
17.20099999999804,0.8075600264621444,1.0791572093320516
17.400999999998284,0.7967267611882107,1.0988985403128788
17.60099999999853,0.7893784078566518,1.1208275154371823
17.800999999998773,0.7781563593022138,1.138197878439104
18.000999999999017,0.7669599231939981,1.158382164888589
18.20099999999926,0.7536447802362282,1.174780150184296
18.400999999999506,0.7387471798158922,1.1945019034753315
18.60099999999975,0.7257093379147861,1.2091895821747367
18.799999999999994,0.7136738840683824,1.2251442664115908
19.000000000000238,0.7066550990602839,1.242858274604185
19.200000000000482,0.6974844323607233,1.2568719888617794
19.400000000000727,0.675674066588211,1.2702617596092893
19.60000000000097,0.6575430452806683,1.281789432566008
19.800000000001216,0.6443945723700889,1.2932475292758165
20.00000000000146,0.6290121689869185,1.3047458614618679
