Time (s),X (m),Y (m)
0.001,-0.0007759513068619564,-0.00026688599193002436
0.20000000000000015,0.005326190313060991,0.0007921178695535548
0.4000000000000003,0.007752409351812467,-0.001524904748312137
0.6000000000000004,0.008286178561600445,-0.0005112177158444925
0.8000000000000006,0.01891731250657023,0.0012879448594398388
1.0000000000000007,0.02788180262739485,0.0021956596907808925
1.2009999999999785,0.038293039031244654,0.006758628182243529
1.4009999999999565,0.055340110852252294,0.012328971699358551
1.6009999999999345,0.06906974652752222,0.013874086635745474
1.8009999999999124,0.07523797985790134,0.016745938764728185
2.0009999999998906,0.07973433242811638,0.01734618315970359
2.2009999999998686,0.08508978065144629,0.024270957785120853
2.4009999999998466,0.09704555719946133,0.029216856983610318
2.6009999999998246,0.11140024302360714,0.037156642308837806
2.8009999999998025,0.12742300913466384,0.04328884240825385
3.0009999999997805,0.1378938475142768,0.04385353862861631
3.2009999999997585,0.15773965428076092,0.05195230250714971
3.4009999999997365,0.1800346910039133,0.05884759716392591
3.6009999999997144,0.1949481509028838,0.05763440729027759
3.8009999999996924,0.20684355702272986,0.05647444144830032
4.000999999999671,0.2148049086491453,0.057981483777576504
4.200999999999738,0.23859584633785996,0.056926396197118236
4.400999999999804,0.25618583789639554,0.05265551493194984
4.600999999999871,0.267818921760488,0.044297469261293736
4.800999999999938,0.2819980193020822,0.03905236025130692
5.000000000000004,0.29020907379564936,0.03997870196689871
5.200000000000071,0.30360824430077726,0.0432304269081618
5.400000000000138,0.3149727874317952,0.04182936265554091
5.600000000000205,0.3290047007957204,0.03591744103961563
5.800000000000272,0.3499370192241008,0.030240315264302542
6.000000000000338,0.3714820600827012,0.01896382311985551
6.200000000000405,0.38084303770573097,0.007497372724457698
6.400000000000472,0.39323759323938834,0.0005204049187181179
6.600000000000539,0.4140441690831525,-0.010805869806585716
6.800000000000606,0.4203151153095325,-0.02104451695579697
7.000000000000672,0.4389542411898592,-0.035816014526727454
7.200000000000739,0.45398732125346947,-0.048980702126736796
7.400000000000806,0.47112294502870644,-0.061068997438369
7.600000000000873,0.49274353596486353,-0.06695046225723555
7.8000000000009395,0.5112438856473889,-0.07511506147061556
8.000000000001005,0.5274491706430436,-0.08543806297944267
8.200000000000895,0.5419962989929153,-0.09359826657085984
8.400000000000784,0.5652717358377555,-0.10391256802115682
8.600000000000673,0.5863447278346712,-0.11591603613613645
8.800000000000562,0.6107162448423656,-0.12751445500343922
9.000000000000451,0.6248181966978429,-0.13713675834827954
9.20000000000034,0.6419746571278867,-0.14176234742157098
9.40000000000023,0.6591317865788563,-0.15109413286108317
9.600000000000119,0.6746204434605144,-0.156910063117004
9.800000000000008,0.6922087875392758,-0.16144721256069355
10.000999999999896,0.7065304790659516,-0.1701299341130431
10.200999999999786,0.7120142942681492,-0.1758831074142432
10.400999999999675,0.7291883830393009,-0.18114093720435542
10.600999999999564,0.7455243207087605,-0.18871664485412576
10.800999999999453,0.7630373165956641,-0.19434877829199235
11.000999999999342,0.7931987330637896,-0.20787667223470374
11.200999999999231,0.816918417345069,-0.2199184931830813
11.40099999999912,0.8470988829193021,-0.23535640155355003
11.60099999999901,0.8555382569195303,-0.24901465993270236
11.800999999998899,0.8737147627229805,-0.26611503256180996
12.000999999998788,0.8869442839611825,-0.27821736709704803
12.200999999998677,0.8977237701020881,-0.28936451766519306
12.400999999998566,0.912348296300218,-0.30044020848683317
12.600999999998455,0.93305475013083,-0.3102462769364842
12.800999999998345,0.9546940006715996,-0.31790281434900947
13.000999999998234,0.9760862956475889,-0.3234088122082673
13.200999999998123,0.9988601926859431,-0.3321757346408468
13.400999999998012,1.0224598751413525,-0.34045013927907464
13.600999999997901,1.044031562269715,-0.3532975986155445
13.80099999999779,1.0617652058158669,-0.36370301929356696
14.00099999999768,1.0813650358246973,-0.3724694138323473
14.200999999997569,1.0990694706024833,-0.3900796431077291
14.400999999997458,1.1249219474771124,-0.4084545834542552
14.600999999997347,1.1471834874403113,-0.41970178168156286
14.800999999997236,1.1612988829741913,-0.4308824854869702
15.000999999997125,1.1755281030014637,-0.4454932827026091
15.200999999997014,1.193870949224525,-0.46090298583028766
15.400999999996904,1.2165544201802831,-0.4707991863251846
15.600999999996793,1.2417032002386281,-0.48992915656315567
15.800999999996682,1.2580692946740153,-0.4987090623336601
16.000999999996573,1.2762081984812232,-0.5083172313496115
16.200999999996817,1.3021809583526986,-0.5292697316052161
16.40099999999706,1.3285415396997848,-0.5492513871980209
16.600999999997306,1.3489710335674439,-0.5653633079338216
16.80099999999755,1.3582819864025055,-0.571753707351499
17.000999999997795,1.3773484991456497,-0.5826196925233351
17.20099999999804,1.3952229091906287,-0.595687479735058
17.400999999998284,1.4109348495624396,-0.6143944982152882
17.60099999999853,1.4377536724702886,-0.6327978561850996
17.800999999998773,1.4648120231545378,-0.6466009618388893
18.000999999999017,1.5000160447456634,-0.6660183804901356
18.20099999999926,1.5120744476770898,-0.6799565602141107
18.400999999999506,1.5261638796322297,-0.6887942202379158
18.60099999999975,1.5522691892138418,-0.7011493092043302
18.799999999999994,1.5697861146709349,-0.7201912967804782
19.000000000000238,1.591272368367224,-0.7421113455732522
19.200000000000482,1.6156932553905239,-0.7578389368190153
19.400000000000727,1.6525778926516095,-0.7741292496268959
19.60000000000097,1.6843579154022195,-0.7880015702435005
19.800000000001216,1.710470645588157,-0.7979513450222806
20.00000000000146,1.7306008377422168,-0.8107301821510979
