Time (s),X (m),Y (m)
0.001,4.1020280575708355e-05,-0.0010155025257856578
0.20000000000000015,0.0032241524224583353,0.007651926704632165
0.4000000000000003,0.016847295728782744,0.012796472358250944
0.6000000000000004,0.03975438140200768,0.012770326742571196
0.8000000000000006,0.06617149477724324,0.005722775849773246
1.0000000000000007,0.10367705453978869,0.008754064635729827
1.2009999999999785,0.1368414834631994,0.017508098835016302
1.4009999999999565,0.1647295414856097,0.009326205652845851
1.6009999999999345,0.20212485179068937,0.006009055004121914
1.8009999999999124,0.250687539757913,0.012432442894669271
2.0009999999998906,0.30795665556782553,0.028032829305387114
2.2009999999998686,0.3589359403043702,0.030378181402581493
2.4009999999998466,0.38722400617098895,0.011903318968604483
2.6009999999998246,0.41210480929910387,-0.014619100622391355
2.8009999999998025,0.4377069246812309,-0.047226963826591556
3.0009999999997805,0.481975656265036,-0.07575158650593211
3.2009999999997585,0.5279863877874439,-0.09855902049612296
3.4009999999997365,0.5454902260554843,-0.12575740784461947
3.6009999999997144,0.5520282738580667,-0.16382657158760383
3.8009999999996924,0.5445376411549173,-0.205537328572516
4.000999999999671,0.5361398006174681,-0.26306307647404
4.200999999999738,0.5355479221831383,-0.3347123519852543
4.400999999999804,0.5224442391733943,-0.39569316881128014
4.600999999999871,0.49207642596676016,-0.43381500922429245
4.800999999999938,0.4527447300991556,-0.44801000471048713
5.000000000000004,0.4014319586701506,-0.4476997826202947
5.200000000000071,0.3445307036375358,-0.4422258648092181
5.400000000000138,0.2964203661960599,-0.4262654166953769
5.600000000000205,0.2555899219342477,-0.39538741771925795
5.800000000000272,0.24430930844033089,-0.358717971749291
6.000000000000338,0.2417557017218957,-0.3093545869993989
6.200000000000405,0.2500324454090674,-0.25670440263760674
6.400000000000472,0.28009048921097696,-0.2042007061223355
6.600000000000539,0.31332934879915114,-0.13932732348230223
6.800000000000606,0.3463568235584563,-0.08383585089163567
7.000000000000672,0.38547641857445775,-0.04136115237401921
7.200000000000739,0.4340910224504075,-0.00644789853572956
7.400000000000806,0.47785735165659193,0.026976732752546025
7.600000000000873,0.5226844147745777,0.04602317314796378
7.8000000000009395,0.5719596363765215,0.053977335552365585
8.000000000001005,0.6326187000577224,0.06402792583756237
8.200000000000895,0.6979584474388242,0.06551679711601949
8.400000000000784,0.7472740426860006,0.055707579740935764
8.600000000000673,0.7643991034452795,0.02630494437310448
8.800000000000562,0.759332022729137,-0.01224274526709104
9.000000000000451,0.7493027088364294,-0.06260599113859225
9.20000000000034,0.7411955564240531,-0.11693054645020622
9.40000000000023,0.7534580508789082,-0.177735068837814
9.600000000000119,0.7607941075662438,-0.23649382646917488
9.800000000000008,0.7593046031397155,-0.28495618387076754
10.000999999999896,0.7432053743725595,-0.31086923513253184
10.200999999999786,0.7031010419632394,-0.33727672831877603
10.400999999999675,0.6491385695015469,-0.3539133282746522
10.600999999999564,0.5827664509430905,-0.36219574176475794
10.800999999999453,0.5103340108552539,-0.3536679562840742
11.000999999999342,0.45650972702148657,-0.3316052333079918
11.200999999999231,0.42241321522614866,-0.30028103137581763
11.40099999999912,0.4011417455460769,-0.25098817000252316
11.60099999999901,0.37673427124622433,-0.19869644098732475
11.800999999998899,0.3555199505393702,-0.14183583623343213
12.000999999998788,0.32982085610847817,-0.07818168776467548
12.200999999998677,0.3246490553542803,-0.010765477682016009
12.400999999998566,0.3292705717492367,0.054194888627814915
12.600999999998455,0.3327971137587935,0.12896981090721812
12.800999999998345,0.3486213084111657,0.20352173433658016
13.000999999998234,0.3779247428548907,0.24861612648609147
13.200999999998123,0.415647719338713,0.27712147086488914
13.400999999998012,0.46908850482359904,0.29860279931803174
13.600999999997901,0.5290677116614817,0.30036337621790804
13.80099999999779,0.5857862807124292,0.2926135937137827
14.00099999999768,0.6418587499148593,0.28825562265808874
14.200999999997569,0.7025298885046503,0.27588915849076245
14.400999999997458,0.7381340883120909,0.2550622599546502
14.600999999997347,0.7890567988255717,0.22407371261639686
14.800999999997236,0.851789160016151,0.1899578034802527
15.000999999997125,0.9040682272548042,0.15246702860977282
15.200999999997014,0.9332945269082941,0.09569633219802665
15.400999999996904,0.9555233684398832,0.025266953595070387
15.600999999996793,0.975228738237883,-0.05102149301181061
15.800999999996682,0.9863424943292746,-0.12396460209765275
16.000999999996573,0.9942831552214644,-0.1928204799349892
16.200999999996817,0.9929238788880735,-0.25725211359766487
16.40099999999706,0.9866494071876428,-0.3118709983340554
16.600999999997306,0.9779531801554595,-0.36288022354609245
16.80099999999755,0.9539130552024332,-0.3994708056210457
17.000999999997795,0.9114571708487637,-0.4174588469215902
17.20099999999804,0.8597767756791994,-0.41970246455842397
17.400999999998284,0.7970787940689663,-0.4177109506976507
17.60099999999853,0.7278192547218886,-0.4177949340471041
17.800999999998773,0.6593826667643758,-0.42612891305765094
18.000999999999017,0.586216088704572,-0.4475013775880733
18.20099999999926,0.519747273072391,-0.4612618946894212
18.400999999999506,0.45032399594732414,-0.46506084613590554
18.60099999999975,0.3762960773780174,-0.4621514752698823
18.799999999999994,0.30403804598827777,-0.46500426660932304
19.000000000000238,0.23083590327495576,-0.4721173017700441
19.200000000000482,0.1574568003375788,-0.4883748064707854
19.400000000000727,0.08697228893790655,-0.49959908649503426
19.60000000000097,0.014933389049265191,-0.5044557470371411
19.800000000001216,-0.06030822111548435,-0.5093231179016726
20.00000000000146,-0.12845390026720918,-0.5007236877121815
