Time (s),X (m),Y (m)
0.001,0.0006558713247593165,0.0009345558501746678
0.20000000000000015,0.00022786097824271088,-0.0025324938531368197
0.4000000000000003,0.003893582747853871,0.0006028471439637541
0.6000000000000004,0.008321671019482084,-0.0010796293471229932
0.8000000000000006,0.02189574875288538,-0.0023719490825453936
1.0000000000000007,0.03845216318235605,-0.006295352152676741
1.2009999999999785,0.05215473467523069,-0.013777059275357268
1.4009999999999565,0.06990386876637399,-0.00983592490827082
1.6009999999999345,0.0877555141479892,-0.009735465111442777
1.8009999999999124,0.10022917114898301,-0.012976716392656079
2.0009999999998906,0.1156688573915845,-0.0025310657293318535
2.2009999999998686,0.13075227079702126,0.006267724059594327
2.4009999999998466,0.15369380954572243,0.015685371471255104
2.6009999999998246,0.17466774915494793,0.01681855833611191
2.8009999999998025,0.19321557115186133,0.02566191786386682
3.0009999999997805,0.21208701478260317,0.04519931217397068
3.2009999999997585,0.23109286722139677,0.06213042872874937
3.4009999999997365,0.24960114051393872,0.06940474017326816
3.6009999999997144,0.2684661953094977,0.07724829924899332
3.8009999999996924,0.2929701363317811,0.08989740785787433
4.000999999999671,0.3143277511216137,0.08842861107613272
4.200999999999738,0.3313373358199596,0.07920581973625808
4.400999999999804,0.3479513128432701,0.0863794440616036
4.600999999999871,0.36681011234091715,0.0855493400830657
4.800999999999938,0.3845004654128289,0.08599167024389244
5.000000000000004,0.4019146757974523,0.08660187786008534
5.200000000000071,0.42067142903689203,0.09479258152078225
5.400000000000138,0.4419725931576922,0.1012825513097554
5.600000000000205,0.4607349592935419,0.12032875041619802
5.800000000000272,0.4837785445257258,0.13530043469698913
6.000000000000338,0.5074722654466266,0.14639183157745395
6.200000000000405,0.5329925675251476,0.15724952030859893
6.400000000000472,0.557541905589754,0.16591255892808515
6.600000000000539,0.5817027723063021,0.17884930489746192
6.800000000000606,0.606803290841666,0.1906538555222906
7.000000000000672,0.6322887034663983,0.20414684103681285
7.200000000000739,0.6552072465225782,0.22048215889515746
7.400000000000806,0.674045937305726,0.23649744776487472
7.600000000000873,0.6944740138692314,0.2493319530993804
7.8000000000009395,0.7182847911662152,0.25184316199213436
8.000000000001005,0.7416861409726372,0.260724017587565
8.200000000000895,0.7609550166933068,0.28214612748343393
8.400000000000784,0.7826854979986196,0.29735191624960783
8.600000000000673,0.801943328650477,0.31163875877988856
8.800000000000562,0.8161166081827743,0.32212520306409653
9.000000000000451,0.836225910090061,0.33329420401239646
9.20000000000034,0.8542844860111245,0.3517433266219619
9.40000000000023,0.8729151308727225,0.37469999491465716
9.600000000000119,0.8947464929277279,0.38629683210855653
9.800000000000008,0.91427742971771,0.4081518343683405
10.000999999999896,0.9308261895282918,0.4300580685905497
10.200999999999786,0.9481314072866271,0.4522624276371137
10.400999999999675,0.9709819561711149,0.474834717312271
10.600999999999564,0.9993536965294476,0.4910086374847965
10.800999999999453,1.0270839944767896,0.5074673313316834
11.000999999999342,1.0505818531016333,0.5225433457501649
11.200999999999231,1.0710812669262662,0.5352051660729374
11.40099999999912,1.0940009938106419,0.5494087864627099
11.60099999999901,1.115359274175157,0.5569365918318377
11.800999999998899,1.1382126091437355,0.5728985433351013
12.000999999998788,1.1596160500724342,0.5932243037505438
12.200999999998677,1.1878664104626442,0.6035572360830473
12.400999999998566,1.2155261893278193,0.6197391855139976
12.600999999998455,1.2371421379897618,0.6442232813848365
12.800999999998345,1.2576565540443756,0.672026342260855
13.000999999998234,1.2790380260148815,0.697782384397561
13.200999999998123,1.3002340644727126,0.7210674224530018
13.400999999998012,1.3235881981252031,0.7388659037882418
13.600999999997901,1.346445170370875,0.761032917498171
13.80099999999779,1.3680019149399663,0.7745836216111187
14.00099999999768,1.392637609372238,0.7766838166788252
14.200999999997569,1.411269945707812,0.7860421560010905
14.400999999997458,1.4315538810150865,0.8023641796642614
14.600999999997347,1.4513915915184656,0.8149739311498743
14.800999999997236,1.468889407394736,0.8286566873657321
15.000999999997125,1.485431998559839,0.836521356802889
15.200999999997014,1.502384018267001,0.8506980916451862
15.400999999996904,1.516611716347497,0.8700014297127378
15.600999999996793,1.536860048314686,0.8876614513603774
15.800999999996682,1.5542643568224628,0.9096780617114472
16.000999999996573,1.5732177525460915,0.9319432670875512
16.200999999996817,1.5901979227675052,0.9499260960951526
16.40099999999706,1.606985151952386,0.958098691330879
16.600999999997306,1.624076485276937,0.9757683234469108
16.80099999999755,1.6432179761299772,0.9943330874087751
17.000999999997795,1.6634576178567977,1.0156396977228215
17.20099999999804,1.6787381527694276,1.032819046457107
17.400999999998284,1.6944613850503425,1.0483368573030707
17.60099999999853,1.7150620407123705,1.0670988393953484
17.800999999998773,1.7374025740956247,1.0889967349433218
18.000999999999017,1.7599437377382297,1.1006775946402334
18.20099999999926,1.7752696316506256,1.1172790310170306
18.400999999999506,1.789623019604875,1.1304413664061497
18.60099999999975,1.8092811138104439,1.142754048279737
18.799999999999994,1.82173369797432,1.1566571990826808
19.000000000000238,1.8368736368828325,1.1709580893319984
19.200000000000482,1.8527102948815874,1.182372028152546
19.400000000000727,1.8732874301130384,1.2033493113826574
19.60000000000097,1.8930643268856886,1.2282035676963832
19.800000000001216,1.9038207150339141,1.2519420613830528
20.00000000000146,1.9131101576089022,1.2797816470570014
