Time (s),X (m),Y (m)
0.001,0.0003099530129853942,-0.0010272443824616275
0.20000000000000015,0.0025051640661918426,0.005268858636533846
0.4000000000000003,0.006086581836289939,0.006879236441328287
0.6000000000000004,0.010656296905562482,0.008829319933686073
0.8000000000000006,0.018384382732001638,0.021723049578543173
1.0000000000000007,0.035902411599349704,0.04933257254597485
1.2009999999999785,0.05275433250717309,0.04991445019801417
1.4009999999999565,0.07401186348084601,0.039696097163703634
1.6009999999999345,0.09528919566856778,0.014544559040070171
1.8009999999999124,0.11366716688909499,-0.01060647072486304
2.0009999999998906,0.13259734315034494,-0.032380510581221544
2.2009999999998686,0.14927922445008407,-0.04637427797989644
2.4009999999998466,0.166470481130765,-0.07199667111708719
2.6009999999998246,0.20115077881360605,-0.07797414067446376
2.8009999999998025,0.23798550966141493,-0.07903778545575794
3.0009999999997805,0.2736369473985666,-0.07455297817256713
3.2009999999997585,0.3102060578313546,-0.06989916050754441
3.4009999999997365,0.3386447682360662,-0.09046255722183298
3.6009999999997144,0.3697948346817086,-0.10420761382010385
3.8009999999996924,0.3976775862578698,-0.12108145433194883
4.000999999999671,0.4233124549246297,-0.150133220249718
4.200999999999738,0.4515682646533111,-0.1582325718531763
4.400999999999804,0.4768052920106476,-0.16726976316313444
4.600999999999871,0.5047667390040635,-0.17883377380282037
4.800999999999938,0.5427103679112217,-0.19205223807607583
5.000000000000004,0.5848844384344956,-0.20916882448375018
5.200000000000071,0.623115416287664,-0.21682288077181275
5.400000000000138,0.6608434112920517,-0.22603884491878268
5.600000000000205,0.6960403365226601,-0.23175711046153663
5.800000000000272,0.7387959267277096,-0.22722678164875246
6.000000000000338,0.7907317034979643,-0.22316188222908043
6.200000000000405,0.8320889332486873,-0.2293313031102642
6.400000000000472,0.8721500137692411,-0.24427127490314626
6.600000000000539,0.9043149872656524,-0.2643278658317485
6.800000000000606,0.9196565496225111,-0.28702471322400125
7.000000000000672,0.9417157566392348,-0.31847080514400333
7.200000000000739,0.9608102773931374,-0.3531677187702108
7.400000000000806,0.9688789553546235,-0.379766005222331
7.600000000000873,0.9614545662251356,-0.4125058661372048
7.8000000000009395,0.9358371629287316,-0.44608465619276594
8.000000000001005,0.9239657302511304,-0.48547707158804926
8.200000000000895,0.9156613043853679,-0.5207640087217802
8.400000000000784,0.906901759669533,-0.5588179818193822
8.600000000000673,0.8942885125733177,-0.5948273559049835
8.800000000000562,0.8709305720288779,-0.6036115784079674
9.000000000000451,0.8446566913914354,-0.6211489104032887
9.20000000000034,0.8128841007028351,-0.6282682875581047
9.40000000000023,0.776452842530345,-0.6332939718681243
9.600000000000119,0.7412713836671244,-0.6426399902798318
9.800000000000008,0.7024844507036745,-0.6397789283192502
10.000999999999896,0.663745408299232,-0.6436784018771953
10.200999999999786,0.6290956117761061,-0.6468228409217288
10.400999999999675,0.5954901210340691,-0.6351254872731344
10.600999999999564,0.5679566017862965,-0.6118206159910115
10.800999999999453,0.5530565147346022,-0.5876345733296658
11.000999999999342,0.5607408851878803,-0.5631506273526717
11.200999999999231,0.5678886406315845,-0.534608046059316
11.40099999999912,0.5603348163988858,-0.5044874168031224
11.60099999999901,0.5515063972504329,-0.4702846963817062
11.800999999998899,0.5429809048589902,-0.43705667476550886
12.000999999998788,0.5439994719002078,-0.4034467509131765
12.200999999998677,0.5392029976083214,-0.3672972641261685
12.400999999998566,0.5360547307346157,-0.32604283285112345
12.600999999998455,0.5480644674781217,-0.2927603217318492
12.800999999998345,0.5694854163870652,-0.2615684334177768
13.000999999998234,0.5849654404482838,-0.22849779196466743
13.200999999998123,0.5938766303599307,-0.19555837548434832
13.400999999998012,0.5831734360371618,-0.1601283747808261
13.600999999997901,0.5888129613364651,-0.12915897684703392
13.80099999999779,0.5927357262725998,-0.09691567177653591
14.00099999999768,0.6050319034373767,-0.05937368411860746
14.200999999997569,0.617011565562503,-0.013376949062339593
14.400999999997458,0.643510465986957,0.02411420046209696
14.600999999997347,0.6711183367749656,0.05607169375753615
14.800999999997236,0.6959667545292939,0.08647407601085674
15.000999999997125,0.71993142684826,0.11745161856108836
15.200999999997014,0.7567658861474938,0.1450572953202088
15.400999999996904,0.7815470171644627,0.16573499628349384
15.600999999996793,0.812917498371002,0.18643029414834789
15.800999999996682,0.8266613921385709,0.21797906230788658
16.000999999996573,0.8392333009734386,0.2504360093254911
16.200999999996817,0.8577525065111528,0.2958522275460266
16.40099999999706,0.8730512850399399,0.3305839288547381
16.600999999997306,0.8842707852233302,0.36150979415010137
16.80099999999755,0.9068620140481327,0.3887038107350312
17.000999999997795,0.9274943265851827,0.4129524614969627
17.20099999999804,0.9475604805797415,0.4363691899911094
17.400999999998284,0.965705879424819,0.4649123531584668
17.60099999999853,0.9855616503335821,0.4940350918332096
17.800999999998773,0.9939969995607584,0.5223389091251772
18.000999999999017,1.0232684701601646,0.5452324409444468
18.20099999999926,1.0452444391432356,0.5677639179915034
18.400999999999506,1.0775181053331666,0.5953323194184729
18.60099999999975,1.1063275149073206,0.6296154284936186
18.799999999999994,1.1339114154233338,0.6558447246934558
19.000000000000238,1.1587539847278945,0.6834924092006848
19.200000000000482,1.1884616670367685,0.7029462088179609
19.400000000000727,1.224671316490423,0.7175337101045588
19.60000000000097,1.2541441054918636,0.7420480263505446
19.800000000001216,1.2757404335152407,0.7681204885556968
20.00000000000146,1.2969946179362386,0.8016987349964138
