Time (s),X (m),Y (m)
0.001,0.0007356649194092869,-0.0008930179339548115
0.20000000000000015,-0.00019415859637718507,0.003583028945472999
0.4000000000000003,0.001282355848651592,0.0036442654880839364
0.6000000000000004,0.0036354504341680007,0.006705651005319951
0.8000000000000006,0.007286647665385202,0.0045292985816222315
1.0000000000000007,0.011513368850473027,0.002781548300798587
1.2009999999999785,0.014712079610375791,0.0048722012289495395
1.4009999999999565,0.018801563000790014,0.0017483219794638114
1.6009999999999345,0.02366025293694795,7.19145579081139e-05
1.8009999999999124,0.028172166670109685,-0.0014704976663208547
2.0009999999998906,0.03208089670189538,-0.0019696386263292377
2.2009999999998686,0.03622184715984244,-0.002100681552533641
2.4009999999998466,0.04071666245975509,-0.003179607563035081
2.6009999999998246,0.046086829972291576,-0.005387621561214427
2.8009999999998025,0.051466026434740936,-0.00740069079876376
3.0009999999997805,0.05665284370632204,-0.008129995097331996
3.2009999999997585,0.06118484129629763,-0.008573065423518392
3.4009999999997365,0.0656306129317835,-0.009753913756736237
3.6009999999997144,0.07173786237100248,-0.011213650398040665
3.8009999999996924,0.0776186072925521,-0.013060787780700201
4.000999999999671,0.08314612026754074,-0.014990020500475293
4.200999999999738,0.0883379647306994,-0.015988873326524745
4.400999999999804,0.09338941040379017,-0.016968170939127204
4.600999999999871,0.09946936463917576,-0.01836654978714371
4.800999999999938,0.10578914427586045,-0.019634648598556865
5.000000000000004,0.1116992143732177,-0.02087011830261521
5.200000000000071,0.11768500113575667,-0.022831693024609467
5.400000000000138,0.1230769394217019,-0.02394485273770233
5.600000000000205,0.1295885096749586,-0.025450998911393147
5.800000000000272,0.13638374497414774,-0.026310579836441715
6.000000000000338,0.1427888422694714,-0.027727666688067913
6.200000000000405,0.14893879828863987,-0.02879412438834402
6.400000000000472,0.15476382388650897,-0.030050605711752804
6.600000000000539,0.1609095040042494,-0.03061904832261623
6.800000000000606,0.16771698469740393,-0.03106932669008642
7.000000000000672,0.17331610063067063,-0.031507326828317
7.200000000000739,0.17980454464902665,-0.03238548780072266
7.400000000000806,0.18563489298164065,-0.0325969148122795
7.600000000000873,0.19172200738545622,-0.03224388174010628
7.8000000000009395,0.19858612971277842,-0.032316461903133746
8.000000000001005,0.20471132685821825,-0.03244722787191304
8.200000000000895,0.2107866145511086,-0.03203514753523755
8.400000000000784,0.21737841314704526,-0.032607406751219745
8.600000000000673,0.22367886991959976,-0.031647512103898594
8.800000000000562,0.22999508719873427,-0.030648314304579028
9.000000000000451,0.23567864404767233,-0.029829475877062153
9.20000000000034,0.24179951341992534,-0.02922252452636268
9.40000000000023,0.24745859851242752,-0.028590118258148896
9.600000000000119,0.2537597018447192,-0.027164837135735278
9.800000000000008,0.25965291403555524,-0.025299262485733946
10.000999999999896,0.26477252953870484,-0.023393990036362534
10.200999999999786,0.27020613291118906,-0.02176836156538171
10.400999999999675,0.2758020332527058,-0.019937246969347566
10.600999999999564,0.28086327549970064,-0.01740111889718985
10.800999999999453,0.2856961929100653,-0.014779770081971606
11.000999999999342,0.29003784591027737,-0.012782461108566323
11.200999999999231,0.29513896777058385,-0.010444444827801944
11.40099999999912,0.2991701110829392,-0.0071127934860014215
11.60099999999901,0.3037131779855716,-0.003544838377394654
11.800999999998899,0.30784377934461205,8.026911032748615e-05
12.000999999998788,0.3121057002490478,0.003738125093843224
12.200999999998677,0.3157293455700744,0.007848703686495801
12.400999999998566,0.3194816037809818,0.011143953123472784
12.600999999998455,0.3220404798472904,0.015535407897117699
12.800999999998345,0.3248267087825765,0.0200912155832181
13.000999999998234,0.3277687556354724,0.025138508468858418
13.200999999998123,0.3310470260860117,0.029664499228662797
13.400999999998012,0.3341074196630335,0.034454314160271546
13.600999999997901,0.3367620482725282,0.04014946585847735
13.80099999999779,0.3402139321212643,0.045334491595241416
14.00099999999768,0.34160969217496845,0.05084537362424232
14.200999999997569,0.34299996896755464,0.055845831478177246
14.400999999997458,0.344184103747299,0.0608265817688196
14.600999999997347,0.3475554697083384,0.06710127926036874
14.800999999997236,0.3493842880660214,0.0731005731288441
15.000999999997125,0.35140463889938056,0.07887694610976188
15.200999999997014,0.354083499883292,0.08512987225154939
15.400999999996904,0.355677959677141,0.09059417527188592
15.600999999996793,0.35818740716069,0.09709328784021906
15.800999999996682,0.36042432167307725,0.10429959910423066
16.000999999996573,0.36262604579050745,0.11106101034195584
16.200999999996817,0.36479357261392337,0.11757500837615767
16.40099999999706,0.3668705818757543,0.12389059502753519
16.600999999997306,0.36743635717044243,0.1303988979745568
16.80099999999755,0.36850812479463274,0.13754016914973133
17.000999999997795,0.36993032277917653,0.14417666071217644
17.20099999999804,0.37075346415536653,0.15065817036256388
17.400999999998284,0.371726432614092,0.15701103145997675
17.60099999999853,0.37196497520425204,0.16420936768395308
17.800999999998773,0.3728898821585856,0.1714256940550966
18.000999999999017,0.3729629624070109,0.17790828076634682
18.20099999999926,0.37320380147339743,0.18434365589999663
18.400999999999506,0.37355935404007545,0.19096476707608118
18.60099999999975,0.3726587180307931,0.19727477587884037
18.799999999999994,0.3723383140788315,0.204474151217492
19.000000000000238,0.37191735561654676,0.21062803012424003
19.200000000000482,0.37226866431832367,0.21740748501916882
19.400000000000727,0.37089669117238877,0.22241381538748664
19.60000000000097,0.36960806288657483,0.22889491913484264
19.800000000001216,0.368529141973673,0.23558525508667646
20.00000000000146,0.367780348684539,0.2407950199143466
