Time (s),X (m),Y (m)
0.001,0.0012473251573109415,-8.987223813608099e-05
0.20000000000000015,-0.0008161353313028573,-0.00024295936159565487
0.4000000000000003,0.007580776238515561,7.554550657307184e-05
0.6000000000000004,0.01577186359955185,0.00069008972726798
0.8000000000000006,0.03237283140531184,0.0007960989151309229
1.0000000000000007,0.04619197640393295,-0.0036020431966081283
1.2009999999999785,0.05290312183391053,-0.008974302805675452
1.4009999999999565,0.06551811488948073,-0.011464562061086522
1.6009999999999345,0.08001078392912797,-0.01051262051395688
1.8009999999999124,0.0895560864702456,-0.010487804282479873
2.0009999999998906,0.09696255004889345,-0.01106770351170821
2.2009999999998686,0.10279908071852097,-0.008531685883425826
2.4009999999998466,0.1055045922947185,-0.007732429561521711
2.6009999999998246,0.10268743821877815,-0.011016767307856543
2.8009999999998025,0.10477689036076103,-0.011628258352945248
3.0009999999997805,0.11120214157928941,-0.013988786447734406
3.2009999999997585,0.130168530203413,-0.022128520159404252
3.4009999999997365,0.16017974812023472,-0.02928658084982497
3.6009999999997144,0.1760791834800789,-0.03505537900027131
3.8009999999996924,0.19317807656981104,-0.034778280487528915
4.000999999999671,0.2111718154543977,-0.03725738658722321
4.200999999999738,0.22747298511339617,-0.04041726314754842
4.400999999999804,0.2552613866527286,-0.05368396254325493
4.600999999999871,0.28354228609317284,-0.06772776418247757
4.800999999999938,0.3096632252158396,-0.0791500718853928
5.000000000000004,0.3273157542338062,-0.08599409805278271
5.200000000000071,0.3536871358947323,-0.09818186902553125
5.400000000000138,0.3908736630640045,-0.10847611156674493
5.600000000000205,0.4165123022477205,-0.11273276667289124
5.800000000000272,0.43535279332112164,-0.12016875177164452
6.000000000000338,0.452253480027519,-0.12987206233148915
6.200000000000405,0.4721790637533871,-0.13548797045450034
6.400000000000472,0.4928492111852112,-0.14162438991205276
6.600000000000539,0.5164597983133904,-0.15442692010195844
6.800000000000606,0.5433884002458915,-0.16267620876987401
7.000000000000672,0.567567520619591,-0.17614656348051835
7.200000000000739,0.5890062748551351,-0.18416011453137943
7.400000000000806,0.6133815746698257,-0.19510974179971644
7.600000000000873,0.6453099122019476,-0.20507560410415474
7.8000000000009395,0.6759664870671367,-0.21357512748411037
8.000000000001005,0.7001063699232359,-0.2270421619663668
8.200000000000895,0.7115238547792128,-0.22944799568293303
8.400000000000784,0.7275263444096667,-0.23807117624909524
8.600000000000673,0.7480905490387318,-0.2515119707572753
8.800000000000562,0.7693822317333575,-0.2629960389177828
9.000000000000451,0.7902126076899975,-0.27801950879514753
9.20000000000034,0.8166231145105219,-0.2988783221493711
9.40000000000023,0.8414611396852277,-0.3221634694093287
9.600000000000119,0.8679109419019649,-0.342300912944571
9.800000000000008,0.8960361905493692,-0.3671514738414424
10.000999999999896,0.9194615961829327,-0.3877164483597491
10.200999999999786,0.9426499352104355,-0.40940055154585375
10.400999999999675,0.960949610282613,-0.42579627760462097
10.600999999999564,0.9784470553795723,-0.44242833232991213
10.800999999999453,0.9946283030365863,-0.4746926892504345
11.000999999999342,1.0069584109727199,-0.5039079637523607
11.200999999999231,1.0118860592300074,-0.5121874868512177
11.40099999999912,1.0201593711837453,-0.5216184962043039
11.60099999999901,1.0253165337550314,-0.5448625906064353
11.800999999998899,1.031695402387961,-0.5731027000539309
12.000999999998788,1.0326638083713717,-0.5999362999639826
12.200999999998677,1.0256327564628156,-0.634912571457826
12.400999999998566,1.017736591879975,-0.6643923725487153
12.600999999998455,1.0068224765177844,-0.702147565383579
12.800999999998345,0.9944147525060857,-0.7359207893523452
13.000999999998234,0.9848317068873506,-0.765116242594612
13.200999999998123,0.9685171556217361,-0.7890672318174752
13.400999999998012,0.9504714940645987,-0.8104975104246248
13.600999999997901,0.9340484727123691,-0.8297435427407318
13.80099999999779,0.9197443369759276,-0.8514545845828334
14.00099999999768,0.9038802697807163,-0.8832817016223297
14.200999999997569,0.8890099639873829,-0.9133022624166586
14.400999999997458,0.8701172968773498,-0.9439761790606142
14.600999999997347,0.8639725268990861,-0.9651625187047556
14.800999999997236,0.856546115401637,-0.9818338434333985
15.000999999997125,0.8508959439384112,-1.0012320587720052
15.200999999997014,0.8417973155745908,-1.0259575757893131
15.400999999996904,0.829523904870161,-1.049675614690825
15.600999999996793,0.817832304579547,-1.0718491617134165
15.800999999996682,0.8042668096506064,-1.0933282287791037
16.000999999996573,0.790595608456038,-1.1217423705703657
16.200999999996817,0.7643525383516312,-1.154821712302168
16.40099999999706,0.7424654543179724,-1.1883048590791658
16.600999999997306,0.7172656619719509,-1.224544685083788
16.80099999999755,0.6993198601427213,-1.2551187248444213
17.000999999997795,0.6818911298318608,-1.282546680581668
17.20099999999804,0.667481651183921,-1.3104772209647915
17.400999999998284,0.6432141867675809,-1.3414935304087083
17.60099999999853,0.6102366646193845,-1.3754364311126448
17.800999999998773,0.5877285937115685,-1.4063288734771033
18.000999999999017,0.5724597192387066,-1.428774021999734
18.20099999999926,0.5634727536873798,-1.4393543951097778
18.400999999999506,0.5591264614027742,-1.4508984909529021
18.60099999999975,0.5357876241418829,-1.466228479820002
18.799999999999994,0.514544023362296,-1.4764974870506427
19.000000000000238,0.48435827024962563,-1.4756238731754472
19.200000000000482,0.4601167821550499,-1.4718312689076338
19.400000000000727,0.43085505694846604,-1.4665939002471398
19.60000000000097,0.40732988564464645,-1.4621907144039374
19.800000000001216,0.386907199716081,-1.4583008252703173
20.00000000000146,0.3653838470655602,-1.4531758836215563
