Time (s),X (m),Y (m)
0.001,-0.00021570977506068912,0.0009345558501746678
0.20000000000000015,0.0007186698935804383,0.0014662608093711706
0.4000000000000003,-0.0020771863646984264,0.0078094101396785935
0.6000000000000004,0.0003718876200340151,0.007865238897986015
0.8000000000000006,0.0032918209696329785,0.004996714237996339
1.0000000000000007,0.0054891676901255735,0.003393430636718103
1.2009999999999785,0.007162634994566679,0.002537781921297792
1.4009999999999565,0.00922321476107092,0.0018938805209739603
1.6009999999999345,0.011795732327678225,0.001418016414450683
1.8009999999999124,0.013356498000505982,0.00021264285157519749
2.0009999999998906,0.013796468014354897,-0.00046791375993789026
2.2009999999998686,0.014189541143369972,-0.0011589869053987244
2.4009999999998466,0.01461955247004917,-0.0016850660742698095
2.6009999999998246,0.015087625465809575,-0.0022298964831702537
2.8009999999998025,0.015579535393222599,-0.0028403479653926
3.0009999999997805,0.01614496702198362,-0.0035821392696936192
3.2009999999997585,0.01681228468043009,-0.004534452018461733
3.4009999999997365,0.017492278226417843,-0.005532831048912832
3.6009999999997144,0.018157653313477976,-0.006447625419296491
3.8009999999996924,0.01889260187860349,-0.007507277236310975
4.000999999999671,0.019671954006219933,-0.008614072551675182
4.200999999999738,0.020516507102571364,-0.009849615039949229
4.400999999999804,0.021384999338632034,-0.011101177687692691
4.600999999999871,0.022207610669432234,-0.012199813087739196
4.800999999999938,0.02310073771009479,-0.013417508165301921
5.000000000000004,0.02410400616083375,-0.014830417210983948
5.200000000000071,0.025059433205051197,-0.016124691880322204
5.400000000000138,0.026075750233356076,-0.017460769446045344
5.600000000000205,0.027160876509270494,-0.018872515261919205
5.800000000000272,0.028258287050914415,-0.020235082777486167
6.000000000000338,0.02932621992812731,-0.021563684023379544
6.200000000000405,0.030311419748046242,-0.022809816259944677
6.400000000000472,0.03140988512764977,-0.024126927295624778
6.600000000000539,0.032522674213528495,-0.025429117776839223
6.800000000000606,0.03342545110682781,-0.026491927764250325
7.000000000000672,0.03439112763282244,-0.02760374022593418
7.200000000000739,0.03561130407590102,-0.02900536972172905
7.400000000000806,0.036507303391793096,-0.030004529707107815
7.600000000000873,0.03764544757749789,-0.03127519420171775
7.8000000000009395,0.038753622416752335,-0.03250925126478135
8.000000000001005,0.0398411558928804,-0.03369739679573653
8.200000000000895,0.04090573809302498,-0.03482284049951456
8.400000000000784,0.04190066564069524,-0.035862117787889176
8.600000000000673,0.04289103847661019,-0.03690681497815026
8.800000000000562,0.043932158657112544,-0.03800082955778875
9.000000000000451,0.044951908008509345,-0.03905478261918945
9.20000000000034,0.04595433881193265,-0.04003902994820075
9.40000000000023,0.04692354914820664,-0.04097627282473641
9.600000000000119,0.04791077599958866,-0.04192469876551811
9.800000000000008,0.048935242070450885,-0.04288272384525086
10.000999999999896,0.04998408907190679,-0.043879553616377236
10.200999999999786,0.051002102956652494,-0.04482622814929556
10.400999999999675,0.052048007325149734,-0.04578337207609564
10.600999999999564,0.053098734246985024,-0.04671881633282974
10.800999999999453,0.05405390456565499,-0.04758408580462059
11.000999999999342,0.055140283884057686,-0.04853406230794246
11.200999999999231,0.056234623688348674,-0.04948699836676733
11.40099999999912,0.05728823445536914,-0.05038634802308789
11.60099999999901,0.05840173147928836,-0.0513069497525839
11.800999999998899,0.059585278815489896,-0.052289288733619044
12.000999999998788,0.06062306957551267,-0.053111356317483746
12.200999999998677,0.06175859913906129,-0.053994295740891124
12.400999999998566,0.06276560348410976,-0.0547763344703131
12.600999999998455,0.06378984055145043,-0.05555950041815875
12.800999999998345,0.06482685099230309,-0.056338737753789406
13.000999999998234,0.06587675199568767,-0.05711531983384157
13.200999999998123,0.06688357499544838,-0.057839481448548155
13.400999999998012,0.06792006261438654,-0.05858922796124705
13.600999999997901,0.06892036383032667,-0.05928778053109946
13.80099999999779,0.0699705815623871,-0.060010122178571164
14.00099999999768,0.07103881346406082,-0.060726331485776774
14.200999999997569,0.07211815494230893,-0.061432173727278355
14.400999999997458,0.07321098217627212,-0.06213473086620672
14.600999999997347,0.07432405278383471,-0.06283148637075785
14.800999999997236,0.0754856025205361,-0.06354954718958546
15.000999999997125,0.07664506472752997,-0.0642405072482025
15.200999999997014,0.07786830275419757,-0.06495851712274157
15.400999999996904,0.07900671849226984,-0.06560806103348624
15.600999999996793,0.08026916888634138,-0.06629926119440883
15.800999999996682,0.08145088017674816,-0.06693890126642157
16.000999999996573,0.08271546533979149,-0.06760639974152989
16.200999999996817,0.08396903733357465,-0.06824356704747679
16.40099999999706,0.08520245835192294,-0.06885808529790388
16.600999999997306,0.08642455028120319,-0.06944198117431029
16.80099999999755,0.08765467124241687,-0.0700295502391848
17.000999999997795,0.08886458458933373,-0.07057870473195725
17.20099999999804,0.0900249544090137,-0.07109675713984069
17.400999999998284,0.09124449169655871,-0.07161282989415152
17.60099999999853,0.09250386640245317,-0.07213579572649374
17.800999999998773,0.09368029269008642,-0.07261046222376433
18.000999999999017,0.09493826029373366,-0.07310191459429599
18.20099999999926,0.09614762308164947,-0.07355127659100831
18.400999999999506,0.09729576913368411,-0.07398200343020793
18.60099999999975,0.09849519874444748,-0.07440462718454835
18.799999999999994,0.09965293076627008,-0.07481090921921983
19.000000000000238,0.10085045293582665,-0.07520402637054571
19.200000000000482,0.10199670337196219,-0.07557786170182212
19.400000000000727,0.10318713786052809,-0.07594653486161487
19.60000000000097,0.10426631218176627,-0.07627600134597443
19.800000000001216,0.1053664406102906,-0.07660088424485739
20.00000000000146,0.10656584589190374,-0.0769363579304753
