Time (s),X (m),Y (m)
0.001,-0.0004427414248986554,0.0007899207378008392
0.20000000000000015,0.0025024172285687037,-0.0007120561081703228
0.4000000000000003,0.011819960213975614,-0.004804729053147528
0.6000000000000004,0.029471603482069834,-0.008106151058718716
0.8000000000000006,0.05388560719686322,-0.018267540083720522
1.0000000000000007,0.08922205223476352,-0.018471853480386217
1.2009999999999785,0.1320489179307854,-0.015225871311151983
1.4009999999999565,0.17233125334326108,-0.029175714279728853
1.6009999999999345,0.21268540931083277,-0.05076734305160053
1.8009999999999124,0.24413058495310752,-0.07633539396349553
2.0009999999998906,0.24823285637299788,-0.10468348821562239
2.2009999999998686,0.21862021365641238,-0.1272676098181134
2.4009999999998466,0.18197763895169003,-0.14043928159410016
2.6009999999998246,0.1450781796843354,-0.12567191797634364
2.8009999999998025,0.1130281384316006,-0.08234265014339573
3.0009999999997805,0.0806802170027139,-0.04296672590081742
3.2009999999997585,0.04757189955390304,-6.96228658537799e-05
3.4009999999997365,0.012997261033038734,0.04419661893786312
3.6009999999997144,-0.004483089912519401,0.08821196986294262
3.8009999999996924,0.006519541043764321,0.13186047246813887
4.000999999999671,0.03811170291635034,0.16771208565363702
4.200999999999738,0.07824978590382974,0.20035305918288407
4.400999999999804,0.12810691908102395,0.21104797889685858
4.600999999999871,0.18070752269538173,0.20072333959379596
4.800999999999938,0.2221968671036589,0.17401489922080776
5.000000000000004,0.2410526676957115,0.12179766864295427
5.200000000000071,0.24734464144092733,0.047971074502440675
5.400000000000138,0.2530073344739309,-0.021762396517099946
5.600000000000205,0.2384499024238709,-0.08450206105122855
5.800000000000272,0.21903101404219796,-0.14594868454449844
6.000000000000338,0.2006262236056822,-0.21419295104301814
6.200000000000405,0.18358884169784206,-0.28622764697064695
6.400000000000472,0.16843364289514628,-0.3575109399284244
6.600000000000539,0.13696853846768003,-0.4091152174373135
6.800000000000606,0.09083171360888125,-0.42591030792798645
7.000000000000672,0.03149076438287369,-0.4178730381745138
7.200000000000739,-0.031291992369703606,-0.3861723707058398
7.400000000000806,-0.08476341679859911,-0.33938849896127365
7.600000000000873,-0.12484857336151707,-0.284775184538845
7.8000000000009395,-0.15068083257638495,-0.22108712583485737
8.000000000001005,-0.1633494215097814,-0.1541927128993985
8.200000000000895,-0.16488952518424022,-0.08074711821394981
8.400000000000784,-0.15032029167830432,-0.005694605192736475
8.600000000000673,-0.11905071076023893,0.06409925660737775
8.800000000000562,-0.0857523185845157,0.1287117607606664
9.000000000000451,-0.020952985976360562,0.17522295092526677
9.20000000000034,0.0584182147226318,0.2024687335724857
9.40000000000023,0.13287897038885482,0.2153388216527583
9.600000000000119,0.2040324261639445,0.2092039874719445
9.800000000000008,0.27921890525634224,0.17793152484363606
10.000999999999896,0.3447947781360166,0.13089690429334797
10.200999999999786,0.3904973620820958,0.07869244234167881
10.400999999999675,0.40255853243344575,0.014589023264957496
10.600999999999564,0.38646472904772544,-0.05551189282327143
10.800999999999453,0.3615660637708999,-0.11770666411969659
11.000999999999342,0.31873477289990915,-0.16288486535630686
11.200999999999231,0.2589959794473155,-0.19879010411347098
11.40099999999912,0.18920952473889202,-0.22539863824535758
11.60099999999901,0.11745113299500312,-0.24318698055117424
11.800999999998899,0.03936938795157093,-0.24540343727093908
12.000999999998788,-0.037656004536515617,-0.22232810890608107
12.200999999998677,-0.10125645422791184,-0.17434686903702862
12.400999999998566,-0.13672025391437725,-0.10231616151042114
12.600999999998455,-0.14350936919880913,-0.021227028226383265
12.800999999998345,-0.1421495990177257,0.055509220961268084
13.000999999998234,-0.12995840408081766,0.12707137489143075
13.200999999998123,-0.11149512814932197,0.20021521388736474
13.400999999998012,-0.08604333699129031,0.26876407489849535
13.600999999997901,-0.04567112256653976,0.3115785370195559
13.80099999999779,0.008112386927596256,0.3355500084677197
14.00099999999768,0.06416107719240019,0.34811495755563443
14.200999999997569,0.10360444305891192,0.32289449013323573
14.400999999997458,0.11228763802520952,0.27176635872569116
14.600999999997347,0.1083466642819041,0.20730553784566075
14.800999999997236,0.09576558389723065,0.13578143732868347
15.000999999997125,0.07016824472633404,0.057434403861475615
15.200999999997014,0.037485362728442814,-0.02319875899268907
15.400999999996904,-0.007848758905763293,-0.09789855087591386
15.600999999996793,-0.05947754811823134,-0.16162173777509906
15.800999999996682,-0.12931374923684022,-0.2014379110868681
16.000999999996573,-0.20609130546310803,-0.21341387965444808
16.200999999996817,-0.28181641686890513,-0.2016524722909871
16.40099999999706,-0.35281606353993683,-0.18239671871192117
16.600999999997306,-0.404588524653101,-0.15002662544963732
16.80099999999755,-0.44325395510630533,-0.10473158987444263
17.000999999997795,-0.44391458946574464,-0.051348419656225296
17.20099999999804,-0.41490860927713047,-0.013294127999816201
17.400999999998284,-0.37351569591743533,-0.005150901090750411
17.60099999999853,-0.3278881789704964,-0.029715489092399367
17.800999999998773,-0.2841227967076177,-0.057460478055633965
18.000999999999017,-0.24781716372076895,-0.093128959009681
18.20099999999926,-0.23523998716586125,-0.1425415781956899
18.400999999999506,-0.24796482743378415,-0.19898403360119868
18.60099999999975,-0.29441981400002487,-0.2411066867809846
18.799999999999994,-0.35743247421280494,-0.2650873093607161
19.000000000000238,-0.4311261928004266,-0.2620662595891006
19.200000000000482,-0.5014627205983336,-0.24858811979932577
19.400000000000727,-0.5616822989442557,-0.21954099436285202
19.60000000000097,-0.5974043756735189,-0.1735422480887783
19.800000000001216,-0.6198558963823637,-0.1259185183779487
20.00000000000146,-0.6116760353589237,-0.07938589249444312
