Time (s),X (m),Y (m)
0.001,0.0011546366250239817,0.000435790549910003
0.20000000000000015,0.0062996514733829065,0.0025134968440882212
0.4000000000000003,0.005855672055187163,0.002653791047980462
0.6000000000000004,0.011865820678599958,0.006047024752004502
0.8000000000000006,0.016779840103249018,0.011134874633078322
1.0000000000000007,0.02176597852216583,0.009715883302048327
1.2009999999999785,0.025561921188486082,0.009385072412280628
1.4009999999999565,0.03269150706336706,0.00985366884972968
1.6009999999999345,0.036175242472427066,0.009151099837253209
1.8009999999999124,0.04040310184731383,0.00950130920785049
2.0009999999998906,0.04539368817797598,0.009511586611535268
2.2009999999998686,0.05044467760388992,0.01058727056469197
2.4009999999998466,0.05523945016682842,0.013070650706022752
2.6009999999998246,0.05971081671161533,0.012623419831131048
2.8009999999998025,0.06511860880910664,0.01578662102300603
3.0009999999997805,0.06877105695471061,0.014480170247799014
3.2009999999997585,0.07204795267138094,0.015592912916030202
3.4009999999997365,0.07868554118647128,0.018055269488634482
3.6009999999997144,0.08306229031780349,0.01926863779397912
3.8009999999996924,0.0892663713142482,0.02315658973857859
4.000999999999671,0.09294986482487529,0.023478348128085975
4.200999999999738,0.09745352171762554,0.026908825653874868
4.400999999999804,0.10225494685083374,0.029285397905598986
4.600999999999871,0.1067881687039453,0.03148806132333816
4.800999999999938,0.11150940684951044,0.03424318000470376
5.000000000000004,0.1167994051899059,0.03471008192685948
5.200000000000071,0.12232340298527883,0.0380032164509691
5.400000000000138,0.1284899588880211,0.04057354818656441
5.600000000000205,0.13325620718361966,0.04394796125885553
5.800000000000272,0.13791191800694436,0.04678339128397276
6.000000000000338,0.1417151662411209,0.04998809334640211
6.200000000000405,0.14515061828741962,0.052363116702652764
6.400000000000472,0.150452749594249,0.056597723092693425
6.600000000000539,0.1552664377332974,0.05897030773013196
6.800000000000606,0.16128942305510077,0.06317034622174307
7.000000000000672,0.16713690043637366,0.06652787671666809
7.200000000000739,0.17225494618562337,0.0709657526556346
7.400000000000806,0.1790140721407534,0.07611444395792315
7.600000000000873,0.18373476252068935,0.07870874414634312
7.8000000000009395,0.1883815228405772,0.08374483291374912
8.000000000001005,0.19477581917706244,0.08759263047498679
8.200000000000895,0.19994395080357083,0.0932148732507068
8.400000000000784,0.2064615330347508,0.09753972010523124
8.600000000000673,0.21408325713483417,0.10241666397182506
8.800000000000562,0.2184973898889746,0.10607520867090078
9.000000000000451,0.22376391401665469,0.10947211768911622
9.20000000000034,0.23059203825295294,0.11626521104498945
9.40000000000023,0.23630529043840318,0.11701363749380625
9.600000000000119,0.23999757941865907,0.11817175048933443
9.800000000000008,0.24539359597184657,0.12233778147808254
10.000999999999896,0.24983249822994566,0.12518954468311455
10.200999999999786,0.25483898620787815,0.13122731375454783
10.400999999999675,0.2628023333014565,0.1356787544817789
10.600999999999564,0.26724043018874416,0.14167417796039236
10.800999999999453,0.2725294542280707,0.14584147718349405
11.000999999999342,0.27934032220091565,0.15167648799480404
11.200999999999231,0.2835921476625959,0.15718986408429153
11.40099999999912,0.28861406164025205,0.16144502757120197
11.60099999999901,0.295426099267785,0.16901661876076704
11.800999999998899,0.30187572559298465,0.17369857453631815
12.000999999998788,0.3066183772565277,0.17955053746851043
12.200999999998677,0.31147257636750386,0.18450692435570476
12.400999999998566,0.31809476032303824,0.1908776118187482
12.600999999998455,0.3226899355860462,0.19642841507025863
12.800999999998345,0.32942362393703783,0.20345309827509322
13.000999999998234,0.3332457421121845,0.21003769417351356
13.200999999998123,0.3385901187806455,0.2145305060016606
13.400999999998012,0.34195660323170873,0.21822517293758084
13.600999999997901,0.3466922707563581,0.2253337764535529
13.80099999999779,0.34884304667397986,0.22960395367261582
14.00099999999768,0.3533729785220504,0.23590614337952023
14.200999999997569,0.35648903659827014,0.2424848194908433
14.400999999997458,0.36083969033374313,0.24669620934207048
14.600999999997347,0.36424282661463137,0.2525614484343971
14.800999999997236,0.36990292343255726,0.25988948383375415
15.000999999997125,0.37146746647517104,0.26340186456911086
15.200999999997014,0.3753003379863258,0.2692610283378657
15.400999999996904,0.3796715221633339,0.274853993938533
15.600999999996793,0.38387794162774425,0.2828601208732098
15.800999999996682,0.38763294824098476,0.2872187161350584
16.000999999996573,0.390562141337299,0.29364505086859916
16.200999999996817,0.3942127556697384,0.3010185306562001
16.40099999999706,0.3957464965263455,0.30455687538278775
16.600999999997306,0.39895830155053214,0.3109265591034609
16.80099999999755,0.4030004339298334,0.31545450112394563
17.000999999997795,0.40729611063247434,0.32236640085634743
17.20099999999804,0.4103672204443219,0.3272701848088735
17.400999999998284,0.41097207960384613,0.3323755428028273
17.60099999999853,0.41393068985809284,0.33859399194293616
17.800999999998773,0.41705929023414456,0.34487522340672205
18.000999999999017,0.4205004660205214,0.35257009286462276
18.20099999999926,0.4228955747225458,0.357157235597984
18.400999999999506,0.42357093681673536,0.3617664345136141
18.60099999999975,0.426976911980024,0.36797544378693203
18.799999999999994,0.42978473393489763,0.3757460943823686
19.000000000000238,0.43222984869743336,0.38189551962415796
19.200000000000482,0.43504262443603614,0.38784318537001866
19.400000000000727,0.4359097917432784,0.3915500842858558
19.60000000000097,0.43979364729215603,0.3967530170805454
19.800000000001216,0.4431862651116646,0.40219837853926554
20.00000000000146,0.4460914300971805,0.4074326244164544
