Time (s),X (m),Y (m)
0.001,-0.0007144750753253542,-0.00043579054991000363
0.20000000000000015,0.0044067835121599395,0.0014417696316067349
0.4000000000000003,0.0008845636248508669,-0.00016808349523325056
0.6000000000000004,0.0033076543555291935,-0.000600328461028706
0.8000000000000006,0.005717263421985243,0.0014657209807885203
1.0000000000000007,0.0258256070843283,0.007904373366273115
1.2009999999999785,0.044226354589165066,0.02038583550062523
1.4009999999999565,0.07034886767921113,0.029716875275758677
1.6009999999999345,0.07875769651017907,0.03355199889044463
1.8009999999999124,0.08047054217467002,0.03202313725204482
2.0009999999998906,0.07872563729941456,0.028336051415313892
2.2009999999998686,0.08699081773301505,0.02806473787409931
2.4009999999998466,0.10416425180524279,0.02514400318046838
2.6009999999998246,0.12607248150278783,0.02037333083253575
2.8009999999998025,0.14162041706266923,0.012262798557545732
3.0009999999997805,0.15416448048442638,0.0014763833429258114
3.2009999999997585,0.17192054315710437,-0.013481954658463266
3.4009999999997365,0.1923580636345301,-0.028477971351967037
3.6009999999997144,0.21125309407597817,-0.03328856820744905
3.8009999999996924,0.23688597129218047,-0.039853421923535665
4.000999999999671,0.26525319992793356,-0.045777267270922156
4.200999999999738,0.27784807435377246,-0.04575431942957438
4.400999999999804,0.2991164073316369,-0.04806052807994109
4.600999999999871,0.335705480897824,-0.05835158936737282
4.800999999999938,0.3619255685095032,-0.06911609728475035
5.000000000000004,0.38012212758029285,-0.07751695438663793
5.200000000000071,0.40151950652854296,-0.08646271656555454
5.400000000000138,0.4332306212047745,-0.10074420444329064
5.600000000000205,0.4561918266911336,-0.11649341543240672
5.800000000000272,0.48328791536915405,-0.13386612985208857
6.000000000000338,0.5102673115635324,-0.1462624237945604
6.200000000000405,0.5308719184058185,-0.15568416973275495
6.400000000000472,0.5573764805052933,-0.16725109652585707
6.600000000000539,0.5890821201535893,-0.18248215085216377
6.800000000000606,0.618459293788495,-0.19768267949893367
7.000000000000672,0.6272595938499362,-0.21200466806994026
7.200000000000739,0.6405350169228838,-0.2322226749155856
7.400000000000806,0.6640066406105793,-0.2510682340790212
7.600000000000873,0.6924165609949036,-0.2654375771337423
7.8000000000009395,0.7327171825509442,-0.2819591739237677
8.000000000001005,0.765984952553479,-0.3004295144080143
8.200000000000895,0.7989209347691867,-0.3200246911291306
8.400000000000784,0.8364644314823998,-0.3367173940158297
8.600000000000673,0.8551337599675857,-0.35097685329125683
8.800000000000562,0.8716569890125836,-0.361590305600344
9.000000000000451,0.8859139196244359,-0.37258726714746704
9.20000000000034,0.9159406084667954,-0.37843917171405583
9.40000000000023,0.9464589335817215,-0.3905431320566064
9.600000000000119,0.9726466159324586,-0.4039187803428985
9.800000000000008,0.9967616402830878,-0.41244103060984344
10.000999999999896,1.0152342235460001,-0.4219073418342806
10.200999999999786,1.02981589514115,-0.43452231459459284
10.400999999999675,1.052810922515734,-0.44890928996652596
10.600999999999564,1.0782101199128493,-0.4616379900951514
10.800999999999453,1.1074051212237779,-0.47114595374107904
11.000999999999342,1.1281835777828373,-0.484422621681341
11.200999999999231,1.1459766587663385,-0.5048898635354687
11.40099999999912,1.1649865002887472,-0.5231564940960823
11.60099999999901,1.1868215205127612,-0.5443485102369487
11.800999999998899,1.2102805966766819,-0.5648923161834947
12.000999999998788,1.237118592691981,-0.5755195525311508
12.200999999998677,1.2715086973700207,-0.5854874141496356
12.400999999998566,1.3005664264577088,-0.5922300167980485
12.600999999998455,1.3324852003591825,-0.5995172694989644
12.800999999998345,1.34993412787721,-0.6109690167028787
13.000999999998234,1.3629512498099023,-0.6148199097374195
13.200999999998123,1.3911406680951657,-0.614325734645521
13.400999999998012,1.4372221238218363,-0.6172191196595835
13.600999999997901,1.4716593065198211,-0.6179081653848773
13.80099999999779,1.5132089253902459,-0.6168917774358207
14.00099999999768,1.5578881971357132,-0.6220705162965484
14.200999999997569,1.601876052788793,-0.6319750887693342
14.400999999997458,1.6316551184126902,-0.6431249174066602
14.600999999997347,1.6653239810250455,-0.6518843194024734
14.800999999997236,1.6862118579815792,-0.6627336884775035
15.000999999997125,1.6991879402921628,-0.6736892662995
15.200999999997014,1.7151540499775764,-0.6861021296873787
15.400999999996904,1.7303217822744332,-0.7001277859386704
15.600999999996793,1.7710389416537882,-0.712183025953083
15.800999999996682,1.810465325114995,-0.7257091392470609
16.000999999996573,1.8429668048340815,-0.7391657316312185
16.200999999996817,1.8820193234266036,-0.7480252504832657
16.40099999999706,1.9060584830590916,-0.761117283857806
16.600999999997306,1.9292584153904637,-0.7739178102577804
16.80099999999755,1.9636754250672313,-0.786094334718833
17.000999999997795,2.0036280341802084,-0.7993689806786202
17.20099999999804,2.0381588187006274,-0.8123463630631568
17.400999999998284,2.0614565269370653,-0.8305473349497421
17.60099999999853,2.0901447359311107,-0.8459113399076498
17.800999999998773,2.129001663974365,-0.8594930662560868
18.000999999999017,2.159195641759179,-0.8714167742308866
18.20099999999926,2.1876534679321002,-0.8821509055734915
18.400999999999506,2.2198905487694702,-0.8955998822673471
18.60099999999975,2.253789234178085,-0.9143142771324309
18.799999999999994,2.2844195603594732,-0.9341669701831284
19.000000000000238,2.3137445699372563,-0.9520284065748073
19.200000000000482,2.3400082219368366,-0.9637325069990148
19.400000000000727,2.3665736925027607,-0.9707696188610594
19.60000000000097,2.3833511715602813,-0.9774220012764444
19.800000000001216,2.4080610352160616,-0.9882848354778275
20.00000000000146,2.430583736536778,-1.0025505110260438
