Time (s),X (m),Y (m)
0.001,-0.00021570977506068912,0.0009345558501746678
0.20000000000000015,0.0023838610564691546,-0.0029497012847994547
0.4000000000000003,0.009826928594952582,-0.008597596767175997
0.6000000000000004,0.014015511758933763,-0.005404673558543096
0.8000000000000006,0.02325170272142175,-0.005801817983423569
1.0000000000000007,0.037950066469917054,-0.014763735592262439
1.2009999999999785,0.0499607010835953,-0.024116605300264344
1.4009999999999565,0.06520450082587712,-0.024885838295171638
1.6009999999999345,0.07900462011552342,-0.016050678644234283
1.8009999999999124,0.0977307351397844,-0.02083382574511931
2.0009999999998906,0.10775101319855772,-0.029278798359425
2.2009999999998686,0.12141055438625727,-0.028357513577104813
2.4009999999998466,0.1347122708617542,-0.03864625078279508
2.6009999999998246,0.15468892723985764,-0.032960011309752235
2.8009999999998025,0.17658419427196712,-0.03739427792702914
3.0009999999997805,0.19755647215743327,-0.03545610289169556
3.2009999999997585,0.21220656662825305,-0.0422481040622809
3.4009999999997365,0.22848329232955875,-0.0657924082107874
3.6009999999997144,0.241288038882059,-0.08269925776529045
3.8009999999996924,0.25655812911444725,-0.0951460828358956
4.000999999999671,0.2782937917252876,-0.10843123029207219
4.200999999999738,0.2957360333485525,-0.12176988801869414
4.400999999999804,0.3209472220266977,-0.13035308520956135
4.600999999999871,0.34557141036064326,-0.14374371489114104
4.800999999999938,0.36315366613008093,-0.15900872006059946
5.000000000000004,0.38087608060795386,-0.1711572306996141
5.200000000000071,0.3972195719584459,-0.18502302000994977
5.400000000000138,0.4067795700609335,-0.20133882261947403
5.600000000000205,0.4236074229133631,-0.21289527657218962
5.800000000000272,0.4384615087420509,-0.22883524015142084
6.000000000000338,0.44845865874040813,-0.25145240233016425
6.200000000000405,0.46238006364108536,-0.2707958832486196
6.400000000000472,0.48306765562512144,-0.28647060093548943
6.600000000000539,0.49969470152157197,-0.30039325318812776
6.800000000000606,0.5078035983428132,-0.32017508355424584
7.000000000000672,0.5175120223222972,-0.33985780370312707
7.200000000000739,0.5263848834099534,-0.3470718286518849
7.400000000000806,0.535967185194055,-0.3575537797244484
7.600000000000873,0.553767561867398,-0.3664303620123164
7.8000000000009395,0.5624823003473275,-0.3815070111090464
8.000000000001005,0.5706656885919572,-0.4030268111258193
8.200000000000895,0.5762067757575514,-0.427000719755001
8.400000000000784,0.590992422203562,-0.4305841904863737
8.600000000000673,0.6019215395590958,-0.44756606803285043
8.800000000000562,0.6057602088698474,-0.46825252972012443
9.000000000000451,0.6105507837406222,-0.4856028761768718
9.20000000000034,0.6139074523035373,-0.509451940078263
9.40000000000023,0.6240685474897993,-0.5258749098747441
9.600000000000119,0.6276411178852579,-0.5521283583763367
9.800000000000008,0.6412042569770477,-0.577334593902968
10.000999999999896,0.6503966260303695,-0.5986634787382525
10.200999999999786,0.6564900464146514,-0.6254825622349439
10.400999999999675,0.6643651313791384,-0.647998147878631
10.600999999999564,0.6719969875511379,-0.6671714915554128
10.800999999999453,0.6689370597202202,-0.6933329251840155
11.000999999999342,0.6726653633407346,-0.7060880158269703
11.200999999999231,0.683938100609599,-0.7220641526463901
11.40099999999912,0.6906547978176022,-0.7487933783637923
11.60099999999901,0.7018518058158593,-0.7660021947664497
11.800999999998899,0.7104599506709435,-0.7864679137099172
12.000999999998788,0.7274951238062827,-0.798562783934087
12.200999999998677,0.7412289645927026,-0.8168356295376152
12.400999999998566,0.7541759167786163,-0.8341933684332237
12.600999999998455,0.7749403482895089,-0.8414941882798008
12.800999999998345,0.7990639096528799,-0.8452277066032607
13.000999999998234,0.8213268325477099,-0.8537032854880975
13.200999999998123,0.8423208100008869,-0.8707618436866835
13.400999999998012,0.855513904539903,-0.8896292383624208
13.600999999997901,0.8690736946102205,-0.9125419264772147
13.80099999999779,0.8820019547014002,-0.9341844144844513
14.00099999999768,0.8968172474663592,-0.9467531657555179
14.200999999997569,0.889363188076707,-0.9727326980035363
14.400999999997458,0.8919007037723884,-0.9993033948724858
14.600999999997347,0.8998904539112885,-1.0186792137975338
14.800999999997236,0.9084054220874496,-1.0411844066025744
15.000999999997125,0.9146039115712362,-1.0694835509102267
15.200999999997014,0.9267498645777922,-1.0920507649620033
15.400999999996904,0.9298723823844537,-1.1185975793815206
15.600999999996793,0.9297623963841872,-1.1511543393644774
15.800999999996682,0.9400658940677656,-1.1732435910325416
16.000999999996573,0.9496198296049465,-1.195591470859291
16.200999999996817,0.955306387677058,-1.2216114528392708
16.40099999999706,0.9634962130242977,-1.2423823266642537
16.600999999997306,0.9700319733157263,-1.2595575120099407
16.80099999999755,0.9905648761352167,-1.2757362424947887
17.000999999997795,1.009227743523968,-1.291261055215988
17.20099999999804,1.0281693643341963,-1.303279704189614
17.400999999998284,1.0374720839003675,-1.3276913363263219
17.60099999999853,1.0494598641910384,-1.3450002304897548
17.800999999998773,1.0591646827918175,-1.3595611913808134
18.000999999999017,1.0678965331109844,-1.3884564973407958
18.20099999999926,1.080402481249832,-1.4182065501122492
18.400999999999506,1.0919199870540102,-1.439934853654648
18.60099999999975,1.0967560911425969,-1.4560360491648565
18.799999999999994,1.104014621259982,-1.4731322831005358
19.000000000000238,1.1090412964230183,-1.4988567342036956
19.200000000000482,1.1184792699436192,-1.5255491267383274
19.400000000000727,1.1340241118046521,-1.5465653584259835
19.60000000000097,1.1416994101056657,-1.5726697539233345
19.800000000001216,1.1487129950505874,-1.6001281246177672
20.00000000000146,1.1425981679388817,-1.6251442655084245
