Time (s),X (m),Y (m)
0.001,0.0006558713247593165,-0.0009345558501746678
0.20000000000000015,0.001220903240479129,0.001571347430337226
0.4000000000000003,0.002951100760270992,0.0018980024320066943
0.6000000000000004,0.004914960771207253,0.0012136656158452349
0.8000000000000006,0.006541997719448224,0.0006095208919347424
1.0000000000000007,0.007919902216053215,0.0026603048215520808
1.2009999999999785,0.009459039629777097,0.002909083659118907
1.4009999999999565,0.01087460235725238,0.0024147788878170246
1.6009999999999345,0.012133379216623181,0.0019033402340155757
1.8009999999999124,0.013622904131132872,0.0009889188114828957
2.0009999999998906,0.014749815585700238,-0.00020552412316426116
2.2009999999998686,0.015907647804588265,-0.00075544999459475
2.4009999999998466,0.01710902462731487,-0.00121510833153659
2.6009999999998246,0.01862523214787236,-0.0015991422716852316
2.8009999999998025,0.019793434230508004,-0.0014004920102904668
3.0009999999997805,0.020744879484708566,-0.0019635949567734373
3.2009999999997585,0.022248403361858817,-0.002704927988194089
3.4009999999997365,0.02329169689647613,-0.002965909536050784
3.6009999999997144,0.025187756880285565,-0.0039984704119945995
3.8009999999996924,0.026838853473821686,-0.0039249183289370776
4.000999999999671,0.028244448209007122,-0.004030370189006277
4.200999999999738,0.029290666346492345,-0.004485062958283623
4.400999999999804,0.031236424466745773,-0.0040016801841413225
4.600999999999871,0.03376909360647035,-0.003817758714916431
4.800999999999938,0.036599994237765804,-0.0037249893375467095
5.000000000000004,0.0399540714646838,-0.0029781200405526185
5.200000000000071,0.041271677366720924,-0.0029298583197526324
5.400000000000138,0.04470014736682451,-0.0020878215888830917
5.600000000000205,0.04621558977740862,-0.0021379804258072985
5.800000000000272,0.04847490432150724,-0.0006086210497610734
6.000000000000338,0.05180464330063421,0.0001427062289580082
6.200000000000405,0.05208978574295457,0.0006721062232916434
6.400000000000472,0.05497707198749684,0.002215088126804106
6.600000000000539,0.055641922143417906,0.0026288313964185255
6.800000000000606,0.05680063978259754,0.0032422249891366117
7.000000000000672,0.05894316769796899,0.004808489814736091
7.200000000000739,0.0621319795794899,0.006913131588447033
7.400000000000806,0.06474218543299771,0.009150248697552129
7.600000000000873,0.06759043293137004,0.01123536325425163
7.8000000000009395,0.06997814008261809,0.013379582601761749
8.000000000001005,0.07141576173407353,0.014565868732640737
8.200000000000895,0.07220206800007505,0.015898702608174116
8.400000000000784,0.07340665164559114,0.017059834566020445
8.600000000000673,0.07399838601400942,0.018026793191893622
8.800000000000562,0.07511880709513134,0.01917837251993294
9.000000000000451,0.07563859490564181,0.020288275642405137
9.20000000000034,0.07586261990583848,0.02146332929921738
9.40000000000023,0.07587338134519142,0.022874257862383795
9.600000000000119,0.07585202582153687,0.02440714477826218
9.800000000000008,0.07610847744941451,0.026255958158713243
10.000999999999896,0.07681258083934979,0.028140653539326613
10.200999999999786,0.07606363217126143,0.029039010509439613
10.400999999999675,0.07525694036052974,0.03108380496250359
10.600999999999564,0.07473467320909594,0.033136506514825144
10.800999999999453,0.07503273024444648,0.034905929145279485
11.000999999999342,0.07358306930980561,0.036878684952689575
11.200999999999231,0.072203711973519,0.03905234368821294
11.40099999999912,0.07169268906096721,0.0428660963507851
11.60099999999901,0.07171135466108677,0.045578964262950376
11.800999999998899,0.0722257880055732,0.04755184297815499
12.000999999998788,0.07130780848414256,0.05139033723255597
12.200999999998677,0.07024135751711454,0.05535090021154255
12.400999999998566,0.06929164029946011,0.05912654010606001
12.600999999998455,0.06780839017859881,0.06284301616355523
12.800999999998345,0.06627298271880187,0.06684314140555045
13.000999999998234,0.06461810037245895,0.07049819649703438
13.200999999998123,0.0627356757104362,0.07417700701715202
13.400999999998012,0.060669164126068105,0.07759541544130204
13.600999999997901,0.05860690967710498,0.08094586565185193
13.80099999999779,0.05656309753991833,0.08408409915278484
14.00099999999768,0.054331519161947193,0.08734623892578523
14.200999999997569,0.052070415252433146,0.09035592660961872
14.400999999997458,0.05015544210275142,0.09293122342711396
14.600999999997347,0.047894561263788535,0.09548193905848719
14.800999999997236,0.04568887580959841,0.09809940471196929
15.000999999997125,0.04378608451278171,0.10021797443920784
15.200999999997014,0.042602919079169764,0.10087976897520107
15.400999999996904,0.04117655944605985,0.10084605997518466
15.600999999996793,0.039977194583253696,0.10098602650605608
15.800999999996682,0.03850013422652384,0.1010755566994483
16.000999999996573,0.0371567945727254,0.10127424677890969
16.200999999996817,0.03555166623516002,0.10126428094442287
16.40099999999706,0.03336045742653335,0.10086505267593354
16.600999999997306,0.03178822945190824,0.10059532738937481
16.80099999999755,0.029816883630418393,0.09936076922360294
17.000999999997795,0.027576832190780984,0.09777568945615117
17.20099999999804,0.02538192755732879,0.0970002008716098
17.400999999998284,0.023700661902742382,0.09598384793127784
17.60099999999853,0.0215311831554268,0.09505415977233042
17.800999999998773,0.018277158285723866,0.09503622335054887
18.000999999999017,0.016317400995823243,0.09579313144091828
18.20099999999926,0.014959787165571085,0.09612657424036769
18.400999999999506,0.012379688310679725,0.09594734606466257
18.60099999999975,0.01017523369330472,0.09538259637442618
18.799999999999994,0.0076384254562394645,0.09322162998350095
19.000000000000238,0.005352851680391843,0.09255936616827577
19.200000000000482,0.0020352633102858533,0.09141568905168208
19.400000000000727,-0.00037691675702869237,0.09118741735554468
19.60000000000097,-0.002527210485814816,0.09083454814218307
19.800000000001216,-0.004077868678111003,0.09071584532749201
20.00000000000146,-0.006118967577634939,0.08925416939173021
