Time (s),X (m),Y (m)
0.001,-0.0005090653149319316,-0.0007291460897812452
0.20000000000000015,0.003598604605274766,0.002634434481783273
0.4000000000000003,0.005011718968383059,0.0027335593611098356
0.6000000000000004,0.00497478373953703,0.0031030851029199094
0.8000000000000006,0.008496878014285184,0.0032147000555719407
1.0000000000000007,0.013529770262367057,0.007130798062600097
1.2009999999999785,0.018401223179055418,0.008998536139201077
1.4009999999999565,0.022243045318235257,0.010414778182325142
1.6009999999999345,0.026979085534240534,0.012247544839197317
1.8009999999999124,0.03067605970647708,0.013713923244016754
2.0009999999998906,0.03613831028859916,0.017375061106659265
2.2009999999998686,0.041096560917293606,0.0210479475460233
2.4009999999998466,0.045737659409471595,0.023498224461943978
2.6009999999998246,0.050329303722516996,0.026624405912214107
2.8009999999998025,0.0559029166659128,0.031309861128689116
3.0009999999997805,0.060088156575437354,0.034098803804636785
3.2009999999997585,0.06513919712928268,0.03921345970860941
3.4009999999997365,0.06969300302163119,0.04420475923332516
3.6009999999997144,0.07371671915060654,0.04907017275930689
3.8009999999996924,0.07796914067520458,0.054614300140392404
4.000999999999671,0.08295507906050914,0.059055587830298295
4.200999999999738,0.08785341274313467,0.06494047068392082
4.400999999999804,0.09180056315107533,0.06924232037779449
4.600999999999871,0.09611482684379805,0.07429842071334085
4.800999999999938,0.10003396525701176,0.07940289358815984
5.000000000000004,0.10323303587108314,0.08408760897361535
5.200000000000071,0.10634599347604809,0.08912010943738399
5.400000000000138,0.10912970937982043,0.09543522346438717
5.600000000000205,0.1112145203070176,0.09994935052715193
5.800000000000272,0.11252484676209237,0.10569780809680686
6.000000000000338,0.11334232350106789,0.11198517618128682
6.200000000000405,0.11476622862498478,0.11925290173164971
6.400000000000472,0.11592693158983455,0.12570152994412448
6.600000000000539,0.11615779557788238,0.13251517166669835
6.800000000000606,0.11575431950510487,0.14005661591591798
7.000000000000672,0.11514925822864261,0.1466322613891053
7.200000000000739,0.11397292762092531,0.15425715254176983
7.400000000000806,0.11292278010489698,0.1608083759943566
7.600000000000873,0.11096623160283597,0.1683908294401695
7.8000000000009395,0.10924875178381954,0.17562371551826658
8.000000000001005,0.10737443248283449,0.18236879306326642
8.200000000000895,0.10474392011120566,0.18886563310644158
8.400000000000784,0.10137742252363456,0.19662978433728895
8.600000000000673,0.09823013457774778,0.20411365030660164
8.800000000000562,0.09461891494806406,0.21138673508185865
9.000000000000451,0.09146043734694853,0.2184813630008138
9.20000000000034,0.08864052434625892,0.22485386482714287
9.40000000000023,0.08404178104157232,0.2324513398133901
9.600000000000119,0.07892354811612444,0.23953553340507575
9.800000000000008,0.07569842371603318,0.24513086188770483
10.000999999999896,0.0699243769278096,0.25278662608490077
10.200999999999786,0.06572251488738493,0.25912623601907575
10.400999999999675,0.060762591047119334,0.2652711513399797
10.600999999999564,0.05459392240011466,0.27183779338602715
10.800999999999453,0.04982243963888156,0.278257619101
11.000999999999342,0.042690008476294124,0.28486465989526677
11.200999999999231,0.03729278394385293,0.2899307074811531
11.40099999999912,0.031306645173280044,0.29558872325208524
11.60099999999901,0.025571732465816135,0.3003571947695548
11.800999999998899,0.018828361124480913,0.3050950357450094
12.000999999998788,0.012393526974767448,0.309108735695288
12.200999999998677,0.006122103389930705,0.31292471752901924
12.400999999998566,-7.570196799520928e-05,0.31616401598083915
12.600999999998455,-0.006676389663722415,0.3186618247080391
12.800999999998345,-0.012913991972881667,0.3212606507272986
13.000999999998234,-0.019694642977721034,0.3231850525398238
13.200999999998123,-0.025976944195482885,0.324799861945721
13.400999999998012,-0.03241714563051715,0.3259746149036507
13.600999999997901,-0.039307560384933465,0.3260697591068393
13.80099999999779,-0.04608247089531608,0.32644138448145715
14.00099999999768,-0.053064139188284426,0.3258383608146287
14.200999999997569,-0.05999541317585907,0.32577887477045486
14.400999999997458,-0.06830678218438427,0.3239915893466988
14.600999999997347,-0.07686298065909113,0.32244249878468645
14.800999999997236,-0.08549501757216861,0.32036272004411165
15.000999999997125,-0.09232595855627311,0.3191064799529287
15.200999999997014,-0.10030454522529618,0.31677707870620186
15.400999999996904,-0.10811558421266806,0.3133375572202515
15.600999999996793,-0.11629246534246773,0.309634835291063
15.800999999996682,-0.12501011036208537,0.3050745910234804
16.000999999996573,-0.13286173388980166,0.3010672517837204
16.200999999996817,-0.13932602997560337,0.2987466284527538
16.40099999999706,-0.1479045344428707,0.29405184164607767
16.600999999997306,-0.1550749374453524,0.28961572272595726
16.80099999999755,-0.16221658373761808,0.28500400745330806
17.000999999997795,-0.16902319666807772,0.2807009113614028
17.20099999999804,-0.17665006455433585,0.27472065628380815
17.400999999998284,-0.18391235951405352,0.26894605435779256
17.60099999999853,-0.19084684098732327,0.2621246003797981
17.800999999998773,-0.19695304108893558,0.2558197101373671
18.000999999999017,-0.2023689828619897,0.2506923305115457
18.20099999999926,-0.2082161317197268,0.24459194637333256
18.400999999999506,-0.21338188479052905,0.2391174177890006
18.60099999999975,-0.21863889927783667,0.2332680471655146
18.799999999999994,-0.22316105674769243,0.22616747373722162
19.000000000000238,-0.22721578388602218,0.21993516619351888
19.200000000000482,-0.2305249410896341,0.2133167062834521
19.400000000000727,-0.23375270631636433,0.20641073356048112
19.60000000000097,-0.23595770050070342,0.20085039770020985
19.800000000001216,-0.23755511513937805,0.19461196167301142
20.00000000000146,-0.23912960025733546,0.1880460666603181
