Time (s),X (m),Y (m)
0.001,-0.0007489004572251305,-0.00035268032603768894
0.20000000000000015,0.008355490563800238,0.002354198100645116
0.4000000000000003,0.015751306216049137,0.0037282748314106688
0.6000000000000004,0.025749884676772455,0.007759775861104809
0.8000000000000006,0.03525766758621294,0.015435037877159408
1.0000000000000007,0.049188900144971945,0.025819858856038463
1.2009999999999785,0.06026108435245295,0.03139566158600113
1.4009999999999565,0.08876575150870683,0.03264299713036316
1.6009999999999345,0.11793604881806682,0.02325608385998548
1.8009999999999124,0.13809607200426327,0.011716695866992565
2.0009999999998906,0.1600255983419078,0.004198244714273377
2.2009999999998686,0.17476264372836336,-0.005245010158781657
2.4009999999998466,0.20273571108395086,-0.026223389585534763
2.6009999999998246,0.2313287569194697,-0.051679551611137305
2.8009999999998025,0.24958651637319712,-0.06861765506738358
3.0009999999997805,0.2696320529535415,-0.09031132544878218
3.2009999999997585,0.29630508394320065,-0.12203641764325311
3.4009999999997365,0.31832261086534513,-0.1541226725372636
3.6009999999997144,0.33381357563769076,-0.1989563615079994
3.8009999999996924,0.3414379744087553,-0.2327442776604299
4.000999999999671,0.3386394517261894,-0.26558578670861827
4.200999999999738,0.32095659587428493,-0.3011225052841166
4.400999999999804,0.2982924040527395,-0.3293353698047693
4.600999999999871,0.27329655899899974,-0.35462879749227444
4.800999999999938,0.24796344409334464,-0.369894932323198
5.000000000000004,0.21765006223757075,-0.39914691184748624
5.200000000000071,0.18522240879477397,-0.4300874883423042
5.400000000000138,0.14978459432610502,-0.47506171323797286
5.600000000000205,0.11125110580696487,-0.528361418311821
5.800000000000272,0.07424799966717283,-0.5755258095102302
6.000000000000338,0.04044740773597249,-0.6174422392041923
6.200000000000405,0.008981525615297676,-0.6555104915553935
6.400000000000472,-0.028116599282465154,-0.7024040415385022
6.600000000000539,-0.0706813300544804,-0.7530902268268508
6.800000000000606,-0.10687953192810372,-0.8028315668458192
7.000000000000672,-0.14364640513381852,-0.8654097021366347
7.200000000000739,-0.1786705767452736,-0.925319119025906
7.400000000000806,-0.2156542233146199,-0.9733964947902594
7.600000000000873,-0.25745999658249186,-1.0226302746642848
7.8000000000009395,-0.3025115579293129,-1.0801432203398773
8.000000000001005,-0.35039213289527216,-1.1393955322027904
8.200000000000895,-0.40064056145591037,-1.198769188532949
8.400000000000784,-0.45485284456595354,-1.2588760986336927
8.600000000000673,-0.5126322551557312,-1.3209552812131053
8.800000000000562,-0.5678082072727205,-1.3793769420696496
9.000000000000451,-0.6163711112628434,-1.4308055262992805
9.20000000000034,-0.6582410759423872,-1.4760886868664225
9.40000000000023,-0.70269913217798,-1.5234069592230122
9.600000000000119,-0.7537443341128696,-1.5731065342160135
9.800000000000008,-0.8039976035989772,-1.6324001993448127
10.000999999999896,-0.8611166193624388,-1.6988346302226704
10.200999999999786,-0.9153662794395933,-1.7656764045377833
10.400999999999675,-0.9715485133959538,-1.8346418226168097
10.600999999999564,-1.0281583452726446,-1.8961485709371664
10.800999999999453,-1.086643831728301,-1.9571103577284434
11.000999999999342,-1.1442143244615253,-2.0144105911419383
11.200999999999231,-1.2061799540199765,-2.0687589440643976
11.40099999999912,-1.2516617862420578,-2.11096317990445
11.60099999999901,-1.2863514125051643,-2.1434217910777873
11.800999999998899,-1.3231489184387513,-2.1610489880868378
12.000999999998788,-1.3840231249502166,-2.167344109274578
12.200999999998677,-1.4494988748579467,-2.1626226957397705
12.400999999998566,-1.504673384918188,-2.1462029189689726
12.600999999998455,-1.5578467063820098,-2.1193871927421397
12.800999999998345,-1.6120838107585247,-2.0939868754428623
13.000999999998234,-1.6685375457720126,-2.06302675394524
13.200999999998123,-1.716798949618615,-2.0280948702015227
13.400999999998012,-1.7646939205221845,-1.975301043075407
13.600999999997901,-1.8048535956581613,-1.917737962294381
13.80099999999779,-1.8284910931113036,-1.8737643213286133
14.00099999999768,-1.8297583393011112,-1.8464137199404334
14.200999999997569,-1.8178990868549925,-1.8176606083791336
14.400999999997458,-1.804273621205256,-1.7916050165675124
14.600999999997347,-1.7917310986392414,-1.7628822319523487
14.800999999997236,-1.7802439516984028,-1.720089747958789
15.000999999997125,-1.7679481549636116,-1.670560386478444
15.200999999997014,-1.7612889581451514,-1.6224695484462437
15.400999999996904,-1.7446540128055534,-1.592888351262191
15.600999999996793,-1.720213233002044,-1.5600390052782596
15.800999999996682,-1.689579083766863,-1.5157904180059385
16.000999999996573,-1.6561282652348395,-1.4662744688564908
16.200999999996817,-1.614964414095761,-1.4120872152288597
16.40099999999706,-1.566884925097426,-1.3508325080881605
16.600999999997306,-1.5174792032079611,-1.2884571192857417
16.80099999999755,-1.466781649451581,-1.2219448618878972
17.000999999997795,-1.4115047693917129,-1.1563160580644216
17.20099999999804,-1.3561490094576565,-1.0947287014498772
17.400999999998284,-1.3040598070365583,-1.033825453744576
17.60099999999853,-1.2550556301026723,-0.9747350296461282
17.800999999998773,-1.1984666402403803,-0.9065167577061924
18.000999999999017,-1.148459477630227,-0.8497520916362931
18.20099999999926,-1.1023146859571895,-0.7992165451324584
18.400999999999506,-1.0533473146363486,-0.7427591123525965
18.60099999999975,-1.0004652917268824,-0.6822034515043781
18.799999999999994,-0.9442529064100903,-0.6178615554911978
19.000000000000238,-0.8839901426612267,-0.5488242254525535
19.200000000000482,-0.8196436818840507,-0.476870421699364
19.400000000000727,-0.7504773517360968,-0.4035401244386221
19.60000000000097,-0.674981362050727,-0.3293185147988646
19.800000000001216,-0.6019369396154576,-0.2577014546581879
20.00000000000146,-0.5322352064708984,-0.1949261866688509
