Time (s),X (m),Y (m)
0.001,0.0003099530129853942,-0.0010272443824616275
0.20000000000000015,0.002047377493408349,0.0006023180236310178
0.4000000000000003,0.013593926454714371,0.004897416931509808
0.6000000000000004,0.03416439958745175,0.0021754278125756515
0.8000000000000006,0.0634374321523055,-0.013567503256835287
1.0000000000000007,0.09362153297432103,-0.048098739482131725
1.2009999999999785,0.1291432736648989,-0.09280812085436944
1.4009999999999565,0.16851199551731189,-0.14560101842058043
1.6009999999999345,0.20442884917384221,-0.20997759928276005
1.8009999999999124,0.24592676259442686,-0.27729406281153035
2.0009999999998906,0.2761331045068627,-0.34457624976701134
2.2009999999998686,0.2979122635846615,-0.413021931805183
2.4009999999998466,0.30235452947068076,-0.4917599950896366
2.6009999999998246,0.28558677373647656,-0.5717833382778797
2.8009999999998025,0.25683661328357865,-0.6157257832227486
3.0009999999997805,0.2183099458868584,-0.6162227476707313
3.2009999999997585,0.16920270821117747,-0.597682056591365
3.4009999999997365,0.10292496100013743,-0.5678718456193369
3.6009999999997144,0.06362953045237735,-0.5251842348057544
3.8009999999996924,0.055232461976076855,-0.48145571468699133
4.000999999999671,0.07032145941222354,-0.45900208096817496
4.200999999999738,0.10094666359392263,-0.4614352243431537
4.400999999999804,0.1375993628500434,-0.4880036522657997
4.600999999999871,0.17771624850314527,-0.5315505879954029
4.800999999999938,0.2047813944154441,-0.5857570036636103
5.000000000000004,0.2043048967323166,-0.635475712203205
5.200000000000071,0.18527857616766488,-0.6335015355555882
5.400000000000138,0.13777619821425052,-0.6254839826952346
5.600000000000205,0.06919678929283486,-0.6369903475946148
5.800000000000272,-0.011298813964777738,-0.6465837138473165
6.000000000000338,-0.09881391056093418,-0.6502268862645516
6.200000000000405,-0.16183860163489203,-0.6445497180728842
6.400000000000472,-0.18281876806281494,-0.6171458429566464
6.600000000000539,-0.182292604873691,-0.57349992220949
6.800000000000606,-0.17494014498302507,-0.5158137411585675
7.000000000000672,-0.15138315308806125,-0.4515192877248916
7.200000000000739,-0.12218224528572078,-0.3827682188984944
7.400000000000806,-0.08334068789879243,-0.31026768373974856
7.600000000000873,-0.0399180417259188,-0.23352911504224852
7.8000000000009395,0.011154097665555505,-0.1694564934039967
8.000000000001005,0.06880499758077749,-0.14007819145045114
8.200000000000895,0.10164374816821563,-0.13680644829856028
8.400000000000784,0.10206598602363906,-0.15846645410507554
8.600000000000673,0.08804945693592388,-0.19987570449257192
8.800000000000562,0.060401622451750486,-0.2548150998494214
9.000000000000451,0.01985868119695632,-0.30529164853807406
9.20000000000034,-0.021906010053637046,-0.31920214881394343
9.40000000000023,-0.05560295729609196,-0.3081300000168016
9.600000000000119,-0.06641823245991543,-0.2841986402700879
9.800000000000008,-0.05452668753999805,-0.27402171986871926
10.000999999999896,-0.0223426568514558,-0.2740364110844306
10.200999999999786,0.021258775419873303,-0.2814444771533068
10.400999999999675,0.06238274284781777,-0.30748864065603704
10.600999999999564,0.09927728881670866,-0.34854304435518113
10.800999999999453,0.11980932999409824,-0.39935458761870174
11.000999999999342,0.11720479767355602,-0.44554068409520586
11.200999999999231,0.09211641535617578,-0.4906498337142017
11.40099999999912,0.06900227416760513,-0.508232884957015
11.60099999999901,0.07786760251070317,-0.4994092743256111
11.800999999998899,0.10292769157662987,-0.4703991941117452
12.000999999998788,0.13816473848160554,-0.444420419113054
12.200999999998677,0.1854942742043284,-0.4541247706015919
12.400999999998566,0.24578724487283307,-0.4663242704414315
12.600999999998455,0.3237112885491112,-0.4793140481460514
12.800999999998345,0.4149081619199271,-0.48965065712143135
13.000999999998234,0.5175057001182116,-0.4965819493799533
13.200999999998123,0.6275305299013155,-0.5019848233650467
13.400999999998012,0.6864775782276722,-0.5212183805336886
13.600999999997901,0.7038938492656976,-0.5463135430805179
13.80099999999779,0.6913785042143131,-0.5577692421041689
14.00099999999768,0.6625320344976602,-0.5413826938245192
14.200999999997569,0.6468491651556776,-0.507451169897445
14.400999999997458,0.6260429891695762,-0.46238714874109865
14.600999999997347,0.6212171851142085,-0.4077598829276576
14.800999999997236,0.6354950418039552,-0.37565365337398704
15.000999999997125,0.6686193492524961,-0.39001555054906906
15.200999999997014,0.7158093457903635,-0.4134401274365344
15.400999999996904,0.7783214987853557,-0.43037945082022677
15.600999999996793,0.8479308408697206,-0.42383244936235887
15.800999999996682,0.916097778164789,-0.42453497466560774
16.000999999996573,0.9895974875718685,-0.4296034437043959
16.200999999996817,1.0642016169882758,-0.4444193375263873
16.40099999999706,1.1231407418493327,-0.48430201497707603
16.600999999997306,1.1436182207005916,-0.5470349718277014
16.80099999999755,1.151289917753586,-0.6209113513966424
17.000999999997795,1.1371951787250592,-0.6935997980302309
17.20099999999804,1.115802904402975,-0.7670674494452628
17.400999999998284,1.1039933334342054,-0.849181174920668
17.60099999999853,1.0824023823025397,-0.9280349309286134
17.800999999998773,1.0383526090253867,-0.9732375387580323
18.000999999999017,0.9887285305252534,-0.9830736621322506
18.20099999999926,0.9233441012439372,-0.9696903833453152
18.400999999999506,0.8721388659251256,-0.9355699331698076
18.60099999999975,0.84077321206365,-0.8957525179351014
18.799999999999994,0.8359994053014682,-0.869827619741571
19.000000000000238,0.858845669369788,-0.8711612701979615
19.200000000000482,0.8855381485814675,-0.8952822683108418
19.400000000000727,0.885244252526696,-0.9354351644433019
19.60000000000097,0.8550344238131744,-0.9571295021446168
19.800000000001216,0.8106834841673055,-0.9655004363481041
20.00000000000146,0.7546490901658877,-0.9506975999961252
