Time (s),X (m),Y (m)
0.001,0.0012473251573109415,8.987223813608099e-05
0.20000000000000015,-0.0009417955942105116,-0.0006683209028529041
0.4000000000000003,-0.004178941248427147,-0.0010187807181647917
0.6000000000000004,0.00548847301560214,-0.0010147813832215489
0.8000000000000006,0.018590856121426896,-0.0027512499349812126
1.0000000000000007,0.030455620731791238,-0.004572130076135953
1.2009999999999785,0.05056813389170827,-0.010677375633927656
1.4009999999999565,0.07577354890521416,-0.018710695403634497
1.6009999999999345,0.08400151594028421,-0.0221816924754996
1.8009999999999124,0.09530124597692195,-0.021413712335803442
2.0009999999998906,0.11517010421435347,-0.029952399644637407
2.2009999999998686,0.1349023816098208,-0.04651670370865035
2.4009999999998466,0.14737340073345276,-0.06293931490349493
2.6009999999998246,0.17094828748944726,-0.07576662698162655
2.8009999999998025,0.19820797831987175,-0.08943323195289017
3.0009999999997805,0.23135311097849626,-0.10259452693538916
3.2009999999997585,0.2760747358768907,-0.11332976845453573
3.4009999999997365,0.3200134577868347,-0.1284584429900544
3.6009999999997144,0.36536453807100033,-0.14284597812184177
3.8009999999996924,0.4086820515232275,-0.15952853597244607
4.000999999999671,0.4374385556097128,-0.1762962558256835
4.200999999999738,0.45468170517435225,-0.19535204280923635
4.400999999999804,0.4790635245367572,-0.21853692570919192
4.600999999999871,0.508477103186435,-0.23487853944055526
4.800999999999938,0.5357550012780913,-0.2520111299162585
5.000000000000004,0.5658980896138219,-0.27081688546977045
5.200000000000071,0.5788723877523797,-0.28549910678220486
5.400000000000138,0.5945119725964921,-0.2969495683434515
5.600000000000205,0.6226299678573366,-0.31106912256468
5.800000000000272,0.6701861571370215,-0.33818172003814195
6.000000000000338,0.7228221577719396,-0.3717836062205052
6.200000000000405,0.7782695688176237,-0.4046584874474365
6.400000000000472,0.8288553914406604,-0.4361649362922962
6.600000000000539,0.8779287732712915,-0.4726906798232969
6.800000000000606,0.9298018813906224,-0.5090697883706863
7.000000000000672,0.9818298645126985,-0.5389352306051741
7.200000000000739,1.0317783664703235,-0.573919426485289
7.400000000000806,1.0807041345423243,-0.5969573487942857
7.600000000000873,1.1246942069507058,-0.6249319666336343
7.8000000000009395,1.157800281712219,-0.6603115468160021
8.000000000001005,1.1702196096127988,-0.7021828241671462
8.200000000000895,1.16337433481106,-0.7439678426857335
8.400000000000784,1.1456331612356612,-0.7898056133974475
8.600000000000673,1.1259922687011379,-0.8132091615317882
8.800000000000562,1.113043036671161,-0.8404249039667978
9.000000000000451,1.0954719297809752,-0.859447336020894
9.20000000000034,1.0763606373800767,-0.8720513854260766
9.40000000000023,1.0575521036169264,-0.9091033894936765
9.600000000000119,1.038952883062768,-0.9416258556843813
9.800000000000008,1.0175676812198449,-0.9922172672987333
10.000999999999896,1.0004010121409286,-1.02213824654091
10.200999999999786,0.9790995433061122,-1.0749571314849375
10.400999999999675,0.9545799575117703,-1.1146918902330918
10.600999999999564,0.9365280877192106,-1.1570591936940162
10.800999999999453,0.9224718330757986,-1.1999578300836462
11.000999999999342,0.913171402333323,-1.231526391929047
11.200999999999231,0.8941283220736228,-1.2761736377546318
11.40099999999912,0.8741235499699275,-1.3302090630470689
11.60099999999901,0.8577727292951799,-1.3811570691103616
11.800999999998899,0.8384791973277055,-1.4308272100039974
12.000999999998788,0.8160309651658975,-1.4820048427108283
12.200999999998677,0.7825845907142869,-1.5463187928898026
12.400999999998566,0.7425967255256332,-1.6077117740249707
12.600999999998455,0.6988448202432036,-1.67197456034452
12.800999999998345,0.656063712989673,-1.7291107120628866
13.000999999998234,0.6040207156533413,-1.7737460355725154
13.200999999998123,0.5470871630530769,-1.7885311108143032
13.400999999998012,0.4978486446822548,-1.7796347878422667
13.600999999997901,0.4506202715489722,-1.757667345741413
13.80099999999779,0.4038571560236122,-1.7278610567419581
14.00099999999768,0.36259844961650106,-1.6998514109774805
14.200999999997569,0.31869573215545755,-1.6696777667542615
14.400999999997458,0.27008153452921674,-1.6402892840681829
14.600999999997347,0.22401569261135088,-1.611429506961492
14.800999999997236,0.1963156639772488,-1.5930867627123861
15.000999999997125,0.15214283852352176,-1.5821826880460954
15.200999999997014,0.09395875031908704,-1.5690066072693727
15.400999999996904,0.04759278580169745,-1.5507152623206335
15.600999999996793,-0.003989899364746901,-1.5342737340202406
15.800999999996682,-0.04738009284293821,-1.5203014589893784
16.000999999996573,-0.09440363207581932,-1.506384323877323
16.200999999996817,-0.154017265866584,-1.4887793318791458
16.40099999999706,-0.21523273742569296,-1.468188488107411
16.600999999997306,-0.2764695170913996,-1.4384942238928238
16.80099999999755,-0.3422836383928835,-1.4005211696577287
17.000999999997795,-0.4063655875657052,-1.3589816885848134
17.20099999999804,-0.46280199358394647,-1.3204943741986446
17.400999999998284,-0.5225082705931566,-1.2766182170885683
17.60099999999853,-0.5883421895349393,-1.224628430673453
17.800999999998773,-0.6437703667636338,-1.161365974884288
18.000999999999017,-0.6638624602247076,-1.1049067840726603
18.20099999999926,-0.656526732075808,-1.0588007697966626
18.400999999999506,-0.6275423842864112,-1.014068106804787
18.60099999999975,-0.5992038649340103,-0.9748785842622374
18.799999999999994,-0.5665708369538899,-0.9488176832542902
19.000000000000238,-0.5391114639277701,-0.9366839918516485
19.200000000000482,-0.5076064739688109,-0.9382383226447094
19.400000000000727,-0.4883110611189943,-0.9416609320441023
19.60000000000097,-0.45825891872018876,-0.9414312931890053
19.800000000001216,-0.4228345912125086,-0.940670254172486
20.00000000000146,-0.39286297941732146,-0.9453266981077103
