Time (s),X (m),Y (m)
0.001,-4.680521708071185e-05,-0.0009960320817112695
0.20000000000000015,0.001495487307145239,0.00032131164682517606
0.4000000000000003,0.005335658472418882,0.0032586182638898757
0.6000000000000004,0.012890443186113192,0.004555794874354018
0.8000000000000006,0.020997522193939185,0.011141186575258413
1.0000000000000007,0.030678266097302582,0.01353336579533709
1.2009999999999785,0.04330125262752454,0.016209135956315252
1.4009999999999565,0.05541946497131015,0.004669475873858882
1.6009999999999345,0.07044248533631842,0.007702980123228412
1.8009999999999124,0.08721958352765681,0.014814779864825428
2.0009999999998906,0.10182635422388492,0.021738274363357495
2.2009999999998686,0.11781661928421386,0.036177276524171395
2.4009999999998466,0.13325701786465557,0.03701275645823849
2.6009999999998246,0.14885939575786178,0.0366188526357055
2.8009999999998025,0.1629716196317729,0.026684224961240857
3.0009999999997805,0.1734294723773636,0.015080094137926442
3.2009999999997585,0.19065955815682667,0.015634397249698742
3.4009999999997365,0.2064610535697904,0.01736197753954229
3.6009999999997144,0.2223000676916886,0.024903700682959638
3.8009999999996924,0.23626409321768926,0.0286321600642103
4.000999999999671,0.2528851435037622,0.03404074214644994
4.200999999999738,0.2685844659075327,0.044776872756546855
4.400999999999804,0.2859823369033038,0.056015936649563086
4.600999999999871,0.3078216729633498,0.07197945968664705
4.800999999999938,0.3245038399149479,0.08615541084352853
5.000000000000004,0.34612604569815547,0.0898082265820366
5.200000000000071,0.364139394301452,0.10058983950432814
5.400000000000138,0.3844993165182804,0.0978164629836676
5.600000000000205,0.39749142778694047,0.09077554977925002
5.800000000000272,0.41291711062474507,0.0924087570897835
6.000000000000338,0.4307613494835082,0.09424192390783971
6.200000000000405,0.4445401327906409,0.08736375592328283
6.400000000000472,0.46072412593953604,0.08260056512509531
6.600000000000539,0.47757459534278796,0.0926582663116762
6.800000000000606,0.4975936272262748,0.09747516870796083
7.000000000000672,0.5141364453615778,0.09431901782043266
7.200000000000739,0.5269226485055538,0.09934634545482769
7.400000000000806,0.5436711387653508,0.10848116914805195
7.600000000000873,0.5616218604993755,0.10549373507971667
7.8000000000009395,0.5795519686235012,0.11434131219970814
8.000000000001005,0.5969158936070281,0.11767620378890767
8.200000000000895,0.6152826178145429,0.12436978461324989
8.400000000000784,0.6318069586456098,0.12117892870504744
8.600000000000673,0.6483676872827967,0.13151509748587675
8.800000000000562,0.6652595542560464,0.13833893775467326
9.000000000000451,0.6854922065245359,0.1529149975058504
9.20000000000034,0.7021966456614149,0.16087762330386912
9.40000000000023,0.7188481604794801,0.16069366844406902
9.600000000000119,0.7355830687560295,0.16090066042385598
9.800000000000008,0.7544712854220584,0.1721044117176324
10.000999999999896,0.7734083766347596,0.18966386649008252
10.200999999999786,0.7922844816191472,0.19459604519075863
10.400999999999675,0.809376129437248,0.19375745268941583
10.600999999999564,0.8279603684125488,0.20065786923090545
10.800999999999453,0.845528101674472,0.20777965946085686
11.000999999999342,0.8667803369239916,0.21730802535882213
11.200999999999231,0.8870383046725545,0.22692704728580348
11.40099999999912,0.905247644556869,0.23786435320083518
11.60099999999901,0.9242455781528472,0.24626097792440083
11.800999999998899,0.9430081159249927,0.24912222629046615
12.000999999998788,0.9554639748089683,0.25154846784177154
12.200999999998677,0.9720787697061632,0.2580102940924758
12.400999999998566,0.9931372875818528,0.26584237629720986
12.600999999998455,1.0131213399206545,0.27057138619722854
12.800999999998345,1.0350449192371527,0.277150252417195
13.000999999998234,1.0576238842887529,0.2806997705625748
13.200999999998123,1.0766380536550992,0.28786090841373807
13.400999999998012,1.0923259228954665,0.28577821654935465
13.600999999997901,1.106286554573379,0.29564793722267035
13.80099999999779,1.123930651958485,0.29523244535286475
14.00099999999768,1.1435690417972468,0.29783909329758335
14.200999999997569,1.1618812899023285,0.30533160599673087
14.400999999997458,1.179201545813596,0.31662957496247185
14.600999999997347,1.1940030633631649,0.3260223434163206
14.800999999997236,1.2101406550539535,0.3321705316934725
15.000999999997125,1.2285842457869427,0.3383953564687862
15.200999999997014,1.2439516131726007,0.3343186422514225
15.400999999996904,1.2595170118136083,0.3327141264296105
15.600999999996793,1.277290291600812,0.33544073145902453
15.800999999996682,1.2970560901538033,0.338843055672952
16.000999999996573,1.3153461211359463,0.3530278621467322
16.200999999996817,1.33402175205435,0.35926317659483337
16.40099999999706,1.3492000309809296,0.3665462200666452
16.600999999997306,1.3673038477338721,0.3696253962674503
16.80099999999755,1.3852530518233122,0.371605120447687
17.000999999997795,1.4019131217274081,0.37613450327499265
17.20099999999804,1.4150855813312095,0.38135541495579356
17.400999999998284,1.4307511336816536,0.3974969885210644
17.60099999999853,1.4474778901103222,0.40542033104913794
17.800999999998773,1.4660930333049504,0.41148320877881006
18.000999999999017,1.4818200657922063,0.4198022904241957
18.20099999999926,1.5029048159054241,0.43147293921140273
18.400999999999506,1.5200544709430501,0.43794257170511885
18.60099999999975,1.5393555591088022,0.45146019458950515
18.799999999999994,1.561517962792801,0.4637538488439239
19.000000000000238,1.58333595788316,0.4617550105927885
19.200000000000482,1.6016350800817372,0.470709682028832
19.400000000000727,1.6202673148822015,0.481298639103404
19.60000000000097,1.6394636028492522,0.49210460042426957
19.800000000001216,1.6603701784684324,0.5134241843587658
20.00000000000146,1.6764784300945446,0.5344363326329222
