Time (s),X (m),Y (m)
0.001,0.0007356649194092869,0.0008930179339548111
0.20000000000000015,1.8130023636880303e-05,-0.0028314723017717675
0.4000000000000003,0.005564508647150062,-0.0011312561417048488
0.6000000000000004,0.017864919284974582,-0.005008992245022302
0.8000000000000006,0.031349134298286445,-0.0053263906763020875
1.0000000000000007,0.04393394798161297,-0.0016511983004449335
1.2009999999999785,0.05883331946352992,0.005577294187762534
1.4009999999999565,0.07141628098445887,-0.003764477394557072
1.6009999999999345,0.0881468009323178,-0.00532454296109659
1.8009999999999124,0.10532888596917947,-0.0023185842460576402
2.0009999999998906,0.12326198339258317,0.0003923953231400645
2.2009999999998686,0.14574171866346353,0.008071496885687032
2.4009999999998466,0.16616249755177856,0.015816505648650593
2.6009999999998246,0.18203241138188508,0.01045697470745577
2.8009999999998025,0.19764018318758728,0.01206922552000572
3.0009999999997805,0.21360334343122536,0.012294395871590902
3.2009999999997585,0.2326092065984423,0.0265983655267039
3.4009999999997365,0.25927354192549784,0.04082880082834922
3.6009999999997144,0.28018365492784003,0.05310878725446344
3.8009999999996924,0.3055713968530389,0.0670363887250224
4.000999999999671,0.3261154966394606,0.08764549457209221
4.200999999999738,0.348132641897689,0.10242353309989143
4.400999999999804,0.3708747159050076,0.10542444513033318
4.600999999999871,0.3971391237397599,0.11574458675727996
4.800999999999938,0.4227240848947435,0.13192926785280204
5.000000000000004,0.4459075495627913,0.15287538473229906
5.200000000000071,0.46921310858480286,0.16950631493568033
5.400000000000138,0.48924377395580043,0.17805747024809782
5.600000000000205,0.510152542481477,0.18945356463447832
5.800000000000272,0.530228062971648,0.2049864215570967
6.000000000000338,0.5481485217378994,0.21082630558722176
6.200000000000405,0.5718511751471653,0.20836599231081313
6.400000000000472,0.595825566295877,0.2229256132912813
6.600000000000539,0.6198495425752094,0.23276105862157323
6.800000000000606,0.6399453896834518,0.24789302088515908
7.000000000000672,0.6642194274213986,0.26833287046287035
7.200000000000739,0.688442341262912,0.29476635072576274
7.400000000000806,0.7064339927514528,0.3257820990038855
7.600000000000873,0.7265948071734464,0.337090216241469
7.8000000000009395,0.7480335936180835,0.34131851405476865
8.000000000001005,0.770262804656859,0.3569358108350707
8.200000000000895,0.7907177450068947,0.38070165972574943
8.400000000000784,0.8148336757068015,0.4052767504242944
8.600000000000673,0.8418239121021959,0.4254655921291896
8.800000000000562,0.8725666798505479,0.4378331883641053
9.000000000000451,0.895492085356523,0.4560635887050546
9.20000000000034,0.924697484525736,0.45750338527989554
9.40000000000023,0.9487891977906641,0.4727787886753702
9.600000000000119,0.9697815657652716,0.4974394328143151
9.800000000000008,0.9927698703904051,0.5164864968092789
10.000999999999896,1.0092432371122857,0.5287886904696304
10.200999999999786,1.0307827624307528,0.5422001039260282
10.400999999999675,1.0537349657601853,0.556635317885223
10.600999999999564,1.0750002191973504,0.5754905974451084
10.800999999999453,1.095008306416511,0.5933234772844662
11.000999999999342,1.1137959293698156,0.6181781957765271
11.200999999999231,1.1294122490527714,0.6441269317166277
11.40099999999912,1.14300876203951,0.6592216758161413
11.60099999999901,1.160149253577303,0.6695256101366064
11.800999999998899,1.1801541812880951,0.6889629092105648
12.000999999998788,1.2006402369723719,0.7075866903524852
12.200999999998677,1.2149243767543356,0.7199055905465578
12.400999999998566,1.2295731124209162,0.7345833756265135
12.600999999998455,1.2513872181720145,0.7499542365430003
12.800999999998345,1.2709609551085637,0.7807516569982362
13.000999999998234,1.2922716377932455,0.808085910292652
13.200999999998123,1.3121403725715128,0.8241844897328592
13.400999999998012,1.3350069641745796,0.8347631261539085
13.600999999997901,1.3546946317875128,0.8469793956785256
13.80099999999779,1.3734293223289749,0.866407745455827
14.00099999999768,1.3846314068393037,0.882356319550093
14.200999999997569,1.3998651378762146,0.8993840477077402
14.400999999997458,1.4138305532368942,0.9259887676294496
14.600999999997347,1.4280491808328133,0.942676136692875
14.800999999997236,1.4476320806442404,0.9623658125520982
15.000999999997125,1.4609197190787993,0.9922515303259072
15.200999999997014,1.475337849518045,1.009647584210826
15.400999999996904,1.4897013330777087,1.0378555136637346
15.600999999996793,1.506327284433312,1.0617456897585487
15.800999999996682,1.5199488519553561,1.095060103037985
16.000999999996573,1.5248524656104196,1.1322163977632753
16.200999999996817,1.536421841271485,1.1650016351636792
16.40099999999706,1.5490851507835492,1.200427808670551
16.600999999997306,1.552452477051794,1.2331098818693105
16.80099999999755,1.5541570882984699,1.2586597958411219
17.000999999997795,1.55961363359977,1.2896764101925062
17.20099999999804,1.5627758886863365,1.316552122182828
17.400999999998284,1.5606055276775292,1.3566251846736759
17.60099999999853,1.5540232298863257,1.3948502246977037
17.800999999998773,1.5464946619103535,1.4321728441996406
18.000999999999017,1.5420522650752098,1.4634230799912649
18.20099999999926,1.5339620960205804,1.4956889252004781
18.400999999999506,1.5301292897336134,1.5289105854802745
18.60099999999975,1.5221857411225885,1.5641870800062787
18.799999999999994,1.5139243376800544,1.597619853616514
19.000000000000238,1.4941683372321708,1.6348245165965187
19.200000000000482,1.4702670717744597,1.6738715154853128
19.400000000000727,1.4666945576816766,1.7030368936806697
19.60000000000097,1.456401124047825,1.7340469934220801
19.800000000001216,1.4519607501183331,1.7624963165428749
20.00000000000146,1.4320464232666252,1.7940136745287583
