Time (s),X (m),Y (m)
0.001,-4.680521708071185e-05,0.00099603208171127
0.20000000000000015,0.0021666087033652913,-0.0009243406392639026
0.4000000000000003,0.007382705041592531,0.01013446269568713
0.6000000000000004,0.0214619295558178,0.005649527985236063
0.8000000000000006,0.0540545523468124,0.022642054554507195
1.0000000000000007,0.09874509518003294,0.03540939030662487
1.2009999999999785,0.1547674239175262,0.02770241504086215
1.4009999999999565,0.19900663099402735,-0.0007167095009101399
1.6009999999999345,0.23359824737929502,-0.04922695437579701
1.8009999999999124,0.2613239858303445,-0.1128425305402494
2.0009999999998906,0.29470585471064764,-0.16660124454127953
2.2009999999998686,0.3391746611932198,-0.2115549405180115
2.4009999999998466,0.3731848134184439,-0.252388485329215
2.6009999999998246,0.38541373757881114,-0.29688927975459506
2.8009999999998025,0.38194959142978685,-0.344041897688238
3.0009999999997805,0.35429704576740195,-0.3818245048750787
3.2009999999997585,0.3174109685164297,-0.4119019289210972
3.4009999999997365,0.277363178026369,-0.4212570939232545
3.6009999999997144,0.2263775667494556,-0.42381968357972993
3.8009999999996924,0.17272101319712155,-0.4227049965539921
4.000999999999671,0.1404252207671704,-0.4000576760407902
4.200999999999738,0.10196583747072133,-0.36867947483725694
4.400999999999804,0.08399296945672957,-0.33437417472448333
4.600999999999871,0.07326971851083597,-0.2929725536336802
4.800999999999938,0.08053015811524598,-0.24741837268607472
5.000000000000004,0.08658957292096432,-0.19726536703824968
5.200000000000071,0.09346117545929225,-0.14138882171552708
5.400000000000138,0.1084731145788824,-0.08936278268185575
5.600000000000205,0.13313634009093814,-0.038358383678395815
5.800000000000272,0.16940787180670253,0.004784714321095048
6.000000000000338,0.20437157533664935,0.041519450458475306
6.200000000000405,0.24496506191696907,0.06230198051234344
6.400000000000472,0.2903932602819725,0.06212067852148441
6.600000000000539,0.3394215676799666,0.03817503260207493
6.800000000000606,0.39205533515176466,0.006455387358460064
7.000000000000672,0.4415610990357771,-0.025941873942637046
7.200000000000739,0.4864304431560456,-0.06863479253108624
7.400000000000806,0.5220902976735167,-0.12066167590183667
7.600000000000873,0.5522855467815975,-0.16611865093437533
7.8000000000009395,0.5723721920431593,-0.21197116564139745
8.000000000001005,0.5815318690202408,-0.2612140898389104
8.200000000000895,0.5678169105383587,-0.3123597644705252
8.400000000000784,0.5406563536295165,-0.35581902943819543
8.600000000000673,0.5148521577277038,-0.3955884197705612
8.800000000000562,0.47317847009152286,-0.4256397807508357
9.000000000000451,0.4269443517023267,-0.4521428694895505
9.20000000000034,0.37414833883365944,-0.4652806918407628
9.40000000000023,0.31539016115697316,-0.47382396277993194
9.600000000000119,0.2545961694241081,-0.4785906031525846
9.800000000000008,0.2144117528531025,-0.4688768146043518
10.000999999999896,0.2237489110872339,-0.4433238636656218
10.200999999999786,0.25179478562843866,-0.4088926636627429
10.400999999999675,0.2870980292681673,-0.3720434678068865
10.600999999999564,0.3227288384069487,-0.3258718548512227
10.800999999999453,0.36755746840487136,-0.3036584443540197
11.000999999999342,0.4226353065774584,-0.30056797881587294
11.200999999999231,0.48784138406260347,-0.3150331846192745
11.40099999999912,0.5437579061913164,-0.3510419530447576
11.60099999999901,0.5948329721346174,-0.3869639585856211
11.800999999998899,0.6411931992642006,-0.42899685547680316
12.000999999998788,0.6861488282268723,-0.46926183531613835
12.200999999998677,0.7265490344635827,-0.5017137725861459
12.400999999998566,0.7749018987540212,-0.5379627785099524
12.600999999998455,0.8294850694278418,-0.5788065039873438
12.800999999998345,0.8741810874772709,-0.6270810542981843
13.000999999998234,0.9207391648258487,-0.6709153170050655
13.200999999998123,0.972333511333924,-0.7125418611650287
13.400999999998012,1.0144011429876065,-0.7612238531103105
13.600999999997901,1.0513231930779792,-0.8015734361375396
13.80099999999779,1.0725738862862602,-0.8439755284783492
14.00099999999768,1.0731322328355515,-0.8925712729924016
14.200999999997569,1.0604913695133535,-0.9398401982754653
14.400999999997458,1.0416655401463004,-0.9899367267093809
14.600999999997347,1.0122037252439045,-1.04157249299331
14.800999999997236,0.9787854858718098,-1.0752498379730466
15.000999999997125,0.935052554742203,-1.0776471965383068
15.200999999997014,0.8867056306097129,-1.0686537557616977
15.400999999996904,0.8493235312513278,-1.0408888364576268
15.600999999996793,0.8131294954576573,-0.9996309864932529
15.800999999996682,0.7872074023063793,-0.9512221514336241
16.000999999996573,0.8121821083882627,-0.8989834468523379
16.200999999996817,0.8566536336933107,-0.8530685200462411
16.40099999999706,0.9114141903374703,-0.8119075687433105
16.600999999997306,0.955434195631166,-0.7682139856442282
16.80099999999755,0.9883264970630488,-0.7175322740370478
17.000999999997795,1.0222797552413576,-0.6597542596053163
17.20099999999804,1.057629128068651,-0.6061535877079848
17.400999999998284,1.1015541260044646,-0.55985779724583
17.60099999999853,1.1446894115293291,-0.5122361511344693
17.800999999998773,1.185412294560317,-0.47834983875215087
18.000999999999017,1.2384692394406274,-0.47091719766161894
18.20099999999926,1.2920447069057235,-0.4853320666681671
18.400999999999506,1.3376133416094997,-0.5173841656646593
18.60099999999975,1.3856719739015577,-0.5541931027395652
18.799999999999994,1.4393323102147895,-0.5804388088267052
19.000000000000238,1.4871351571652471,-0.6143165048257854
19.200000000000482,1.5263616268682498,-0.6671183891187842
19.400000000000727,1.5752636022688749,-0.7161458670877705
19.60000000000097,1.6196723847351564,-0.7636727779181816
19.800000000001216,1.66991324059913,-0.8042522015624101
20.00000000000146,1.7038184836302441,-0.8438064934426982
