Time (s),X (m),Y (m)
0.001,0.0002200807748493132,0.0010311682891199472
0.20000000000000015,0.003125166454901742,0.0005791337438362258
0.4000000000000003,0.019737019624922823,0.011277044731998562
0.6000000000000004,0.04894615394856261,0.012822388118093248
0.8000000000000006,0.08913459013095837,0.008491182689793028
1.0000000000000007,0.10604360654298609,-0.012399610120565738
1.2009999999999785,0.0913899850037557,-0.04544932103712739
1.4009999999999565,0.06585997952266032,-0.09133267766884692
1.6009999999999345,0.044807313526739535,-0.1487919551365546
1.8009999999999124,0.020997909871610303,-0.21173967770773025
2.0009999999998906,-0.00936414515238529,-0.27440571373921263
2.2009999999998686,-0.04865058083785771,-0.3134308963493496
2.4009999999998466,-0.09317740756378656,-0.31912499853687437
2.6009999999998246,-0.12230553826355499,-0.3046417414188001
2.8009999999998025,-0.12473777602917474,-0.2760120635695653
3.0009999999997805,-0.10873579182034773,-0.24619643155040447
3.2009999999997585,-0.0800786829056564,-0.2237374721632731
3.4009999999997365,-0.04181741882277491,-0.22432991397058893
3.6009999999997144,-0.002298066862032789,-0.2451080363508467
3.8009999999996924,0.023874549173825154,-0.2785001166980616
4.000999999999671,0.04699884359840654,-0.3202691088280825
4.200999999999738,0.04980600186516838,-0.3656558445005881
4.400999999999804,0.03271610525562494,-0.39871445059935234
4.600999999999871,0.0026618561846173576,-0.4193235689292371
4.800999999999938,-0.043122454099586725,-0.4525395177883283
5.000000000000004,-0.09686940387924366,-0.47490176596963285
5.200000000000071,-0.15472857824757988,-0.47428996929787254
5.400000000000138,-0.2176852548449417,-0.46228577014573263
5.600000000000205,-0.2577340544980539,-0.43719474355272386
5.800000000000272,-0.2952254858724785,-0.39088333505636175
6.000000000000338,-0.31195157122677564,-0.3335527561680213
6.200000000000405,-0.3084517629511075,-0.26794274195636286
6.400000000000472,-0.2930964678185018,-0.19913519086547524
6.600000000000539,-0.2703746918312041,-0.14094289951790434
6.800000000000606,-0.23829561250689335,-0.08761898515709643
7.000000000000672,-0.1887647648456006,-0.05272410599410809
7.200000000000739,-0.11880312148432932,-0.033504956399142596
7.400000000000806,-0.04873485035527775,-0.032280749833358165
7.600000000000873,0.008225595208468963,-0.0467652470121656
7.8000000000009395,0.062356876574574456,-0.0790805222871435
8.000000000001005,0.10563274182793456,-0.1255679469793118
8.200000000000895,0.11704330719348427,-0.1766896740873383
8.400000000000784,0.10534370499593729,-0.23635447408632232
8.600000000000673,0.07907251004359826,-0.2916880326575466
8.800000000000562,0.04431514529345705,-0.3546332411834035
9.000000000000451,0.0028610313931020765,-0.43344805488861105
9.20000000000034,-0.04429692176723324,-0.499755611490468
9.40000000000023,-0.09961724244203136,-0.5510594322143507
9.600000000000119,-0.16671342320537105,-0.5668708674271864
9.800000000000008,-0.24011148733377674,-0.564846788157791
10.000999999999896,-0.3190500166606544,-0.5599647946067656
10.200999999999786,-0.397114105723121,-0.5488779173674135
10.400999999999675,-0.4750417884328553,-0.5431765443812668
10.600999999999564,-0.5264916918049535,-0.5237627095952969
10.800999999999453,-0.5600657108592377,-0.48028310960366755
11.000999999999342,-0.5787857175885783,-0.41840324598325845
11.200999999999231,-0.5918117958606598,-0.3505876207580579
11.40099999999912,-0.5799902279570845,-0.28205959976485456
11.60099999999901,-0.5508082537766875,-0.20920841952784228
11.800999999998899,-0.5117280989710078,-0.1361548967409948
12.000999999998788,-0.4595552724925443,-0.11210595690457223
12.200999999998677,-0.39137028145658737,-0.10054799495874002
12.400999999998566,-0.31006056550615335,-0.10394665762205134
12.600999999998455,-0.23302584022683143,-0.1290433067637436
12.800999999998345,-0.14432226398324421,-0.1635464843607841
13.000999999998234,-0.04064296198994636,-0.18332461808574865
13.200999999998123,0.05650712179882644,-0.204871120704911
13.400999999998012,0.1259749537604795,-0.23588913619359494
13.600999999997901,0.1662410473062304,-0.2807044082781128
13.80099999999779,0.17778441985411159,-0.3332091545269972
14.00099999999768,0.17060824533416213,-0.38831127065403814
14.200999999997569,0.14795668030382417,-0.4450382874599426
14.400999999997458,0.10509489995888908,-0.4770387251405108
14.600999999997347,0.04398195341404244,-0.48747012960426617
14.800999999997236,-0.02583413644686112,-0.47987960266721885
15.000999999997125,-0.09431537233910454,-0.45590460820111484
15.200999999997014,-0.14513230032039054,-0.4107715211892934
15.400999999996904,-0.14295568709503445,-0.3521277303643427
15.600999999996793,-0.1245939200238344,-0.28842030658833806
15.800999999996682,-0.09035017405700421,-0.22089274544098078
16.000999999996573,-0.05041472304186729,-0.15037416674874388
16.200999999996817,-0.009654149554609553,-0.07882467799232896
16.40099999999706,0.032270702266431577,-0.02953836146491834
16.600999999997306,0.08780016242005217,-0.004579235541876012
16.80099999999755,0.15997795497932524,0.010129340083982976
17.000999999997795,0.22800702624432334,0.004654965686401358
17.20099999999804,0.29311043640405554,-0.013019468389370853
17.400999999998284,0.3357927415723481,-0.0501965881752914
17.60099999999853,0.34819305071812673,-0.1025947881422418
17.800999999998773,0.3400650716083328,-0.15467418390443366
18.000999999999017,0.3096760683569545,-0.19971599377873955
18.20099999999926,0.2629870149008147,-0.23366007468088423
18.400999999999506,0.20495483133204853,-0.24388537690315396
18.60099999999975,0.18063797533070486,-0.22870017319506833
18.799999999999994,0.17132782506363722,-0.19219263006612888
19.000000000000238,0.1823167371114233,-0.14130057365757487
19.200000000000482,0.20434589847488085,-0.06966580748199826
19.400000000000727,0.24052524956686255,-0.013867268229184009
19.60000000000097,0.29373490517013745,0.009273724444528373
19.800000000001216,0.35631636174289355,0.01963445590849593
20.00000000000146,0.39770670491603677,0.009577544304519901
