Time (s),X (m),Y (m)
0.001,4.1020280575708355e-05,0.0010155025257856582
0.20000000000000015,0.0014392478195829656,-0.004493812518909245
0.4000000000000003,0.007668184412775776,0.001848894793877694
0.6000000000000004,0.016843873350578683,-0.012237968535977563
0.8000000000000006,0.036131792364197626,-0.014548036386056225
1.0000000000000007,0.06645060099793944,-0.004083101325538411
1.2009999999999785,0.09268350966475732,-0.0028004177714224953
1.4009999999999565,0.11294803848389832,-0.012343946627784182
1.6009999999999345,0.13194950471031966,-0.019723073557445164
1.8009999999999124,0.16874499617411307,-0.02282864117259163
2.0009999999998906,0.20502009600819548,-0.02665971473457765
2.2009999999998686,0.24420893075936978,-0.025781411350599144
2.4009999999998466,0.2790097606274861,-0.02653061197997613
2.6009999999998246,0.3123663691935061,-0.03716161513064432
2.8009999999998025,0.32178421745258473,-0.0552807154891148
3.0009999999997805,0.31676783281035503,-0.08469435006519854
3.2009999999997585,0.2931903282894603,-0.10826404195132801
3.4009999999997365,0.2608458373162411,-0.12689937722504918
3.6009999999997144,0.23034744417309927,-0.14897356792483352
3.8009999999996924,0.18643579689326853,-0.17466720048066114
4.000999999999671,0.15349162531498067,-0.20779766779482736
4.200999999999738,0.1192686810403684,-0.23979658877401006
4.400999999999804,0.07696097866695027,-0.26079208027401496
4.600999999999871,0.03817447073471301,-0.28814534024322874
4.800999999999938,0.0035844644276466896,-0.31422763215295374
5.000000000000004,-0.027731026303377745,-0.33674899783722784
5.200000000000071,-0.06196628216538091,-0.33298696644029085
5.400000000000138,-0.10210548250832781,-0.3223958580032769
5.600000000000205,-0.14600197629685419,-0.30295075819364975
5.800000000000272,-0.18667036568970688,-0.2816959347942968
6.000000000000338,-0.2263658772489259,-0.25745647258607957
6.200000000000405,-0.26059529152392147,-0.24463576895698275
6.400000000000472,-0.262675349160785,-0.22890949276497935
6.600000000000539,-0.24543774759046474,-0.1993238613950823
6.800000000000606,-0.2359162898868078,-0.1629454823971918
7.000000000000672,-0.22917460180534283,-0.1275117387648969
7.200000000000739,-0.22231612756466676,-0.09062066919870386
7.400000000000806,-0.20080938752464159,-0.06399159413054138
7.600000000000873,-0.17366835476099474,-0.03693665138175052
7.8000000000009395,-0.14587581950504055,-0.00875325843563501
8.000000000001005,-0.1170338320532232,0.0062914243364907045
8.200000000000895,-0.07936258898802806,0.004750797844482774
8.400000000000784,-0.041463419377084025,-0.016132391353212375
8.600000000000673,-0.0056390797724914605,-0.04757837097705722
8.800000000000562,0.02650704841555711,-0.07945657469942732
9.000000000000451,0.05321786539678235,-0.10900726015569842
9.20000000000034,0.06641225212362159,-0.14616870408938887
9.40000000000023,0.05945282555077951,-0.1842837231933812
9.600000000000119,0.03948804526923515,-0.21728176448911765
9.800000000000008,0.011779275133240796,-0.24226817329503444
10.000999999999896,-0.027275206020807984,-0.2595633032757531
10.200999999999786,-0.05992239345489398,-0.2916735891266701
10.400999999999675,-0.09183984557939393,-0.32386882112619225
10.600999999999564,-0.11778150297328584,-0.3526028452793068
10.800999999999453,-0.1457012816790659,-0.355409101461825
11.000999999999342,-0.1802283901726616,-0.3508240262990992
11.200999999999231,-0.21845791104859688,-0.3478038322257913
11.40099999999912,-0.2517595901911737,-0.3171763987137282
11.60099999999901,-0.285980819613009,-0.28338384375390085
11.800999999998899,-0.3255594381459423,-0.259316069640861
12.000999999998788,-0.3586442285542783,-0.23417218580698293
12.200999999998677,-0.37710724919852545,-0.2043979683069062
12.400999999998566,-0.38836543510438126,-0.17190220688992192
12.600999999998455,-0.37884351624115314,-0.13273638577373673
12.800999999998345,-0.3638622078153732,-0.0904842986137663
13.000999999998234,-0.33871670275911375,-0.0539692728275701
13.200999999998123,-0.30359063395861063,-0.031177886394156834
13.400999999998012,-0.2681741359520425,-0.01766872674487616
13.600999999997901,-0.2343378244947295,-0.0025651060367987265
13.80099999999779,-0.20193639919504078,0.02301788383628147
14.00099999999768,-0.17742877888015346,0.05692188617796874
14.200999999997569,-0.14298668390224414,0.069832396708161
14.400999999997458,-0.10236280135425568,0.08144281740784234
14.600999999997347,-0.06675445286096576,0.10511645939657718
14.800999999997236,-0.022015492147261832,0.10838173982457752
15.000999999997125,0.022079891506440474,0.12426808570041979
15.200999999997014,0.06726432530875925,0.12697770730994098
15.400999999996904,0.12035635213994503,0.1259257154530445
15.600999999996793,0.16386103585463402,0.11765418049647838
15.800999999996682,0.1997606964215663,0.1025967067781017
16.000999999996573,0.2418846649471496,0.08507504359197447
16.200999999996817,0.2856990229797952,0.06205129043473755
16.40099999999706,0.3293285480671198,0.055519091452359996
16.600999999997306,0.3660660164620305,0.03794975381131188
16.80099999999755,0.3982754885828271,0.01597669224230417
17.000999999997795,0.4253667958167423,-0.009811563305741964
17.20099999999804,0.46605547272358305,-0.005792401439860109
17.400999999998284,0.5072963662353357,-0.020278705513451626
17.60099999999853,0.5468925256613427,-0.035880753447562336
17.800999999998773,0.5811894099083985,-0.05765351787825654
18.000999999999017,0.6223818269653083,-0.05790428584421306
18.20099999999926,0.6587264816701627,-0.08010207578037357
18.400999999999506,0.6873885376513789,-0.11991383554895456
18.60099999999975,0.721024479748507,-0.1460442612551272
18.799999999999994,0.7667270273161966,-0.1565272772177653
19.000000000000238,0.8077728330203985,-0.18154849975422824
19.200000000000482,0.837316475196598,-0.2123649619496103
19.400000000000727,0.8541360984643871,-0.2517038341807108
19.60000000000097,0.8642373901484043,-0.2939290877653737
19.800000000001216,0.849597914034381,-0.3354729800798432
20.00000000000146,0.822612820652986,-0.3745647123178309
