Time (s),X (m),Y (m)
0.001,-0.0008071636076123137,8.987223813608099e-05
0.20000000000000015,0.004413578609654001,-0.0006941600602728638
0.4000000000000003,0.004668913924585951,-0.0031231805936737032
0.6000000000000004,0.005011581215141592,-0.004136935435177144
0.8000000000000006,0.018228265170262145,-0.004722323261849914
1.0000000000000007,0.031166986073874397,-0.006157557993785603
1.2009999999999785,0.05233440354941202,-0.010432303756508722
1.4009999999999565,0.08121402729719018,-0.019739114658022056
1.6009999999999345,0.10579486203898775,-0.028185502949637356
1.8009999999999124,0.12552459306299343,-0.03455375990775878
2.0009999999998906,0.14831285598014732,-0.038432870088854904
2.2009999999998686,0.17570849869496097,-0.04722206701975452
2.4009999999998466,0.19792837051955228,-0.054388187108066886
2.6009999999998246,0.21685510029567165,-0.06422204198232964
2.8009999999998025,0.24684575238236892,-0.08030710067063028
3.0009999999997805,0.2681286081291808,-0.0841817240376922
3.2009999999997585,0.29908028857313496,-0.09648512580583848
3.4009999999997365,0.3248073736297918,-0.11091577355300364
3.6009999999997144,0.3556815389120225,-0.1256274978333587
3.8009999999996924,0.39261433820118113,-0.14978200442481027
4.000999999999671,0.42822729907092505,-0.1761206525903361
4.200999999999738,0.4513791146737245,-0.2120516514595061
4.400999999999804,0.46096161684772224,-0.2331868873988532
4.600999999999871,0.46546346744082545,-0.25823793542473383
4.800999999999938,0.46658187215707464,-0.29605299533001994
5.000000000000004,0.4659003952304155,-0.32441266465963453
5.200000000000071,0.45427619785389267,-0.36091429052967733
5.400000000000138,0.4414283184449634,-0.3969955675045962
5.600000000000205,0.4216349038795467,-0.43379670764436845
5.800000000000272,0.39903521288369337,-0.46727069790415715
6.000000000000338,0.3726030570313869,-0.4841040074415191
6.200000000000405,0.3413923338356087,-0.48367917440472574
6.400000000000472,0.30708922386884585,-0.4692803357848723
6.600000000000539,0.2709206030024249,-0.4486215304923519
6.800000000000606,0.2338383077251667,-0.4127410736906311
7.000000000000672,0.20904111034563988,-0.3738718878049414
7.200000000000739,0.19655268895548436,-0.332160356896809
7.400000000000806,0.19330696574084066,-0.2888725673397685
7.600000000000873,0.20160343433615655,-0.23289689847236497
7.8000000000009395,0.2204929062703445,-0.18308720696380962
8.000000000001005,0.245401307876527,-0.13333275784278048
8.200000000000895,0.2724273006367953,-0.08262729391836977
8.400000000000784,0.3036253861483555,-0.027046495905738245
8.600000000000673,0.3417030021484431,0.0368311937643259
8.800000000000562,0.38331689593675716,0.09545084069876397
9.000000000000451,0.4287600405695652,0.1526159111649029
9.20000000000034,0.47603404592828913,0.19897052275149082
9.40000000000023,0.5178524761254385,0.2320479274706864
9.600000000000119,0.5610348467867844,0.2546789372121768
9.800000000000008,0.596461825410349,0.26595037425636303
10.000999999999896,0.642262958530031,0.26599791767357117
10.200999999999786,0.6781597161471747,0.2636665336134472
10.400999999999675,0.7184974547516404,0.25787511062949553
10.600999999999564,0.7653275182717871,0.24666604374403928
10.800999999999453,0.8046650167616421,0.23600367243228082
11.000999999999342,0.8531896367728611,0.21775071589638084
11.200999999999231,0.8862222714145881,0.19716573708198526
11.40099999999912,0.923009776427612,0.17809869266409387
11.60099999999901,0.9682861193515616,0.1516567486297766
11.800999999998899,1.0102659167985477,0.12346202307032704
12.000999999998788,1.0521026822282777,0.0950950690527641
12.200999999998677,1.0926293610246443,0.06856420386251867
12.400999999998566,1.1469860559142189,0.03678964512338789
12.600999999998455,1.1971244048616114,0.005840213747114334
12.800999999998345,1.2344036711822006,-0.019534791588122154
13.000999999998234,1.2703343154495115,-0.04108364635507705
13.200999999998123,1.3105937933690517,-0.06047958759333906
13.400999999998012,1.3578263856634303,-0.09346946165885067
13.600999999997901,1.4109357086256729,-0.14105435718062362
13.80099999999779,1.4529195977892486,-0.1981852670848475
14.00099999999768,1.4658668278269218,-0.254674442795651
14.200999999997569,1.4650385724676942,-0.3010044974274571
14.400999999997458,1.449092262187276,-0.347349793060813
14.600999999997347,1.4128927952959613,-0.3941554952553419
14.800999999997236,1.3790683069973895,-0.42962113136228075
15.000999999997125,1.350937636462983,-0.45850733510634606
15.200999999997014,1.3190081501047666,-0.4776885742664444
15.400999999996904,1.26712835695015,-0.4838239951730818
15.600999999996793,1.2212836159005014,-0.4757318646924564
15.800999999996682,1.1808516918302905,-0.4685204829443904
16.000999999996573,1.1354991133763281,-0.45308970482020205
16.200999999996817,1.0889814631765267,-0.43204030399949794
16.40099999999706,1.036452303712772,-0.40353029616872327
16.600999999997306,0.9806979713469728,-0.3664474903017326
16.80099999999755,0.9236092380752086,-0.3229115812932839
17.000999999997795,0.8839323792429664,-0.26988020703632115
17.20099999999804,0.8656447997383915,-0.22143265201329593
17.400999999998284,0.8684262564992261,-0.1763474799097137
17.60099999999853,0.8811034343314837,-0.12484107310616664
17.800999999998773,0.9002854297551931,-0.07550544760647761
18.000999999999017,0.9221725557580466,-0.0214894421681702
18.20099999999926,0.9475085532642175,0.04003459412941076
18.400999999999506,0.976576104244559,0.09466481564050265
18.60099999999975,1.0035955635004872,0.14726897823236249
18.799999999999994,1.0291397575516912,0.19496539097308865
19.000000000000238,1.0621316035331878,0.25114028745424977
19.200000000000482,1.0959689636059233,0.3072960857561889
19.400000000000727,1.1292047738759865,0.3576660173688717
19.60000000000097,1.1759167709899152,0.3979179873669339
19.800000000001216,1.2352213647385084,0.4121835125482606
20.00000000000146,1.2801802586047912,0.4086616467328343
