Time (s),X (m),Y (m)
0.001,0.0011546366250239817,0.000435790549910003
0.20000000000000015,-0.0011390959139029714,-0.0021283593911645225
0.4000000000000003,0.00046812932990538894,-0.004156671681284864
0.6000000000000004,0.011702138489524908,-0.006994608646796612
0.8000000000000006,0.03500831876668107,-0.0160835215615452
1.0000000000000007,0.07259489401645709,-0.02358167889318695
1.2009999999999785,0.11350346784679498,-0.0322707916467916
1.4009999999999565,0.15485702565709172,-0.04249284518211175
1.6009999999999345,0.18915987452739677,-0.05417591062661966
1.8009999999999124,0.23378293790186627,-0.07323164263048833
2.0009999999998906,0.28046951449547153,-0.09653418641750446
2.2009999999998686,0.3222769120379549,-0.12488436747801682
2.4009999999998466,0.35153634983501103,-0.15631847554996897
2.6009999999998246,0.35694544887416146,-0.1930551891404423
2.8009999999998025,0.33953039164814025,-0.22928445578389817
3.0009999999997805,0.30770780192522346,-0.26478617331892684
3.2009999999997585,0.2753198936271537,-0.3044799470411873
3.4009999999997365,0.24049687864022737,-0.3504014585085298
3.6009999999997144,0.19820210129565874,-0.39886919209055366
3.8009999999996924,0.1486849836048631,-0.44818268302201575
4.000999999999671,0.09120727990233184,-0.4951943388553268
4.200999999999738,0.0383110097329713,-0.5365137436965315
4.400999999999804,-0.0119831195718463,-0.5599073112296823
4.600999999999871,-0.07294340171309455,-0.5711157533454256
4.800999999999938,-0.1190178919861272,-0.5731317345701955
5.000000000000004,-0.16628942442016814,-0.5726410230956346
5.200000000000071,-0.20522347865554844,-0.5663290331342694
5.400000000000138,-0.2534532381660325,-0.5542195532722916
5.600000000000205,-0.3010871958908773,-0.5327094645798002
5.800000000000272,-0.3482895690164,-0.4985323076641226
6.000000000000338,-0.401402389203342,-0.4506392680706297
6.200000000000405,-0.46298233447140347,-0.39158222899415684
6.400000000000472,-0.5278796263876062,-0.3277884791739804
6.600000000000539,-0.5977361191865356,-0.26293164240573375
6.800000000000606,-0.6562212289107036,-0.21173088316218816
7.000000000000672,-0.686907617105026,-0.14457410423354988
7.200000000000739,-0.6934873501782773,-0.0751959161254846
7.400000000000806,-0.6764652727984864,-0.00988356089292099
7.600000000000873,-0.6449730221167224,0.04876953378883888
7.8000000000009395,-0.6019137381466806,0.10099485217089554
8.000000000001005,-0.545742039192475,0.12189985880017351
8.200000000000895,-0.49610101464286377,0.11610867873484018
8.400000000000784,-0.4440451505795644,0.08753034164932029
8.600000000000673,-0.38949292539883634,0.04394383028436642
8.800000000000562,-0.3447658238360931,-0.01255378853689268
9.000000000000451,-0.32192309013441445,-0.07158839570498625
9.20000000000034,-0.32583960105712995,-0.12467145900494485
9.40000000000023,-0.349355652923864,-0.1769750301937966
9.600000000000119,-0.38100173406140647,-0.22904513235226612
9.800000000000008,-0.4113539901065777,-0.2956470482368456
10.000999999999896,-0.44383206210962944,-0.356778506080305
10.200999999999786,-0.48641468437176055,-0.41238475066798475
10.400999999999675,-0.5454791512324629,-0.474749674328399
10.600999999999564,-0.6047761500135279,-0.540047108167858
10.800999999999453,-0.6630673605169443,-0.601100874996607
11.000999999999342,-0.7353309499263655,-0.6660319865316809
11.200999999999231,-0.805250547483398,-0.7027263772305953
11.40099999999912,-0.8587822983463458,-0.7082096806106506
11.60099999999901,-0.9062812313660078,-0.6932888375183431
11.800999999998899,-0.953631130306265,-0.6646517420737148
12.000999999998788,-0.9875717830496622,-0.6308094355565369
12.200999999998677,-1.0279055947161349,-0.5886219464682885
12.400999999998566,-1.0799776262072633,-0.5426530994294181
12.600999999998455,-1.1391533330674546,-0.4917931058802389
12.800999999998345,-1.1973990153688658,-0.43438843304226177
13.000999999998234,-1.2540323302087208,-0.36801715046050604
13.200999999998123,-1.3141608518567258,-0.29996051598574713
13.400999999998012,-1.3848641708844334,-0.21414037328061158
13.600999999997901,-1.4507226476919177,-0.13684087628659497
13.80099999999779,-1.5142908815003029,-0.06628927791944175
14.00099999999768,-1.5818678937596613,0.003506615772318878
14.200999999997569,-1.6286496009593774,0.07857238628395039
14.400999999997458,-1.635840435636813,0.15132021492197903
14.600999999997347,-1.607193625600782,0.2222231973884407
14.800999999997236,-1.5430443763839008,0.2851326875484183
15.000999999997125,-1.4651756317788058,0.32649223704689867
15.200999999997014,-1.3915861797558164,0.3384502828030048
15.400999999996904,-1.317832781205247,0.3265383935584938
15.600999999996793,-1.2473292270979,0.29308609727072155
15.800999999996682,-1.1908021975022336,0.2524076232666208
16.000999999996573,-1.1472643970923908,0.2065745465788513
16.200999999996817,-1.107568558849009,0.16737924223367817
16.40099999999706,-1.084620298419944,0.11307708512468087
16.600999999997306,-1.0870347922724173,0.053206249326253126
16.80099999999755,-1.1068583183638079,0.00604429202088489
17.000999999997795,-1.1409758806529178,-0.045763276743471304
17.20099999999804,-1.1906033277303645,-0.10831123774686247
17.400999999998284,-1.2470726009328135,-0.17119196837029277
17.60099999999853,-1.3036427587338402,-0.22389850275114231
17.800999999998773,-1.3646232962654312,-0.28735787239980526
18.000999999999017,-1.425976211181767,-0.3460825811471222
18.20099999999926,-1.487429058995769,-0.41092853647846206
18.400999999999506,-1.5521322306191967,-0.48189453565059664
18.60099999999975,-1.6248636968288699,-0.5517032245951377
18.799999999999994,-1.7148223035013967,-0.6150108368846696
19.000000000000238,-1.7891334802918768,-0.6402418897072005
19.200000000000482,-1.8534488804162537,-0.6271452580739197
19.400000000000727,-1.9034774271705441,-0.5957777596674156
19.60000000000097,-1.9298568069812703,-0.5628879646168186
19.800000000001216,-1.9250016724437664,-0.5222638447808317
20.00000000000146,-1.9000824960086196,-0.48035173663342
