Time (s),X (m),Y (m)
0.001,0.0003991412691229187,-0.0010155025257856578
0.20000000000000015,0.0009927773272880892,0.0032347601421278314
0.4000000000000003,0.006378938827170666,-0.006606351907184078
0.6000000000000004,0.00856720407670446,-0.014725599062792232
0.8000000000000006,0.015690967166354045,-0.025636106165360807
1.0000000000000007,0.029972760575580383,-0.03537575003471264
1.2009999999999785,0.04872658397518148,-0.03487170070155835
1.4009999999999565,0.06998766966719666,-0.02487632317237798
1.6009999999999345,0.08547336608022352,-0.03469480842488627
1.8009999999999124,0.109196364097713,-0.029154274735478745
2.0009999999998906,0.1277511109445441,-0.030561661682528666
2.2009999999998686,0.1435730157761331,-0.038466219393656124
2.4009999999998466,0.16222064528756475,-0.04301110813963317
2.6009999999998246,0.17481300058085963,-0.05837000471620151
2.8009999999998025,0.1904605178790118,-0.0756816929599252
3.0009999999997805,0.21795607368180778,-0.09182114625561984
3.2009999999997585,0.2439142661090034,-0.10123908107574288
3.4009999999997365,0.26171326821427143,-0.11534131550235177
3.6009999999997144,0.2690503187368855,-0.13546831849960447
3.8009999999996924,0.2778610075530575,-0.15194744356525397
4.000999999999671,0.29376221140100345,-0.16621868944840815
4.200999999999738,0.32107226585462745,-0.18133722448611733
4.400999999999804,0.34271386333476783,-0.19146278304686953
4.600999999999871,0.36588220103869895,-0.20351338289700388
4.800999999999938,0.3849877673281497,-0.21898973688962026
5.000000000000004,0.402981201431598,-0.23126781351323558
5.200000000000071,0.42869286363990117,-0.2472350352685992
5.400000000000138,0.4509736543370022,-0.2652076449659358
5.600000000000205,0.46929008819957035,-0.28789032997621805
5.800000000000272,0.49260195666740414,-0.28901494959963364
6.000000000000338,0.5172795097386332,-0.29342178462057866
6.200000000000405,0.5478530167925392,-0.28276225099182156
6.400000000000472,0.5691874083725061,-0.2866931351189014
6.600000000000539,0.5873192810339517,-0.29740892484156256
6.800000000000606,0.6086289557313113,-0.30548762333838547
7.000000000000672,0.6278444608934265,-0.3163168596452334
7.200000000000739,0.6443103783173849,-0.3382693616936502
7.400000000000806,0.6672077199591768,-0.3482273535811226
7.600000000000873,0.6891482988456882,-0.3461181805404352
7.8000000000009395,0.7108985420157993,-0.35413305942030443
8.000000000001005,0.7273957424969757,-0.3799133141419743
8.200000000000895,0.7396350340342178,-0.4019354237796991
8.400000000000784,0.7581625346052266,-0.4110358886999627
8.600000000000673,0.7785962488421767,-0.4216694357983134
8.800000000000562,0.796890047644312,-0.4361719742727291
9.000000000000451,0.820812960695055,-0.4473275672787486
9.20000000000034,0.8340662819028472,-0.47168987731595924
9.40000000000023,0.8583214361166647,-0.48084341144402265
9.600000000000119,0.8800815571694699,-0.4865917389044242
9.800000000000008,0.8908893510198308,-0.5117283248779908
10.000999999999896,0.9113691590211279,-0.5324944537753945
10.200999999999786,0.9309341686457856,-0.5445818677644005
10.400999999999675,0.9434358423196293,-0.5612692035045596
10.600999999999564,0.9606246365444366,-0.5642402368858699
10.800999999999453,0.9768865569409594,-0.5730968855950621
11.000999999999342,0.9949993505456722,-0.5917844096422719
11.200999999999231,1.0123346254902337,-0.6032462358307796
11.40099999999912,1.033371255445747,-0.617356796569509
11.60099999999901,1.0517134646010056,-0.6432121512542021
11.800999999998899,1.0609773906470235,-0.6666893780152682
12.000999999998788,1.0748763844053826,-0.6859181568012614
12.200999999998677,1.0990559304085177,-0.7070945328168374
12.400999999998566,1.126119148036566,-0.7159507442955023
12.600999999998455,1.1447535748847368,-0.7327019360132125
12.800999999998345,1.1700115949152385,-0.7487552571786394
13.000999999998234,1.1969430598362447,-0.7688201831723548
13.200999999998123,1.206093770372302,-0.7970851063372094
13.400999999998012,1.2332240308794367,-0.8118221916213857
13.600999999997901,1.2533993274160735,-0.8260455760658112
13.80099999999779,1.2760317463133677,-0.8490783780977497
14.00099999999768,1.3066690888656243,-0.8584025235172815
14.200999999997569,1.336040464352491,-0.8748159701877994
14.400999999997458,1.3503898450743583,-0.8971428818992307
14.600999999997347,1.3709431745667986,-0.9200053051043388
14.800999999997236,1.385446985307929,-0.9409527020370002
15.000999999997125,1.402213823800268,-0.9587898243658998
15.200999999997014,1.4280230778671534,-0.9801985271688605
15.400999999996904,1.4584750901627634,-0.9931552661245812
15.600999999996793,1.4867326218994215,-1.0096355483253119
15.800999999996682,1.5138991228805037,-1.0270316676647848
16.000999999996573,1.5245076190115314,-1.0532909090430278
16.200999999996817,1.541660697008328,-1.077891489623829
16.40099999999706,1.5692321184531257,-1.0756463334325452
16.600999999997306,1.5867514734317711,-1.0969991551319938
16.80099999999755,1.6098221014181018,-1.1180117897407607
17.000999999997795,1.6368622822027,-1.1415692584909096
17.20099999999804,1.6630799514417685,-1.1621125626157551
17.400999999998284,1.6888102811371326,-1.1800811872897714
17.60099999999853,1.7150893110332242,-1.1983307572517299
17.800999999998773,1.7334710845758743,-1.2113467865024379
18.000999999999017,1.748631548696531,-1.2164242962893637
18.20099999999926,1.761704204842846,-1.220884579809267
18.400999999999506,1.7828716648226177,-1.232831913187677
18.60099999999975,1.8069195095822106,-1.2383759479239764
18.799999999999994,1.8255428316269517,-1.2558386778830166
19.000000000000238,1.851400128672291,-1.2565443077458747
19.200000000000482,1.8799345576903639,-1.2599172019874687
19.400000000000727,1.902461874706561,-1.2751368279330422
19.60000000000097,1.929189091582283,-1.2807742584129236
19.800000000001216,1.959150395846713,-1.286272543748575
20.00000000000146,1.9828532735446744,-1.3037082164994733
