Time (s),X (m),Y (m)
0.001,4.1020280575708355e-05,0.0010155025257856582
0.20000000000000015,0.0029764454718614695,0.003336239153873104
0.4000000000000003,0.014030557683932564,-0.001001122242295147
0.6000000000000004,0.043988944125666306,0.0004964099436478732
0.8000000000000006,0.08742879052449218,0.0037934800651150007
1.0000000000000007,0.12535776224758544,-0.009348523082197892
1.2009999999999785,0.13474334958100032,-0.03565463723716938
1.4009999999999565,0.12156877767553811,-0.043065128263724814
1.6009999999999345,0.09282996314078597,-0.010587518875184856
1.8009999999999124,0.05219791233787454,0.04040712054422032
2.0009999999998906,0.007815472270653101,0.09586222814702963
2.2009999999998686,-0.04927844206157079,0.15026169851848278
2.4009999999998466,-0.08117264108291816,0.21164412758369847
2.6009999999998246,-0.07883456577629555,0.27696406836730353
2.8009999999998025,-0.06611949855607296,0.34381209707050586
3.0009999999997805,-0.038620361807316615,0.387684275984609
3.2009999999997585,-0.01344677371231219,0.3916118076060561
3.4009999999997365,-0.002326980482551354,0.37200168843623366
3.6009999999997144,-0.011851239098429209,0.3362773773767068
3.8009999999996924,-0.041091729531888,0.2985153989146132
4.000999999999671,-0.08082932612104587,0.277023317491228
4.200999999999738,-0.1294324000852999,0.28464120491987044
4.400999999999804,-0.18884753922585124,0.3107997613163795
4.600999999999871,-0.24986682702796825,0.34830455293628226
4.800999999999938,-0.31322133180885686,0.3939447211024638
5.000000000000004,-0.3819847918747751,0.4381914473901023
5.200000000000071,-0.4535949847491019,0.4867599675830131
5.400000000000138,-0.49154497090959176,0.5479458209787019
5.600000000000205,-0.48281358730820334,0.6167752602767471
5.800000000000272,-0.457771460277599,0.6881335901065561
6.000000000000338,-0.42408157017975706,0.7622625396247378
6.200000000000405,-0.3861800509753357,0.8400049068034379
6.400000000000472,-0.3436211316652191,0.9156068369789753
6.600000000000539,-0.295664233499724,0.9606737169175327
6.800000000000606,-0.2367419449322023,0.9695217146895446
7.000000000000672,-0.1639446466289489,0.955518384792391
7.200000000000739,-0.0807181302693152,0.9291184968033648
7.400000000000806,0.006690297735670327,0.8916950967156956
7.600000000000873,0.09701795376295676,0.8519918515603491
7.8000000000009395,0.17229942815989324,0.8001814601749454
8.000000000001005,0.2314986365556007,0.7417167334603606
8.200000000000895,0.26862024842373416,0.6727429548616881
8.400000000000784,0.2826651133648077,0.5992942263272574
8.600000000000673,0.2697399184046227,0.5293370024896537
8.800000000000562,0.2361569198179044,0.45484954288313123
9.000000000000451,0.19987625581472068,0.3725659997045884
9.20000000000034,0.16816582574146233,0.29130886879980716
9.40000000000023,0.12264277403918185,0.223474640123317
9.600000000000119,0.06696128659626444,0.17098213773676116
9.800000000000008,-0.00027607427314869665,0.1624170816534595
10.000999999999896,-0.08172323521762767,0.16927318594389418
10.200999999999786,-0.16004621594593452,0.19118014864451954
10.400999999999675,-0.2131266328073223,0.23986401944611155
10.600999999999564,-0.2464594930721887,0.2968314509567694
10.800999999999453,-0.2546950372444939,0.3541876683380604
11.000999999999342,-0.23830268443491032,0.37594766120560064
11.200999999999231,-0.19649363912928083,0.3864451635689416
11.40099999999912,-0.13929984737370815,0.3744130616650277
11.60099999999901,-0.08077815571244451,0.3366995559732568
11.800999999998899,-0.028698583352100664,0.27777082091723765
12.000999999998788,0.018339701733069168,0.21049907768685605
12.200999999998677,0.03647319638120852,0.14218898994530857
12.400999999998566,0.05008570385660099,0.06790133691682328
12.600999999998455,0.04268923516331759,-0.009565386480282899
12.800999999998345,0.03848565118743396,-0.09483047882461486
13.000999999998234,0.03244066122615413,-0.18284517816939172
13.200999999998123,0.01594226109449904,-0.26289633226746945
13.400999999998012,-0.019360214566787,-0.3266130367635315
13.600999999997901,-0.07261348824439239,-0.3486715943035867
13.80099999999779,-0.13779450293214016,-0.3466207081357761
14.00099999999768,-0.15874258474276445,-0.3231187086828357
14.200999999997569,-0.15922865779509235,-0.2779264881073339
14.400999999997458,-0.13280206485936563,-0.2247445403647539
14.600999999997347,-0.09089216627732251,-0.19145667499499236
14.800999999997236,-0.034784590008459085,-0.18151632000601223
15.000999999997125,0.030211144766343487,-0.19663926372285012
15.200999999997014,0.10318538111608952,-0.22899790783612692
15.400999999996904,0.1784266465417111,-0.2658871714365803
15.600999999996793,0.250706478650489,-0.3121258068574286
15.800999999996682,0.30423979537012075,-0.3679344595186855
16.000999999996573,0.32349435653039915,-0.4288229138835275
16.200999999996817,0.3232510557318175,-0.49129262065182305
16.40099999999706,0.29956085519512327,-0.5525965332773255
16.600999999997306,0.2619419132296284,-0.5760615793757325
16.80099999999755,0.21096369347083557,-0.5676277233315603
17.000999999997795,0.1623223184224931,-0.5379992191526058
17.20099999999804,0.12892482087312443,-0.4960095575040872
17.400999999998284,0.12560765802510138,-0.44421820418749847
17.60099999999853,0.15246359503896953,-0.39896157318846637
17.800999999998773,0.195024961178265,-0.37871911103130823
18.000999999999017,0.2474821304038309,-0.37611460193738727
18.20099999999926,0.28430917565748565,-0.3980716263301328
18.400999999999506,0.31154790777185604,-0.43671655483053834
18.60099999999975,0.31812525373853767,-0.49113264896638936
18.799999999999994,0.2805562172929846,-0.5403264985375321
19.000000000000238,0.2288189737267742,-0.5867450470084249
19.200000000000482,0.17426827641472148,-0.6390748731216191
19.400000000000727,0.11040719911861988,-0.6781136618252467
19.60000000000097,0.03697140688423535,-0.6974251001406273
19.800000000001216,-0.03681334589435141,-0.6862424833455183
20.00000000000146,-0.1052616482749359,-0.6674235999104616
