Time (s),X (m),Y (m)
0.001,0.00048696676677933824,0.00099603208171127
0.20000000000000015,0.0016409886523074686,0.0006438826729508674
0.4000000000000003,0.006322711594949487,0.005678568604530401
0.6000000000000004,0.010765448259276672,-0.0017825015483946191
0.8000000000000006,0.019404229747901864,0.005701720650808038
1.0000000000000007,0.03315998894949705,0.0017785838203884367
1.2009999999999785,0.047437069373123704,-0.0076415329444162565
1.4009999999999565,0.06257027762043046,-0.0054261805654309695
1.6009999999999345,0.07291036304136732,-0.0008359260361022456
1.8009999999999124,0.08041725186499701,0.0011087488865686567
2.0009999999998906,0.08983205078346161,0.004776305040923418
2.2009999999998686,0.10757569062828111,0.007766684814772675
2.4009999999998466,0.12262713974467002,0.0021724762760382517
2.6009999999998246,0.13184301566777762,0.002816894183594511
2.8009999999998025,0.1504879354351349,0.016587769576885597
3.0009999999997805,0.16595409722259033,0.019750906749585975
3.2009999999997585,0.17917743319474955,0.012018253590049066
3.4009999999997365,0.18767445097331717,-0.0009991252326078301
3.6009999999997144,0.20209930925802969,0.00023994614773952157
3.8009999999996924,0.2181228165521381,-0.0013270308292565873
4.000999999999671,0.22992552982477518,-0.006211635191911483
4.200999999999738,0.24322964432075042,-0.009649544486977628
4.400999999999804,0.2590183351855578,-0.006919007909593258
4.600999999999871,0.27529770507771895,-0.01448355266005397
4.800999999999938,0.2879423668890315,-0.01929765615094921
5.000000000000004,0.30236985592828375,-0.016739120214170115
5.200000000000071,0.3130683431143443,-0.01751925073050338
5.400000000000138,0.32694367384008133,-0.021465757520535454
5.600000000000205,0.34053859890173604,-0.01423750137527472
5.800000000000272,0.3538004596034693,-0.009986138883266209
6.000000000000338,0.36951924969043837,-0.00029981197347302954
6.200000000000405,0.38460674500387326,0.0033417018457854914
6.400000000000472,0.40461315013688826,0.016101896871980364
6.600000000000539,0.4230123433706897,0.012727064128881698
6.800000000000606,0.43474037770203094,0.018865063468135303
7.000000000000672,0.45031933710228655,0.02544669706930637
7.200000000000739,0.4675344044783122,0.037085811086273825
7.400000000000806,0.48210342671153844,0.046383858316634545
7.600000000000873,0.50032841658336,0.053093648549714365
7.8000000000009395,0.5199103352452897,0.06477523922945637
8.000000000001005,0.5356731564513544,0.0660090552135486
8.200000000000895,0.5512382266853461,0.064670945951184
8.400000000000784,0.5649272083995578,0.0624838750087447
8.600000000000673,0.5814830098524706,0.058606369377627185
8.800000000000562,0.599590114552344,0.05952102900223993
9.000000000000451,0.6121883230613864,0.06303729069607164
9.20000000000034,0.6298770202892845,0.06072462431305104
9.40000000000023,0.6522977957186168,0.07444241291087354
9.600000000000119,0.6700078761542521,0.0810026298976779
9.800000000000008,0.6840046180392798,0.08737398897385847
10.000999999999896,0.7033425346050974,0.08502319540292864
10.200999999999786,0.7180580897406943,0.08065796846379746
10.400999999999675,0.7340852123751048,0.0811478711034243
10.600999999999564,0.747758736638806,0.08796469951866277
10.800999999999453,0.7641781143296201,0.09281305139660014
11.000999999999342,0.7825931375085377,0.09499449293433525
11.200999999999231,0.8039944369951562,0.10297289404540724
11.40099999999912,0.819775229708526,0.09590327705535824
11.60099999999901,0.8352305236374701,0.09101241708826742
11.800999999998899,0.8488711912040543,0.09342641817627521
12.000999999998788,0.8653989110635478,0.10106570372657453
12.200999999998677,0.8799064589231893,0.10468872737026604
12.400999999998566,0.8999339987784549,0.11388259226319515
12.600999999998455,0.9155081701076451,0.12628096477053272
12.800999999998345,0.9336187313895463,0.13750140049575046
13.000999999998234,0.9488294119980543,0.14617808055870998
13.200999999998123,0.9665789116806446,0.15406547337727836
13.400999999998012,0.9846608555388486,0.17140807913998576
13.600999999997901,1.008788299213158,0.1832232049184142
13.80099999999779,1.02436645922661,0.19604525817995894
14.00099999999768,1.0391618679906955,0.20279136522017446
14.200999999997569,1.0579571226450772,0.220814222858451
14.400999999997458,1.0755340643169844,0.23077189742764054
14.600999999997347,1.0964274892077737,0.24274712651284838
14.800999999997236,1.1166367288774122,0.2514826148240301
15.000999999997125,1.1380106997645847,0.26561819791527086
15.200999999997014,1.1547113803018043,0.27410430690683235
15.400999999996904,1.1711157656979276,0.2877220173048905
15.600999999996793,1.1874971652682835,0.30003572821324376
15.800999999996682,1.2059253409773398,0.31028738136653605
16.000999999996573,1.2270986944210953,0.3188736916351162
16.200999999996817,1.2457898833001468,0.32870392065125387
16.40099999999706,1.2595169804976485,0.34080645529074977
16.600999999997306,1.2743135545931152,0.3518755945611286
16.80099999999755,1.2927582715790857,0.36313126143893915
17.000999999997795,1.309524951543781,0.3671461675169721
17.20099999999804,1.3276617046395451,0.3796176404362757
17.400999999998284,1.3467387642885422,0.3915193885629856
17.60099999999853,1.3616826070532646,0.3851357827188269
17.800999999998773,1.3767656673356088,0.3985650570672425
18.000999999999017,1.3940386763454249,0.4033062514032907
18.20099999999926,1.4109628004257768,0.4093083180810886
18.400999999999506,1.431944364090983,0.41350468499580106
18.60099999999975,1.4540772047882549,0.4302762329540125
18.799999999999994,1.4694883307651498,0.4343374369170126
19.000000000000238,1.4851406747225404,0.4413307754106054
19.200000000000482,1.5002402157690966,0.4531372200570136
19.400000000000727,1.5117349574790113,0.4563873555970072
19.60000000000097,1.5270268476052373,0.45544595554561085
19.800000000001216,1.5415998388180967,0.4556680290621509
20.00000000000146,1.5563863662557749,0.4633003541620928
