Time (s),X (m),Y (m)
0.001,-0.0005090653149319316,-0.0007291460897812452
0.20000000000000015,0.004408967261459409,0.0024116636471042856
0.4000000000000003,0.006343945482634449,-0.0005769202924106484
0.6000000000000004,0.011406526753243938,-0.010152742972360528
0.8000000000000006,0.02582506322686933,-0.01020557650291391
1.0000000000000007,0.04393542365557447,-0.005484690184189708
1.2009999999999785,0.060438775992932924,-0.016891378703283406
1.4009999999999565,0.08152755809636533,-0.0114188493136624
1.6009999999999345,0.09907427936014018,-0.012822333608673624
1.8009999999999124,0.11930053874251038,-0.017741264794226243
2.0009999999998906,0.13515561132194964,-0.003378158451344012
2.2009999999998686,0.15637516581804878,0.012212331434781353
2.4009999999998466,0.17956728922197873,0.025452922025234
2.6009999999998246,0.19876515699179842,0.02760542651836474
2.8009999999998025,0.2155202158220815,0.030917666566336686
3.0009999999997805,0.23434917561559224,0.04052091803873509
3.2009999999997585,0.250469692612495,0.05310870707416603
3.4009999999997365,0.2708811684540002,0.06316849924868094
3.6009999999997144,0.2854191211548586,0.07217338174130364
3.8009999999996924,0.30314418575033714,0.08056399687070072
4.000999999999671,0.3241054143211005,0.07960996298512178
4.200999999999738,0.34060269262952325,0.088321455131999
4.400999999999804,0.3634657698640509,0.09402768990389526
4.600999999999871,0.38122385064817305,0.10673050293692114
4.800999999999938,0.4034669802070389,0.11027938909627405
5.000000000000004,0.4224912806789005,0.11890904526002742
5.200000000000071,0.4464471532766415,0.13427719384172276
5.400000000000138,0.46777996515737946,0.13741675293941275
5.600000000000205,0.48391716792311956,0.15273338869901376
5.800000000000272,0.5015181351600319,0.1615532798184614
6.000000000000338,0.5180696311862222,0.175152897715964
6.200000000000405,0.5329662741462983,0.18692626633293385
6.400000000000472,0.5529023639583642,0.19523496959172548
6.600000000000539,0.5750996205540263,0.20677525110832518
6.800000000000606,0.5954341761213091,0.22262205982003946
7.000000000000672,0.6189594998367397,0.23392676599564063
7.200000000000739,0.6394903774557299,0.23927950504818224
7.400000000000806,0.6551222902721076,0.25382229580092625
7.600000000000873,0.6705912981445573,0.25691351610341484
7.8000000000009395,0.6808677367759958,0.2679373625039851
8.000000000001005,0.6980082517694383,0.2812790872749361
8.200000000000895,0.7218022105385334,0.301126507689773
8.400000000000784,0.741229614767834,0.317735994887086
8.600000000000673,0.7626969876067444,0.32212292472481907
8.800000000000562,0.7828008023235605,0.333172668358522
9.000000000000451,0.7977350442697139,0.3633680270447227
9.20000000000034,0.8226949443148744,0.3865226604982001
9.40000000000023,0.8429784902997023,0.3999463696606482
9.600000000000119,0.85615095848098,0.4169515495315875
9.800000000000008,0.8729094698659345,0.4324499224530615
10.000999999999896,0.8945226998319805,0.4545085957511944
10.200999999999786,0.903388144619629,0.4755868500767036
10.400999999999675,0.9158555547477639,0.49127375338871804
10.600999999999564,0.9249826755953294,0.5094843702639874
10.800999999999453,0.9346945852908672,0.5376783994282883
11.000999999999342,0.9445624411391735,0.5589508434887236
11.200999999999231,0.9477838011878237,0.586969508465735
11.40099999999912,0.9512551048788164,0.6050541532544773
11.60099999999901,0.9556205646745132,0.6216815225634922
11.800999999998899,0.9670689515604366,0.6440954278107338
12.000999999998788,0.9774880605416535,0.6589842130711377
12.200999999998677,0.9902473233851921,0.679600446381059
12.400999999998566,1.0091245234995088,0.6994253991252031
12.600999999998455,1.0286629962558527,0.7201235176090354
12.800999999998345,1.0486217896781813,0.7424203258320621
13.000999999998234,1.0604205520103258,0.7673056214820301
13.200999999998123,1.0721863736626156,0.7891574079406419
13.400999999998012,1.090865533351306,0.8149134550936686
13.600999999997901,1.1071004684635026,0.8388091465607274
13.80099999999779,1.115380235054262,0.8527259970303525
14.00099999999768,1.1209672321453046,0.8773715073094963
14.200999999997569,1.1292600298670785,0.9084491759827171
14.400999999997458,1.138970012996444,0.9325376725747606
14.600999999997347,1.1459061359796692,0.9587715702103492
14.800999999997236,1.1541721896920472,0.9884322235188676
15.000999999997125,1.1608022838386323,1.0122672550873888
15.200999999997014,1.167794775371073,1.0408101039072588
15.400999999996904,1.1779122928528516,1.0689141597707799
15.600999999996793,1.1909815448771761,1.0877496766820103
15.800999999996682,1.196138722790814,1.1032981446933583
16.000999999996573,1.2007502819445064,1.1180776614123755
16.200999999996817,1.2047511249244178,1.1329102378196843
16.40099999999706,1.2133541188154384,1.1516269728579052
16.600999999997306,1.223743041849982,1.1712992228232455
16.80099999999755,1.22735103778007,1.1912460726720424
17.000999999997795,1.2306252363742474,1.219645445536056
17.20099999999804,1.2290548462175348,1.251018150717458
17.400999999998284,1.237859692992836,1.2807790364279048
17.60099999999853,1.2377326803977045,1.3157255251523965
17.800999999998773,1.2358902136666416,1.3473085731417216
18.000999999999017,1.2352301192935748,1.375804898554346
18.20099999999926,1.2380176712680617,1.402559051258287
18.400999999999506,1.2400623604356762,1.4283095088851196
18.60099999999975,1.2409566536741226,1.465631525734957
18.799999999999994,1.2441372387356897,1.4920568052171506
19.000000000000238,1.2442686921323953,1.5127744787276782
19.200000000000482,1.2491875741539447,1.5347068256768137
19.400000000000727,1.257888211450311,1.5495248189677964
19.60000000000097,1.2686753655926712,1.5714255815347615
19.800000000001216,1.2797278289459275,1.6008234159478831
20.00000000000146,1.2862638490043194,1.6255748075499699
