Time (s),X (m),Y (m)
0.001,-0.0005698399629515257,-0.0006628221997479689
0.20000000000000015,0.0045068213216159425,0.002372048303548537
0.4000000000000003,0.015109681428805423,0.010807919448367566
0.6000000000000004,0.0272360814083397,0.009200599513150998
0.8000000000000006,0.037139562210719235,0.00828742815653887
1.0000000000000007,0.040791284365027033,0.007153796855429645
1.2009999999999785,0.04751516860034446,0.012388604230312376
1.4009999999999565,0.0570268892882605,0.01592247579474417
1.6009999999999345,0.0657649680724731,0.012311078155817194
1.8009999999999124,0.08037884511155155,0.017404764363619273
2.0009999999998906,0.0935616737274088,0.014908301277417544
2.2009999999998686,0.09956571874534566,0.012619372269628669
2.4009999999998466,0.11052877869818943,0.011783416792319402
2.6009999999998246,0.12590033970378256,0.01851955542130204
2.8009999999998025,0.1425700938389245,0.023167100625940937
3.0009999999997805,0.1587833081573787,0.028098027098149743
3.2009999999997585,0.17280318568004255,0.037897963638507795
3.4009999999997365,0.18938662007338658,0.0397637244551873
3.6009999999997144,0.1996596254274929,0.03895938453748543
3.8009999999996924,0.22044197926440975,0.028792127984620667
4.000999999999671,0.2483359783694492,0.03376219307205596
4.200999999999738,0.26221952404631754,0.03652873651930034
4.400999999999804,0.282360935168565,0.03907048122380784
4.600999999999871,0.30366932568584565,0.04875364261995656
4.800999999999938,0.31838435156434053,0.04788596982639267
5.000000000000004,0.33241838141780505,0.04864032899315793
5.200000000000071,0.3486309571027325,0.053883735899431455
5.400000000000138,0.3596396817602437,0.05905907810994293
5.600000000000205,0.3690320725196246,0.06989165236599233
5.800000000000272,0.3789068752425892,0.07808601049559945
6.000000000000338,0.39919842594949334,0.08411677405989515
6.200000000000405,0.42050991777508184,0.09264999529054106
6.400000000000472,0.441564661048053,0.09811153008830625
6.600000000000539,0.46547905138734047,0.11282153507106638
6.800000000000606,0.4880124103764574,0.13581098659177634
7.000000000000672,0.508749468790214,0.1432864646067118
7.200000000000739,0.524671025772769,0.15153885145001367
7.400000000000806,0.5426014408587528,0.16357628739884625
7.600000000000873,0.5618255161553969,0.18461301592550106
7.8000000000009395,0.5789433320444592,0.2026176045040096
8.000000000001005,0.6000973519871975,0.21626943185551797
8.200000000000895,0.6141296480449089,0.2353331446837539
8.400000000000784,0.6231764333058994,0.2373592573001889
8.600000000000673,0.6331126707124605,0.24055668305554173
8.800000000000562,0.6464646190036227,0.2501078493698263
9.000000000000451,0.6567812384329061,0.2662252732999963
9.20000000000034,0.6667163509256923,0.27899552367940794
9.40000000000023,0.6739579737246058,0.2823234578352202
9.600000000000119,0.6861372955953663,0.30240761071453526
9.800000000000008,0.697203086888549,0.326209530604117
10.000999999999896,0.7053364344008549,0.34413879851687473
10.200999999999786,0.7166607688715028,0.359487305969005
10.400999999999675,0.7314511901216587,0.3695790890645503
10.600999999999564,0.7386896513176271,0.3890507101955692
10.800999999999453,0.7415547602879347,0.40834051531243465
11.000999999999342,0.7505184382260296,0.41663332980501094
11.200999999999231,0.7615274579429835,0.43174341675587624
11.40099999999912,0.7663213564044793,0.43855175709720295
11.60099999999901,0.7718222116505563,0.45362175762960444
11.800999999998899,0.7724696445567024,0.4784079121306603
12.000999999998788,0.7735401170409114,0.5019672389942853
12.200999999998677,0.7847825650959218,0.5186256540831582
12.400999999998566,0.7904918718475544,0.5434528301009646
12.600999999998455,0.7914800108453306,0.559221998855806
12.800999999998345,0.7976503786809949,0.5709185174959894
13.000999999998234,0.8072940299922372,0.5860396850107956
13.200999999998123,0.817843719413248,0.6015952584810583
13.400999999998012,0.8311278029963524,0.6159140096910736
13.600999999997901,0.8325274183781873,0.6395246759445008
13.80099999999779,0.8410896000706012,0.6600222821486089
14.00099999999768,0.8422568077672792,0.6899088713996008
14.200999999997569,0.8473433789444235,0.7155189486663279
14.400999999997458,0.8533489233573163,0.7423265930273265
14.600999999997347,0.8578169119571744,0.7748166815552338
14.800999999997236,0.8622986561448657,0.7946304031189398
15.000999999997125,0.8674248762170166,0.8205325303265449
15.200999999997014,0.8755573280842431,0.8435893411760532
15.400999999996904,0.8802000549046634,0.8605993646190369
15.600999999996793,0.8942366013060339,0.8827143727619916
15.800999999996682,0.9063420002988284,0.9075136055537363
16.000999999996573,0.9126682321867788,0.9307453313623377
16.200999999996817,0.9163177601418994,0.9431966186042853
16.40099999999706,0.9224964063963687,0.9595900499474305
16.600999999997306,0.9292103545506922,0.9797880421435331
16.80099999999755,0.9327522394183789,0.9998309621677047
17.000999999997795,0.9322324241361891,1.0189430453232027
17.20099999999804,0.9334305370547809,1.033672875136122
17.400999999998284,0.9405666092516236,1.05648566414544
17.60099999999853,0.9524965857661195,1.087415071930756
17.800999999998773,0.9581176222886417,1.1088279987154823
18.000999999999017,0.9711067759487907,1.1303221719257006
18.20099999999926,0.9797598511966578,1.146522622183195
18.400999999999506,0.9883934444266508,1.161815100652074
18.60099999999975,0.9937720410160348,1.1785008513574005
18.799999999999994,0.9945861108300789,1.1918454762330182
19.000000000000238,0.9943618505310997,1.2006077862676683
19.200000000000482,0.9919444717175597,1.2107049642625238
19.400000000000727,0.9899920557188954,1.2243065979974779
19.60000000000097,0.9881232033168764,1.2476331993307508
19.800000000001216,0.9835159975451446,1.268933950579477
20.00000000000146,0.9828521002386088,1.2830412508646485
