Time (s),X (m),Y (m)
0.001,0.0012473251573109415,8.987223813608099e-05
0.20000000000000015,0.002879721683689623,0.00141908049427644
0.4000000000000003,0.015342148446964616,0.004419491258136528
0.6000000000000004,0.0332645182949809,0.0070801886363812865
0.8000000000000006,0.04838781673716565,0.008208133727230409
1.0000000000000007,0.06873202957767945,0.0026808014692460153
1.2009999999999785,0.08342636611172786,-0.0017921360323986395
1.4009999999999565,0.10310261599671941,-0.007959915887224027
1.6009999999999345,0.1211979137815296,-0.016068329825182588
1.8009999999999124,0.14063776739301462,-0.025472261877415123
2.0009999999998906,0.1753875414833661,-0.03774057633226105
2.2009999999998686,0.21975904435256838,-0.05776610897881171
2.4009999999998466,0.26595211544976755,-0.08119950804467353
2.6009999999998246,0.3108399265539997,-0.10747786597023376
2.8009999999998025,0.3530627129729635,-0.13634023318140318
3.0009999999997805,0.39144172989080583,-0.16011833837140943
3.2009999999997585,0.4192390259546618,-0.18877700433887237
3.4009999999997365,0.4313571486126491,-0.2261390832378855
3.6009999999997144,0.42680490986246805,-0.2627417911012237
3.8009999999996924,0.40698192607470857,-0.3009960711240899
4.000999999999671,0.3811098884553358,-0.3475564312132065
4.200999999999738,0.35410353468399486,-0.39318265673481345
4.400999999999804,0.32750802970341436,-0.4220010299116332
4.600999999999871,0.29308913898374844,-0.42174128165753955
4.800999999999938,0.2498100437572036,-0.40132054570531517
5.000000000000004,0.20393962066629429,-0.3748559565519196
5.200000000000071,0.16170122424624314,-0.3422985432075735
5.400000000000138,0.1427365282920648,-0.30224249715128504
5.600000000000205,0.1430285897366843,-0.2577876597513562
5.800000000000272,0.15392589217019623,-0.2195437208414859
6.000000000000338,0.1764896219088348,-0.17862572817508818
6.200000000000405,0.20634833608007933,-0.12929925125929545
6.400000000000472,0.24259622114792312,-0.07147025384597704
6.600000000000539,0.2756309532593181,-0.020495822510841765
6.800000000000606,0.3059017760654933,0.02977382314005741
7.000000000000672,0.33640977852552456,0.08207984425640368
7.200000000000739,0.3737391230041291,0.14639293753926175
7.400000000000806,0.41577691614906137,0.220157138136431
7.600000000000873,0.45924545210544787,0.290076368743224
7.8000000000009395,0.5065065780313049,0.3546006995907249
8.000000000001005,0.5704093627875588,0.41530877610220923
8.200000000000895,0.6295509611848467,0.45336516881008343
8.400000000000784,0.7038392176219753,0.45813343806697576
8.600000000000673,0.7718270270502883,0.44057489273105604
8.800000000000562,0.8384816231391486,0.41057989399351263
9.000000000000451,0.892805464959848,0.37017658713338614
9.20000000000034,0.9185547354052042,0.3185836090754297
9.40000000000023,0.9179078631920954,0.2689393484981361
9.600000000000119,0.9036708797504626,0.21991102379693492
9.800000000000008,0.8841114571465928,0.17154368155119565
10.000999999999896,0.8626023747381699,0.12262068282244011
10.200999999999786,0.8397533551908386,0.06030244437407501
10.400999999999675,0.8164754791863389,0.011726036952467647
10.600999999999564,0.7899733590453951,-0.03903600106210738
10.800999999999453,0.7615110527454357,-0.08721759254459899
11.000999999999342,0.7334480671974655,-0.13136695174694274
11.200999999999231,0.6997142281815639,-0.18736975520517848
11.40099999999912,0.6622318673243959,-0.24467757862604675
11.60099999999901,0.6239674020590961,-0.29842526759273896
11.800999999998899,0.5799602949174519,-0.35747975689340816
12.000999999998788,0.5264891159795441,-0.4204227196947539
12.200999999998677,0.475054765677626,-0.4764161936478233
12.400999999998566,0.43015645944914294,-0.508308795940663
12.600999999998455,0.38210092388178585,-0.516222816976114
12.800999999998345,0.327868582506547,-0.5078676851932605
13.000999999998234,0.26699734980266,-0.4739427819591832
13.200999999998123,0.20565454196891797,-0.42401998504478944
13.400999999998012,0.16673901433844987,-0.3631048230033485
13.600999999997901,0.15706291102508887,-0.29420883712322676
13.80099999999779,0.1644572632003605,-0.23653519700997347
14.00099999999768,0.18234880572667345,-0.1756682269486829
14.200999999997569,0.20820850617631548,-0.11389892302917434
14.400999999997458,0.24273464299985742,-0.054882917242836615
14.600999999997347,0.28071978776232487,0.0061127363246965384
14.800999999997236,0.3394456990784838,0.07970297938609941
15.000999999997125,0.4112059962957802,0.1521118190552658
15.200999999997014,0.4871631482651199,0.1978645573002303
15.400999999996904,0.5444373752358607,0.21228798642901597
15.600999999996793,0.6000231024031045,0.197420852968255
15.800999999996682,0.6571923261882552,0.17050472161350072
16.000999999996573,0.7264809404498402,0.13755983797546223
16.200999999996817,0.7944730842400788,0.10200420307864169
16.40099999999706,0.8693320950473991,0.0625516300963408
16.600999999997306,0.9499676145709077,0.01738707310118471
16.80099999999755,1.0209423079750473,-0.03298349169762119
17.000999999997795,1.0952717127603093,-0.08874672800124182
17.20099999999804,1.1693927034811864,-0.1531822426041075
17.400999999998284,1.2305614766603608,-0.23202870675348838
17.60099999999853,1.2712081236197066,-0.29947503355180183
17.800999999998773,1.285153732339713,-0.36559418541966293
18.000999999999017,1.2778733888136458,-0.4340509947202546
18.20099999999926,1.2571258653710384,-0.49681837670358614
18.400999999999506,1.2223598521312868,-0.5637378121909845
18.60099999999975,1.1820133117353369,-0.6350937691409588
18.799999999999994,1.1348098733298462,-0.7012459081662983
19.000000000000238,1.0762172637721084,-0.7616866328690984
19.200000000000482,1.0108029085041375,-0.800043169320814
19.400000000000727,0.9434170521489188,-0.8189997858083005
19.60000000000097,0.8772441729236492,-0.8113495584406862
19.800000000001216,0.813119754611204,-0.7847520756757349
20.00000000000146,0.7455934823481032,-0.7506477055111657
