Time (s),X (m),Y (m)
0.001,-0.0003713730577023104,0.0008446836120385872
0.20000000000000015,0.003307059389157612,-0.003425796838659561
0.4000000000000003,0.011244289983487726,-0.007837504639696236
0.6000000000000004,0.013445913049754012,0.00026311396485069157
0.8000000000000006,0.02089394542723069,0.004844608282066196
1.0000000000000007,0.03132912594183188,-0.0063548622440927445
1.2009999999999785,0.04598587788031369,-0.01717999284374859
1.4009999999999565,0.059067403908458826,-0.038483871902944514
1.6009999999999345,0.07242900680919405,-0.04935291493675913
1.8009999999999124,0.0952957855462742,-0.06122640548661747
2.0009999999998906,0.115099924225391,-0.06300746061527812
2.2009999999998686,0.13028950812021042,-0.06522972128682322
2.4009999999998466,0.14314455975414891,-0.07013453045847598
2.6009999999998246,0.1577817898976335,-0.08236376522500699
2.8009999999998025,0.17271150908315597,-0.08039886925468623
3.0009999999997805,0.1787271323382467,-0.09102390538535306
3.2009999999997585,0.1910502370279876,-0.1029547187685393
3.4009999999997365,0.2034105515044224,-0.11361995261516522
3.6009999999997144,0.21555935004851348,-0.13467960699591505
3.8009999999996924,0.22873598752674115,-0.15074760288258446
4.000999999999671,0.2364414344311219,-0.16935979857957742
4.200999999999738,0.2430211046999208,-0.1812758066758101
4.400999999999804,0.2537955987896317,-0.19493016492301904
4.600999999999871,0.26774360104990924,-0.21167795062419634
4.800999999999938,0.27923216079228924,-0.22724878215857222
5.000000000000004,0.2920800280832863,-0.23408407080097576
5.200000000000071,0.3018118114907525,-0.256497942707487
5.400000000000138,0.3146618777748515,-0.2712472606833648
5.600000000000205,0.32966375163770545,-0.2828984580660624
5.800000000000272,0.3394781704992145,-0.29376954288763274
6.000000000000338,0.3481421196868397,-0.3154275150718378
6.200000000000405,0.35331283732994057,-0.33662629155642365
6.400000000000472,0.35785260512148437,-0.3508861841074747
6.600000000000539,0.3645092220784438,-0.3638290853257374
6.800000000000606,0.3713311626958293,-0.37687305388344045
7.000000000000672,0.37910919419934336,-0.381195891863672
7.200000000000739,0.38390339235420046,-0.397971719911262
7.400000000000806,0.39561502093435713,-0.4131078030584676
7.600000000000873,0.4053588835385247,-0.43211612683492695
7.8000000000009395,0.4185147796553091,-0.44100936346112524
8.000000000001005,0.4306873483297948,-0.4657061456988243
8.200000000000895,0.43943535875513917,-0.48389404079273335
8.400000000000784,0.44161749693749713,-0.5018634019509742
8.600000000000673,0.4498740489515337,-0.5151643877719639
8.800000000000562,0.46049772056871796,-0.5286663490389569
9.000000000000451,0.4665849144663664,-0.5484508951612543
9.20000000000034,0.4654175186639889,-0.5687077859382549
9.40000000000023,0.4632600270662576,-0.5920244639638954
9.600000000000119,0.46444709304006015,-0.6160010849956726
9.800000000000008,0.4643571513255732,-0.6381081044100321
10.000999999999896,0.4742127115254395,-0.6595001017558725
10.200999999999786,0.48194682445867676,-0.6758361102286305
10.400999999999675,0.4831515349603634,-0.6938798403245349
10.600999999999564,0.4853251389912033,-0.7188701800982371
10.800999999999453,0.4904139017521922,-0.7400110087799053
11.000999999999342,0.5051069995694697,-0.7507829672395012
11.200999999999231,0.5145281667663525,-0.7675767842223107
11.40099999999912,0.5251085344027729,-0.7872942462156818
11.60099999999901,0.5304774998882532,-0.8021249847556121
11.800999999998899,0.5330986017812853,-0.827204132284202
12.000999999998788,0.5444978691757267,-0.8495286409836843
12.200999999998677,0.556172532476272,-0.8590862871358486
12.400999999998566,0.5638868448228156,-0.8763902611039233
12.600999999998455,0.5730675302298841,-0.8993259880526538
12.800999999998345,0.5789094562919987,-0.9234996031726412
13.000999999998234,0.5802270422259885,-0.9515114904933708
13.200999999998123,0.5779253767496764,-0.9828786054785275
13.400999999998012,0.5842856211366583,-1.007802655214565
13.600999999997901,0.5842135081479188,-1.0272823218999099
13.80099999999779,0.5910561715798816,-1.044083187154479
14.00099999999768,0.5951063112679179,-1.0626872509153427
14.200999999997569,0.5932714477716206,-1.0906469735346764
14.400999999997458,0.5959682271636964,-1.1158008369599277
14.600999999997347,0.6123628419495586,-1.1303430548102709
14.800999999997236,0.6274004869014002,-1.1486121661430453
15.000999999997125,0.6341922855025014,-1.1671588521988916
15.200999999997014,0.6284442576576421,-1.1918897716015853
15.400999999996904,0.6192780302631117,-1.2218761869620218
15.600999999996793,0.6183453373373055,-1.2485354488347797
15.800999999996682,0.6039263930376546,-1.2796773101058654
16.000999999996573,0.59202073930224,-1.3071048275668977
16.200999999996817,0.5724986487509303,-1.3314651305724379
16.40099999999706,0.5595180966675082,-1.3527316112274617
16.600999999997306,0.5369219216933019,-1.3752874662892685
16.80099999999755,0.5276976249362784,-1.3976144167533286
17.000999999997795,0.5151632386939422,-1.411564389840772
17.20099999999804,0.5033168243819778,-1.427680388890623
17.400999999998284,0.48747762124522137,-1.4450876757925146
17.60099999999853,0.4752060172757913,-1.4570800808224091
17.800999999998773,0.45237007956348674,-1.4671033933650244
18.000999999999017,0.4312770786147697,-1.4866163902574696
18.20099999999926,0.41535235178888413,-1.5002627269189885
18.400999999999506,0.3965564356035481,-1.5163191167262005
18.60099999999975,0.38647854395044157,-1.5315622614669937
18.799999999999994,0.3799463291491275,-1.5466029778181194
19.000000000000238,0.3708428114118204,-1.560641283150606
19.200000000000482,0.34228071430419915,-1.5660560212230068
19.400000000000727,0.3112851296789934,-1.5710607378753543
19.60000000000097,0.2847356415762486,-1.5795103754192048
19.800000000001216,0.26251466925614914,-1.594043341207315
20.00000000000146,0.24064152795562965,-1.6090153319452094
