Time (s),X (m),Y (m)
0.001,0.0005727611008870025,0.0009689812320744445
0.20000000000000015,-0.0007059885148600226,-0.0039665611436442705
0.4000000000000003,0.002919108229691926,-0.010930883516105314
0.6000000000000004,0.01584428529795056,-0.008447813480248256
0.8000000000000006,0.028491368757047133,-0.017268178399974167
1.0000000000000007,0.04534400158165057,-0.019741009819867053
1.2009999999999785,0.06446691009260526,-0.015750912110333276
1.4009999999999565,0.09250787635173183,-0.01677871290955149
1.6009999999999345,0.12104561697683797,-0.024340601408843757
1.8009999999999124,0.1455690365816816,-0.027048591295621753
2.0009999999998906,0.17382795009875043,-0.018642358682827837
2.2009999999998686,0.21156995105517412,-0.009981939032518618
2.4009999999998466,0.2544149013234651,0.005310901512612217
2.6009999999998246,0.2863941189288293,0.016586036089566603
2.8009999999998025,0.32511827030841417,0.025825538497352484
3.0009999999997805,0.3600752488746653,0.03198028951863458
3.2009999999997585,0.39353398409984375,0.03172930323507749
3.4009999999997365,0.42082033615266484,0.02317260742532724
3.6009999999997144,0.4315308110688941,0.0007785244541112593
3.8009999999996924,0.4410842337181149,-0.03137186509352261
4.000999999999671,0.44143232633008983,-0.07156544183272227
4.200999999999738,0.4581647347135317,-0.11876713211441658
4.400999999999804,0.48574059747015735,-0.1627921993045174
4.600999999999871,0.5028082307911654,-0.1996078228850357
4.800999999999938,0.5065089005459104,-0.23143653133476744
5.000000000000004,0.5047363966663588,-0.26581245726957636
5.200000000000071,0.5027261218055601,-0.3092668038233469
5.400000000000138,0.5125914543858741,-0.3507495155337713
5.600000000000205,0.5202822934002431,-0.3937252536836956
5.800000000000272,0.5169316989556697,-0.43412992468600736
6.000000000000338,0.5324003642877051,-0.48826729143793113
6.200000000000405,0.5488147251954856,-0.5453412851818642
6.400000000000472,0.5595375674706118,-0.5911492896729149
6.600000000000539,0.5650891584409188,-0.6304878148698719
6.800000000000606,0.5708141421667171,-0.6737673244834609
7.000000000000672,0.5828821488506604,-0.7276859367437415
7.200000000000739,0.5891460776270858,-0.7767915383806674
7.400000000000806,0.5927985193973554,-0.820529721698281
7.600000000000873,0.5960613612668624,-0.8620489914144693
7.8000000000009395,0.601541704137151,-0.9027888786324006
8.000000000001005,0.5988092547049194,-0.9405829841261549
8.200000000000895,0.5958570078080222,-0.9770022929179923
8.400000000000784,0.5939869260039222,-1.015589525761527
8.600000000000673,0.5935857187036363,-1.051495708231826
8.800000000000562,0.595134740385172,-1.112071255173365
9.000000000000451,0.5877797066076004,-1.1649098515053864
9.20000000000034,0.5768847058837896,-1.2234141258428068
9.40000000000023,0.5569622949860508,-1.262648395042952
9.600000000000119,0.537553388193226,-1.2965371578956613
9.800000000000008,0.5162363498767288,-1.3254193094779032
10.000999999999896,0.4923061530617182,-1.3505062734470694
10.200999999999786,0.47207938146998274,-1.3836332285801134
10.400999999999675,0.44432248666216356,-1.4253614626562319
10.600999999999564,0.41874357118131245,-1.4731500278253826
10.800999999999453,0.39115957442282656,-1.5093767997830827
11.000999999999342,0.3608612991913845,-1.5546886781035925
11.200999999999231,0.33031155012771063,-1.6006192080595816
11.40099999999912,0.2938672628282284,-1.6498964167196835
11.60099999999901,0.2596155358905803,-1.7015526095840663
11.800999999998899,0.22566211248076304,-1.727697656369368
12.000999999998788,0.19044221284565813,-1.7365359912525258
12.200999999998677,0.15434538238934478,-1.741642951351122
12.400999999998566,0.11422044004382916,-1.7435647708237465
12.600999999998455,0.07409853627045081,-1.7374709194883395
12.800999999998345,0.03320318423777217,-1.735844894503
13.000999999998234,-0.011372405769050156,-1.7357798245679614
13.200999999998123,-0.06040740864455779,-1.7447770299548773
13.400999999998012,-0.10999906955844116,-1.7532635193920658
13.600999999997901,-0.15298756043198236,-1.7614560656121983
13.80099999999779,-0.19104127601016002,-1.7667058123771364
14.00099999999768,-0.22243798126139339,-1.7630853657289927
14.200999999997569,-0.26138686111041043,-1.7590899955986197
14.400999999997458,-0.31202239444342084,-1.7568952406974623
14.600999999997347,-0.35692642699595334,-1.744492603121649
14.800999999997236,-0.40590174635888243,-1.7351502111898869
15.000999999997125,-0.4589547618093785,-1.7362611328512187
15.200999999997014,-0.5151626670253602,-1.7341733789292464
15.400999999996904,-0.5762591094931823,-1.7331031442080003
15.600999999996793,-0.6235603710309787,-1.7285433847218423
15.800999999996682,-0.6672063825441527,-1.7214033247656053
16.000999999996573,-0.7058397513505261,-1.706824260116354
16.200999999996817,-0.7346102991077799,-1.6855196083743749
16.40099999999706,-0.7659608790429805,-1.6482599493851784
16.600999999997306,-0.7810144604853863,-1.6079870034207469
16.80099999999755,-0.7903617095312737,-1.5724384096539339
17.000999999997795,-0.7926860586979422,-1.535096375574338
17.20099999999804,-0.792753242607493,-1.4939958741151504
17.400999999998284,-0.7874771747670084,-1.445740673823403
17.60099999999853,-0.7908501873669809,-1.3989111517758592
17.800999999998773,-0.803584261856774,-1.3509884867580015
18.000999999999017,-0.809914094288997,-1.2971958326010242
18.20099999999926,-0.8163796329425861,-1.2549620228757425
18.400999999999506,-0.8230225320892668,-1.208608537725185
18.60099999999975,-0.8266626482328624,-1.154195135718717
18.799999999999994,-0.8287262983071862,-1.1046388739430208
19.000000000000238,-0.8474167205691203,-1.0601898066804172
19.200000000000482,-0.8718692032671972,-1.0111524754498231
19.400000000000727,-0.884830643149411,-0.9654675482055534
19.60000000000097,-0.8956366427135742,-0.9243972420398149
19.800000000001216,-0.9052265858796303,-0.8812845458446081
20.00000000000146,-0.9235706525853759,-0.8354402485147023
