Time (s),X (m),Y (m)
0.001,4.1020280575708355e-05,-0.0010155025257856578
0.20000000000000015,0.004153193379520643,0.005629128993601899
0.4000000000000003,0.00625361265743418,-0.0024366252107588015
0.6000000000000004,0.007075849056269442,-0.006385054229919573
0.8000000000000006,0.018053239066221655,0.0009785017344169466
1.0000000000000007,0.042221419188368386,0.01702913206809304
1.2009999999999785,0.06564627851422535,0.0195986306286849
1.4009999999999565,0.09219079216309387,0.00777452810637974
1.6009999999999345,0.12328339113458434,0.0034458877760027403
1.8009999999999124,0.1537285414224253,-0.011626140503943953
2.0009999999998906,0.17748462723706968,-0.025006092706262157
2.2009999999998686,0.20742682141705468,-0.02376241523078916
2.4009999999998466,0.2284632902421931,-0.033757188537573396
2.6009999999998246,0.2467874060103221,-0.04142723256985416
2.8009999999998025,0.26799837555287537,-0.054850724413433534
3.0009999999997805,0.29812032867632365,-0.061664460208146935
3.2009999999997585,0.327476919666436,-0.07247810601253138
3.4009999999997365,0.3525956238484373,-0.08916564335898018
3.6009999999997144,0.3770956607562945,-0.10022672511617768
3.8009999999996924,0.4015870414287118,-0.1144848179832386
4.000999999999671,0.4381483492928646,-0.1139472045495921
4.200999999999738,0.4754009657923044,-0.11596401506937136
4.400999999999804,0.49384733149720766,-0.13341628823910495
4.600999999999871,0.5196195838405234,-0.14187080258205248
4.800999999999938,0.5482729529690457,-0.1576680633742517
5.000000000000004,0.5671494514670788,-0.1794676011653619
5.200000000000071,0.5920026294405316,-0.20014302807309314
5.400000000000138,0.6185061726119002,-0.21534625661322188
5.600000000000205,0.6389521364436737,-0.23419145072830488
5.800000000000272,0.6623321288987393,-0.2526883744366011
6.000000000000338,0.6907537722023914,-0.2600704381536204
6.200000000000405,0.7264180168604754,-0.2590126121009218
6.400000000000472,0.7604024680891363,-0.26000374175945745
6.600000000000539,0.801237407495879,-0.24933892535322788
6.800000000000606,0.8458817413490488,-0.25132907686250305
7.000000000000672,0.8922834421836581,-0.2483658068679879
7.200000000000739,0.9370277496978823,-0.2445243230002357
7.400000000000806,0.9648745928393136,-0.2537507159113789
7.600000000000873,1.0017928965067886,-0.2461663054868235
7.8000000000009395,1.0338804606350338,-0.2491223770715946
8.000000000001005,1.066044004816279,-0.2560165596514185
8.200000000000895,1.1094577897688966,-0.2556500048251636
8.400000000000784,1.140386575173844,-0.2635958478624295
8.600000000000673,1.1668759043730041,-0.2801239057366294
8.800000000000562,1.193206233111049,-0.2977631824233416
9.000000000000451,1.2117586606918225,-0.3151598002596372
9.20000000000034,1.2202026062316975,-0.3324724918402779
9.40000000000023,1.239930768766759,-0.36021491973148606
9.600000000000119,1.2447530653426444,-0.38894325510993305
9.800000000000008,1.2401600413238099,-0.4214127436525003
10.000999999999896,1.2209949997266245,-0.4555392265420208
10.200999999999786,1.2010412662016756,-0.48761304521178966
10.400999999999675,1.200106101396784,-0.5278273671791189
10.600999999999564,1.206146279328574,-0.5646866848412923
10.800999999999453,1.2223128032634345,-0.6074164411370804
11.000999999999342,1.2327811987055066,-0.647857008521059
11.200999999999231,1.2391454766106222,-0.6912802879717002
11.40099999999912,1.241543195978129,-0.7326290234405456
11.60099999999901,1.2378507541798505,-0.7705352138241055
11.800999999998899,1.245618719935099,-0.8113526293181832
12.000999999998788,1.2576857366377234,-0.8630613768754596
12.200999999998677,1.268705243743468,-0.9185024898503003
12.400999999998566,1.2671244525929841,-0.9588379802674846
12.600999999998455,1.267520942963799,-0.9947624400271831
12.800999999998345,1.2624228811113745,-1.035037055828289
13.000999999998234,1.2616197570941685,-1.0782209850612663
13.200999999998123,1.2583892399002794,-1.1156587271839624
13.400999999998012,1.2508817966191104,-1.154264440831314
13.600999999997901,1.2471254415901023,-1.1972080646442724
13.80099999999779,1.236863804711909,-1.2314609891975552
14.00099999999768,1.2248692557935705,-1.2578204189947584
14.200999999997569,1.2154384463279349,-1.2862547542298282
14.400999999997458,1.211701578908201,-1.3229348403916728
14.600999999997347,1.2236953955645147,-1.363764719431165
14.800999999997236,1.2294443266792932,-1.3991842931133203
15.000999999997125,1.2224356035099848,-1.4361418802208195
15.200999999997014,1.219636035415697,-1.4730890857849843
15.400999999996904,1.212999023987722,-1.5133631188124372
15.600999999996793,1.2144457927459416,-1.5524903010674411
15.800999999996682,1.2121922113250188,-1.590952933036845
16.000999999996573,1.2041269882259693,-1.6220689862986803
16.200999999996817,1.1903046085954976,-1.6530180912941546
16.40099999999706,1.1908303458458642,-1.6822373696052786
16.600999999997306,1.1969618117670158,-1.7125684809721176
16.80099999999755,1.1965214497817145,-1.741729160783176
17.000999999997795,1.2052820142088008,-1.780416494562758
17.20099999999804,1.2047037818875224,-1.8198713252770795
17.400999999998284,1.2085280755651855,-1.8634498465018285
17.60099999999853,1.201670642219378,-1.8958016834323856
17.800999999998773,1.1924740105318743,-1.9289453873394873
18.000999999999017,1.181776478697438,-1.9631710448486952
18.20099999999926,1.1798276011787574,-2.0003168221919587
18.400999999999506,1.1845480760993394,-2.040531667693872
18.60099999999975,1.193213986210981,-2.079185040198979
18.799999999999994,1.2057013339419032,-2.1223625696271253
19.000000000000238,1.2082066257834494,-2.1573576028886636
19.200000000000482,1.2096966220795746,-2.189667667969092
19.400000000000727,1.2271861685474224,-2.223611777673843
19.60000000000097,1.239225903723988,-2.2637183278999315
19.800000000001216,1.2420001771210132,-2.3075881430776506
20.00000000000146,1.251787266222785,-2.3555381356405563
