Time (s),X (m),Y (m)
0.001,0.0009492268646305597,0.0007291460897812449
0.20000000000000015,0.0035780383847510444,0.0014867686476411947
0.4000000000000003,0.015663142803741505,0.004298127949987362
0.6000000000000004,0.03329828638024263,0.009786300018532154
0.8000000000000006,0.05122481188476749,0.012641035980809689
1.0000000000000007,0.07246780794665746,0.009600074673359727
1.2009999999999785,0.08889136323413405,0.008487453208505307
1.4009999999999565,0.09481583205399166,0.010333309352024754
1.6009999999999345,0.10640854794523519,0.013920413634848697
1.8009999999999124,0.1366816954169422,0.014458797608252735
2.0009999999998906,0.1663317170419618,0.014510056775534182
2.2009999999998686,0.20573195553030374,0.008526748867285815
2.4009999999998466,0.2443404228726204,-0.011985626162416092
2.6009999999998246,0.2767910251242645,-0.04283946476302392
2.8009999999998025,0.29543760947719855,-0.07888667629617727
3.0009999999997805,0.3086250743644723,-0.11510748175705071
3.2009999999997585,0.3205846932930438,-0.1362454940435496
3.4009999999997365,0.3177725283665409,-0.15879356210207804
3.6009999999997144,0.29774538321264327,-0.17742178742353285
3.8009999999996924,0.2665999536539858,-0.2043737317677765
4.000999999999671,0.22977266826870535,-0.23305551786525644
4.200999999999738,0.19417077355687434,-0.2652477845749521
4.400999999999804,0.15424237300978225,-0.31783547142461843
4.600999999999871,0.10319221097897839,-0.3732289466736453
4.800999999999938,0.05093822389929914,-0.41563063820104174
5.000000000000004,0.004382989756801483,-0.4355452349183779
5.200000000000071,-0.043255469089615216,-0.4350808743999971
5.400000000000138,-0.08573395342832087,-0.41882103744506743
5.600000000000205,-0.12884492785243148,-0.3937882558882829
5.800000000000272,-0.18709607383322205,-0.37443763358417903
6.000000000000338,-0.23456930551097263,-0.3573405613783973
6.200000000000405,-0.27745806352852775,-0.33073923674494576
6.400000000000472,-0.31742486980706297,-0.2947580987223214
6.600000000000539,-0.35290931158695027,-0.248772771796018
6.800000000000606,-0.39275923626301223,-0.1921834599479132
7.000000000000672,-0.43091779615205184,-0.13293851971288959
7.200000000000739,-0.4693508758045533,-0.07490135178765209
7.400000000000806,-0.5092385436213501,-0.008836971729736113
7.600000000000873,-0.5459370742541944,0.05903031828002728
7.8000000000009395,-0.5739706702277287,0.12521749948706218
8.000000000001005,-0.5925827783446794,0.1812602211092791
8.200000000000895,-0.6229664624424107,0.23908794115747625
8.400000000000784,-0.6607821131344296,0.29684000964479146
8.600000000000673,-0.7003650842037842,0.3567570646906875
8.800000000000562,-0.7467134899971352,0.41960232407708
9.000000000000451,-0.8042215060555336,0.4916816992081969
9.20000000000034,-0.8653682689065906,0.568898404703985
9.40000000000023,-0.9266770339443341,0.6579143596106969
9.600000000000119,-0.9757390073034812,0.7308537353125688
9.800000000000008,-1.015285355494131,0.8051164150907756
10.000999999999896,-1.0408482774655876,0.8834341380571895
10.200999999999786,-1.0614698318772808,0.9589264605552767
10.400999999999675,-1.0809824414627796,1.048831701886697
10.600999999999564,-1.1020640335551823,1.133218122706139
10.800999999999453,-1.1129245526407516,1.2097614386300148
11.000999999999342,-1.1002975671346995,1.2767453180072523
11.200999999999231,-1.073013504639456,1.3416747820957198
11.40099999999912,-1.0471394472075903,1.397653171476784
11.60099999999901,-1.014624757656765,1.4512057528946933
11.800999999998899,-0.975564321932395,1.510226476609843
12.000999999998788,-0.9401740473427217,1.5719653974992995
12.200999999998677,-0.9010343231442481,1.631935738235281
12.400999999998566,-0.8554857189763078,1.6850451405512321
12.600999999998455,-0.7993583206148833,1.7326644435225165
12.800999999998345,-0.7432350165266626,1.7881886789247585
13.000999999998234,-0.6812373558766486,1.8350520103085377
13.200999999998123,-0.6145689877745256,1.8824474888373544
13.400999999998012,-0.5433265452171967,1.9302396119821783
13.600999999997901,-0.46999742536338407,1.9714348717992323
13.80099999999779,-0.39258718437277024,2.0046962971037217
14.00099999999768,-0.33297567625636404,2.0116129887445537
14.200999999997569,-0.28791514330076595,1.9806370271969451
14.400999999997458,-0.24743231098687238,1.925527211686963
14.600999999997347,-0.2168131095318727,1.8626718107857838
14.800999999997236,-0.1999085418159059,1.7958472387561695
15.000999999997125,-0.20525076556459518,1.7352829548247237
15.200999999997014,-0.22415888748969398,1.6802229923020713
15.400999999996904,-0.25195607288265176,1.6117546052536884
15.600999999996793,-0.2800856457302604,1.5488472546882894
15.800999999996682,-0.3125640835764273,1.4930660922203713
16.000999999996573,-0.3551916489091458,1.447788040616662
16.200999999996817,-0.4043376611372526,1.4113721761901525
16.40099999999706,-0.4646995317335204,1.376417905131488
16.600999999997306,-0.5304532484233108,1.3523740344236346
16.80099999999755,-0.593323983074028,1.345793854444349
17.000999999997795,-0.6672888580255836,1.3499136290175706
17.20099999999804,-0.7497773332356815,1.3589245103830316
17.400999999998284,-0.8189167720382597,1.373184685729681
17.60099999999853,-0.8821091578887145,1.4079853974051075
17.800999999998773,-0.9382829186056837,1.4523166774171568
18.000999999999017,-0.9765983719861395,1.51062381966199
18.20099999999926,-0.9957058046595224,1.5843206461118922
18.400999999999506,-1.0036915402648192,1.6539256598809826
18.60099999999975,-0.9884765418890353,1.6988120058019773
18.799999999999994,-0.9494852133484818,1.7386804375287301
19.000000000000238,-0.8977990328371918,1.7742687763375597
19.200000000000482,-0.844576828583124,1.8026600360056677
19.400000000000727,-0.7880082890358927,1.8289844145724596
19.60000000000097,-0.731936264893441,1.8505035769055622
19.800000000001216,-0.6768650179433646,1.855716580477974
20.00000000000146,-0.6205937967736295,1.8578632508991184
