Time (s),X (m),Y (m)
0.001,0.0011546366250239817,0.000435790549910003
0.20000000000000015,-0.001757963301469019,-0.0020890941446928602
0.4000000000000003,0.0006227530193699578,-0.0025200617561347265
0.6000000000000004,0.01757256472623443,0.0017678264267820152
0.8000000000000006,0.02683557257520266,0.006440957624097876
1.0000000000000007,0.030946735595892956,0.010098269372956605
1.2009999999999785,0.05193284201822599,0.013691265467914483
1.4009999999999565,0.06867142893733247,0.01750977595020114
1.6009999999999345,0.08140994877189586,0.016591652857022594
1.8009999999999124,0.10779370764762389,0.01599652405022487
2.0009999999998906,0.11605731265116132,0.017258822438967696
2.2009999999998686,0.12590606439441226,0.009032386733591611
2.4009999999998466,0.1502640129472616,-0.0143050981537912
2.6009999999998246,0.19154687732557965,-0.0308143642586307
2.8009999999998025,0.22338109163414427,-0.046393234147229664
3.0009999999997805,0.25514823233085443,-0.06600348068618372
3.2009999999997585,0.28139918574635303,-0.08077674520731262
3.4009999999997365,0.31498809075365464,-0.0954614927716067
3.6009999999997144,0.34402489392743835,-0.11477267535617633
3.8009999999996924,0.38320095740948595,-0.13917693339255072
4.000999999999671,0.42455862255978655,-0.15938126570422073
4.200999999999738,0.467595714353937,-0.17946830002297912
4.400999999999804,0.5102495193860087,-0.20249641880191158
4.600999999999871,0.5638280998313172,-0.23255853633500356
4.800999999999938,0.6134997240186665,-0.2656976907292781
5.000000000000004,0.6674160627843879,-0.30542543008184947
5.200000000000071,0.7103184592740808,-0.3479420024668481
5.400000000000138,0.7521523725630039,-0.39187039313808136
5.600000000000205,0.7858436811122496,-0.43594546599618467
5.800000000000272,0.8082519142825516,-0.4770443447983227
6.000000000000338,0.8413116071592923,-0.511676500659254
6.200000000000405,0.8765956048597684,-0.5390204305995167
6.400000000000472,0.9041253987057523,-0.5653260211386877
6.600000000000539,0.9322291564169353,-0.5914784925720319
6.800000000000606,0.9637346181654376,-0.621452249869097
7.000000000000672,0.9955282635581147,-0.6502214465587738
7.200000000000739,1.028435518789095,-0.683017552734261
7.400000000000806,1.0589507264923887,-0.7133863501391089
7.600000000000873,1.0970308840592469,-0.7407520833714947
7.8000000000009395,1.1245828447566162,-0.7716234530995361
8.000000000001005,1.1463750537692807,-0.794511910646973
8.200000000000895,1.1724143285830033,-0.819819869216306
8.400000000000784,1.2092189002026166,-0.8494920048788311
8.600000000000673,1.2488804201668278,-0.8777437870139012
8.800000000000562,1.2991817144152276,-0.9005982544863368
9.000000000000451,1.3493940947838927,-0.9181672048233774
9.20000000000034,1.3915727904423292,-0.9351084258131697
9.40000000000023,1.4414781299183936,-0.9491292661963796
9.600000000000119,1.4687713369347855,-0.9510952776333962
9.800000000000008,1.4965449008942682,-0.9491471681293295
10.000999999999896,1.5398174313807576,-0.9456285026919788
10.200999999999786,1.5950672449207424,-0.9500150096604234
10.400999999999675,1.6495772450933204,-0.9691410136165884
10.600999999999564,1.7016986915193266,-1.0049387686664408
10.800999999999453,1.747736286216286,-1.046131118665192
11.000999999999342,1.7996991910790179,-1.090315322594682
11.200999999999231,1.8474571530517723,-1.1345787024242837
11.40099999999912,1.893845365548541,-1.178641593140473
11.60099999999901,1.931439949255154,-1.2245114479005823
11.800999999998899,1.9715943031692673,-1.2712530169016472
12.000999999998788,2.005596886726464,-1.3121610825561911
12.200999999998677,2.0445014132969943,-1.3554481237070106
12.400999999998566,2.079245546804038,-1.3948911503431574
12.600999999998455,2.1242713549089762,-1.4445352721876297
12.800999999998345,2.1581816233066102,-1.482965388667827
13.000999999998234,2.200053280466894,-1.5301108131325085
13.200999999998123,2.245751071256265,-1.5757186070337843
13.400999999998012,2.2995038401887444,-1.6280482094247906
13.600999999997901,2.361365088873625,-1.686244983683396
13.80099999999779,2.4166140024449287,-1.7450521599008038
14.00099999999768,2.4599992695565964,-1.7965464912436073
14.200999999997569,2.508566933881323,-1.8433984382804207
14.400999999997458,2.561456935320943,-1.8909072401350455
14.600999999997347,2.6161730158990038,-1.9400393369853832
14.800999999997236,2.6761967501924495,-1.9909558744774845
15.000999999997125,2.7328520437643884,-2.0435345543705004
15.200999999997014,2.7892305725150965,-2.098201317024704
15.400999999996904,2.8346880751239634,-2.147600093464249
15.600999999996793,2.8689578125246022,-2.1896922778402326
15.800999999996682,2.900836217711982,-2.22196933022893
16.000999999996573,2.9416255116931533,-2.2462246546655322
16.200999999996817,2.9813745131146634,-2.2701220266364617
16.40099999999706,3.0225764615265356,-2.2990433304305435
16.600999999997306,3.075771285966134,-2.3315299824865847
16.80099999999755,3.137715232518937,-2.3705601898647433
17.000999999997795,3.189417069520115,-2.412586926111858
17.20099999999804,3.234512375486544,-2.459646674868911
17.400999999998284,3.2872057194480693,-2.511186674516341
17.60099999999853,3.3398397135912847,-2.563096963264083
17.800999999998773,3.404643250969441,-2.6088868489425283
18.000999999999017,3.4724656702504224,-2.6532853882149756
18.20099999999926,3.5335051614056363,-2.6926611054633924
18.400999999999506,3.57361453872619,-2.733489742263257
18.60099999999975,3.6101369848070917,-2.7662773165748273
18.799999999999994,3.6527457417105844,-2.7897979380895244
19.000000000000238,3.703818382864414,-2.8048780618352156
19.200000000000482,3.755040932343812,-2.82585767832649
19.400000000000727,3.8101117005301925,-2.860531915441471
19.60000000000097,3.8605411426849345,-2.9057589986790497
19.800000000001216,3.90348179633489,-2.9500404409175087
20.00000000000146,3.943500135844392,-3.0025199796606645
