Time (s),X (m),Y (m)
0.001,0.0008829029745972832,0.0007899207378008392
0.20000000000000015,0.0009736337661781989,-0.0037679319208213198
0.4000000000000003,0.006772383085415105,-0.004618555590353453
0.6000000000000004,0.01722921658295696,-0.004582838272443247
0.8000000000000006,0.034838919260829236,-0.0027673725889850315
1.0000000000000007,0.053226734400688314,0.0018738741245542475
1.2009999999999785,0.0912988348476159,0.00905979748386386
1.4009999999999565,0.1401619765713476,0.015713141889120857
1.6009999999999345,0.19122009295517606,0.029501757643850806
1.8009999999999124,0.237072513775519,0.04046140476097621
2.0009999999998906,0.2932287110831602,0.05939802867379703
2.2009999999998686,0.36177134565014724,0.08672470863702225
2.4009999999998466,0.4346051532275423,0.1150510634708645
2.6009999999998246,0.489469396284097,0.12950906355404088
2.8009999999998025,0.5195187750727144,0.12701834372429585
3.0009999999997805,0.5306804918229459,0.11184634713657632
3.2009999999997585,0.5476940799181905,0.08166473580968286
3.4009999999997365,0.5800459061994899,0.03797211373772009
3.6009999999997144,0.6088095964391538,-0.006998257126130281
3.8009999999996924,0.6407097464760101,-0.060218672019493664
4.000999999999671,0.6777068804201395,-0.13579000593487936
4.200999999999738,0.7175462679189017,-0.21670344967031627
4.400999999999804,0.7461955222575849,-0.285035333199926
4.600999999999871,0.7480045946416894,-0.3277946357685042
4.800999999999938,0.7321025154290983,-0.36116028170121073
5.000000000000004,0.7002088800517369,-0.39377648314690017
5.200000000000071,0.6456157268767955,-0.42281357750158227
5.400000000000138,0.5778188947808365,-0.4596553292827274
5.600000000000205,0.5037934094280938,-0.5107987970107608
5.800000000000272,0.4297995741848569,-0.5629508515994689
6.000000000000338,0.35075956462744207,-0.6192429942052392
6.200000000000405,0.2718452340745241,-0.6680581859339388
6.400000000000472,0.20171204643261673,-0.7032764612469247
6.600000000000539,0.15285214067021616,-0.7133433746511909
6.800000000000606,0.09733956312472906,-0.6927876548495473
7.000000000000672,0.05164143104448965,-0.651796432986265
7.200000000000739,0.009590440866885238,-0.5957857956765296
7.400000000000806,-0.034004624842360484,-0.5265876399584491
7.600000000000873,-0.07661854755352873,-0.45138570932917815
7.8000000000009395,-0.10841792381669212,-0.37137047476664725
8.000000000001005,-0.11893609782380805,-0.29553862531707037
8.200000000000895,-0.102996745818151,-0.24269374208055278
8.400000000000784,-0.06721738200432245,-0.1956835336048754
8.600000000000673,-0.016731600647319267,-0.156268167006414
8.800000000000562,0.035608874798275195,-0.13075872144453884
9.000000000000451,0.08367052892037379,-0.12678099917845528
9.20000000000034,0.12362487323508038,-0.14300837751300055
9.40000000000023,0.1645496765612411,-0.18296760447100616
9.600000000000119,0.20856448230604552,-0.2453438881833111
9.800000000000008,0.25204848458881546,-0.31027653647520975
10.000999999999896,0.2815397420400956,-0.37697888350236736
10.200999999999786,0.29174713226768095,-0.43838435599624
10.400999999999675,0.2857159532896129,-0.4899074218038278
10.600999999999564,0.26889387812469395,-0.5363571071591916
10.800999999999453,0.2362176351499008,-0.5857078698689563
11.000999999999342,0.1930122528462482,-0.6262445905740935
11.200999999999231,0.1376351392618684,-0.6625809343763519
11.40099999999912,0.07508654104394905,-0.7125566983214089
11.60099999999901,0.007412203762513368,-0.7588900671267842
11.800999999998899,-0.06735472124500907,-0.8065259401555352
12.000999999998788,-0.15114137191522328,-0.8603425345954722
12.200999999998677,-0.2367490743687349,-0.9092848248959388
12.400999999998566,-0.2980258841102039,-0.9402913048087409
12.600999999998455,-0.36619832634981037,-0.9340183203512472
12.800999999998345,-0.4225057882003757,-0.9017208382372255
13.000999999998234,-0.46297818609788705,-0.8589379659004108
13.200999999998123,-0.5015802041369293,-0.8052501058185852
13.400999999998012,-0.5343208240049381,-0.7501244821932408
13.600999999997901,-0.5739233810118315,-0.6830487235889497
13.80099999999779,-0.607605636531681,-0.6183942177665125
14.00099999999768,-0.6356275825004458,-0.5550169463966385
14.200999999997569,-0.6490859167124281,-0.5070520446834337
14.400999999997458,-0.6304786180724266,-0.47072351539302953
14.600999999997347,-0.5894884450594503,-0.4205520844729267
14.800999999997236,-0.5296496755213077,-0.35713299959431644
15.000999999997125,-0.4555286411343969,-0.2800857604647773
15.200999999997014,-0.3823157993369319,-0.20792071952545663
15.400999999996904,-0.31105195036478334,-0.14296894534196913
15.600999999996793,-0.23070645343680352,-0.0830303983277741
15.800999999996682,-0.14783887966020223,-0.0263272583846787
16.000999999996573,-0.06477305562138912,0.024123070371305157
16.200999999996817,0.019408840772397302,0.06858363908203345
16.40099999999706,0.11837333199665379,0.1205050425137178
16.600999999997306,0.21701897852255145,0.17113093705528
16.80099999999755,0.2983002465176286,0.20430242240450702
17.000999999997795,0.36963579317983764,0.20229329447027972
17.20099999999804,0.4261321996308719,0.17370686031018612
17.400999999998284,0.4731035483907267,0.12888579241608808
17.60099999999853,0.5279621603861079,0.0730920678201665
17.800999999998773,0.5774864234701035,0.008817698359192425
18.000999999999017,0.6205893885020556,-0.06257054096551687
18.20099999999926,0.6575303719831571,-0.1331247989203242
18.400999999999506,0.6848756548273239,-0.1960392355657753
18.60099999999975,0.6913857160887724,-0.2612490435945503
18.799999999999994,0.6903525608880863,-0.3273612085433837
19.000000000000238,0.6704924120823386,-0.38522783812930816
19.200000000000482,0.6213035425936138,-0.4393687392765251
19.400000000000727,0.5604559416954906,-0.47971476847643424
19.60000000000097,0.5013882875867737,-0.5110495755130875
19.800000000001216,0.4422126512859202,-0.5356204910383423
20.00000000000146,0.3697355517707405,-0.5475477569076517
