Time (s),X (m),Y (m)
0.001,0.0010647643868879006,-0.0005914538325516239
0.20000000000000015,-0.0010199653975339507,0.0008052980093961391
0.4000000000000003,0.011103196479220864,-0.0042444820632872434
0.6000000000000004,0.03421953684261131,-0.0025005758770568105
0.8000000000000006,0.05390745467499247,0.005480669773545017
1.0000000000000007,0.08066935396310858,0.01093203329829272
1.2009999999999785,0.11247894696095376,0.002621492408273823
1.4009999999999565,0.1474847610473619,-0.013499696920229901
1.6009999999999345,0.17934242778929582,-0.024850403239894764
1.8009999999999124,0.19936360521866348,-0.0401459290148379
2.0009999999998906,0.21249155242475562,-0.06846527977434665
2.2009999999998686,0.21556728503704467,-0.10457421158673287
2.4009999999998466,0.21413304253113338,-0.15371643166383472
2.6009999999998246,0.21485082307740302,-0.2053590977507509
2.8009999999998025,0.20128595119264364,-0.2677146633077586
3.0009999999997805,0.18391687567135237,-0.33585163342782676
3.2009999999997585,0.16927465100668296,-0.39485940170824185
3.4009999999997365,0.141947639776689,-0.44881186777591486
3.6009999999997144,0.09789567485388656,-0.4827922923897048
3.8009999999996924,0.0528819085703599,-0.49218462454595246
4.000999999999671,0.007600428749012595,-0.4967178871233353
4.200999999999738,-0.03267940478872054,-0.4917751985545778
4.400999999999804,-0.056629982387439964,-0.4659035193234824
4.600999999999871,-0.06592276623969713,-0.4324543324530599
4.800999999999938,-0.04314024541801638,-0.4011889246561923
5.000000000000004,0.007821050928353914,-0.3864998493385924
5.200000000000071,0.06610323506814775,-0.38532355148251773
5.400000000000138,0.12302351296268729,-0.3885446698746465
5.600000000000205,0.1759559264236949,-0.398184848017913
5.800000000000272,0.2124729863218354,-0.4148313442421497
6.000000000000338,0.23216026309808474,-0.4465524638318582
6.200000000000405,0.22886821839087876,-0.4844152091967334
6.400000000000472,0.18997084412650034,-0.5119140307029689
6.600000000000539,0.12059301500843737,-0.5226826532324105
6.800000000000606,0.03966505328264286,-0.5199576098059945
7.000000000000672,-0.03349132638724859,-0.5118940063338134
7.200000000000739,-0.09995299712323252,-0.5012066637277134
7.400000000000806,-0.1591463514356994,-0.49121497348402626
7.600000000000873,-0.23025913737305348,-0.4756392635265545
7.8000000000009395,-0.29330934059393915,-0.45363600236718243
8.000000000001005,-0.33873159592824326,-0.42392269293970664
8.200000000000895,-0.3562056758851837,-0.3763910451147038
8.400000000000784,-0.3465543650769316,-0.31444299937327064
8.600000000000673,-0.32771074311206977,-0.24322771563541606
8.800000000000562,-0.3060094907627752,-0.17507587697743413
9.000000000000451,-0.2799167036684942,-0.1056302237678939
9.20000000000034,-0.23652398795751706,-0.031358749243889254
9.40000000000023,-0.18681282142725403,0.027335150943358137
9.600000000000119,-0.13152447380219354,0.06615077774848833
9.800000000000008,-0.0706190424082171,0.08479399471520277
10.000999999999896,-0.00045615269571068403,0.0782609885432741
10.200999999999786,0.07239048700018869,0.05097028903459156
10.400999999999675,0.134754699627039,0.0195794860168605
10.600999999999564,0.17025702493935987,-0.026146291263858944
10.800999999999453,0.1836025323194955,-0.0770060779161044
11.000999999999342,0.1658783288569731,-0.12685613851037705
11.200999999999231,0.12771350318365254,-0.1594966907550879
11.40099999999912,0.08224834009259514,-0.18101546549413894
11.60099999999901,0.03377889944257459,-0.18474499022067775
11.800999999998899,-0.00969310491350935,-0.15885772032040213
12.000999999998788,-0.03718198849922509,-0.10571582570468771
12.200999999998677,-0.04874499006676773,-0.037052385377881705
12.400999999998566,-0.046049833342219224,0.03776459669714856
12.600999999998455,-0.020148998082603644,0.11532187072298399
12.800999999998345,0.04169027229471118,0.1902416425547165
13.000999999998234,0.11299932239027306,0.24619401947087005
13.200999999998123,0.17597343616074285,0.2813560252504782
13.400999999998012,0.2452793769555707,0.28642448798526376
13.600999999997901,0.3108367562339478,0.2718735473777502
13.80099999999779,0.3450147142330369,0.24262328187448262
14.00099999999768,0.33778215271783096,0.20823639783530812
14.200999999997569,0.3177898875936502,0.18418746125893773
14.400999999997458,0.28002418746348856,0.16741517352820517
14.600999999997347,0.2253764757615215,0.16632157150442392
14.800999999997236,0.16631843571757368,0.17632171853770442
15.000999999997125,0.11063708387262017,0.19500563537603
15.200999999997014,0.06264689919827503,0.22670267888904075
15.400999999996904,0.026783952695800417,0.26660716021094405
15.600999999996793,0.009030251334166513,0.316288548365271
15.800999999996682,0.014563788708930792,0.3827888772971778
16.000999999996573,0.03506232108618803,0.4513381594712598
16.200999999996817,0.06259531401809379,0.5250079178942341
16.40099999999706,0.10112383887218743,0.5991901390138844
16.600999999997306,0.15092236525684438,0.66792506323653
16.80099999999755,0.20306232779483663,0.703846077940524
17.000999999997795,0.2588079909822929,0.7045343623473244
17.20099999999804,0.31513847596790934,0.7050279675029314
17.400999999998284,0.3596766949143518,0.6795603798542712
17.60099999999853,0.37698523737993705,0.6291546930358356
17.800999999998773,0.3732750378560593,0.5650740579562417
18.000999999999017,0.3621209391032192,0.5019068961052137
18.20099999999926,0.3464624264329679,0.4413694124952138
18.400999999999506,0.32719612337050374,0.383401346534279
18.60099999999975,0.28940410457361765,0.3540806618784469
18.799999999999994,0.25362773604725863,0.3366714374318227
19.000000000000238,0.20623474609194842,0.3256790360272357
19.200000000000482,0.14499849416672117,0.3308909264443617
19.400000000000727,0.07528771194508749,0.3422092007741681
19.60000000000097,0.002824427206780074,0.36943354456208993
19.800000000001216,-0.06012755055167662,0.41523812449005526
20.00000000000146,-0.09530341112592361,0.4680481479968507
