Time (s),X (m),Y (m)
0.001,0.00048696676677933824,-0.0009960320817112695
0.20000000000000015,0.001665038116679864,0.000457854210417361
0.4000000000000003,0.0034191317815019987,0.00450099559251322
0.6000000000000004,0.009701378244450842,0.004022886805703855
0.8000000000000006,0.018800185011729042,0.0067401837811270895
1.0000000000000007,0.029859722844623477,0.009721592413731333
1.2009999999999785,0.04256339781516503,0.010293860102320326
1.4009999999999565,0.055196863682693185,0.014717501319703124
1.6009999999999345,0.06791800199180523,0.016994235810917753
1.8009999999999124,0.08491486545902589,0.01936214587151518
2.0009999999998906,0.09840384753287515,0.011909728332169998
2.2009999999998686,0.11084542007038205,0.012220486274907504
2.4009999999998466,0.12172094532839471,0.002206555696289071
2.6009999999998246,0.13644348783791194,-0.004866270361126467
2.8009999999998025,0.14546877161210164,-0.004983562132834082
3.0009999999997805,0.15749249146783847,-0.015459047111144826
3.2009999999997585,0.1730114542418776,-0.020605983167908282
3.4009999999997365,0.18360845461680886,-0.03279421853105247
3.6009999999997144,0.19332772443433693,-0.04583122067589831
3.8009999999996924,0.19782618998340862,-0.06935898707081171
4.000999999999671,0.21093106467621484,-0.08013225840307901
4.200999999999738,0.22726550296755813,-0.08307970530397596
4.400999999999804,0.23650639163482978,-0.09105015555411035
4.600999999999871,0.24827326892812857,-0.09731516534488162
4.800999999999938,0.25390247887357226,-0.10459388378566918
5.000000000000004,0.26316654971881714,-0.11772734085868797
5.200000000000071,0.2705792409416293,-0.13233978887073083
5.400000000000138,0.2849661184150548,-0.14310411634460649
5.600000000000205,0.2907068319494487,-0.15564908410002862
5.800000000000272,0.3094565991319956,-0.16746965709173156
6.000000000000338,0.32630234256070406,-0.17693960570908202
6.200000000000405,0.34050192064654844,-0.1881812215387193
6.400000000000472,0.35294176153862106,-0.19614786390421418
6.600000000000539,0.37160409307293085,-0.19738283520710007
6.800000000000606,0.3890577715877651,-0.1976037325744334
7.000000000000672,0.40180115243814346,-0.20186213478140083
7.200000000000739,0.41728033425106315,-0.21146139784720697
7.400000000000806,0.42817667841899515,-0.22715873396673456
7.600000000000873,0.43461044978373936,-0.24274688842785397
7.8000000000009395,0.4419275187117085,-0.25377010445681186
8.000000000001005,0.4555313447697534,-0.2602381647164201
8.200000000000895,0.47293266599191175,-0.2589481633508688
8.400000000000784,0.4825794722153774,-0.2684016847920103
8.600000000000673,0.49855323016307845,-0.2772647356853006
8.800000000000562,0.5008643029870824,-0.30526583155737447
9.000000000000451,0.508566491331321,-0.3228430620225734
9.20000000000034,0.5241666139153273,-0.32804922972914885
9.40000000000023,0.5336157163422759,-0.33595596535671834
9.600000000000119,0.5491244883314039,-0.34658212814441286
9.800000000000008,0.5650300581011936,-0.36032216258863514
10.000999999999896,0.5708078676731654,-0.3700607529197292
10.200999999999786,0.5812387431773707,-0.37548525183708376
10.400999999999675,0.5913708475191973,-0.3896152963201735
10.600999999999564,0.6025601144178541,-0.39959534441337585
10.800999999999453,0.6192069204429196,-0.40070198495016834
11.000999999999342,0.6385073677555205,-0.40887388703946087
11.200999999999231,0.6513633914586724,-0.42181634014647945
11.40099999999912,0.6610582195741082,-0.43721752254162677
11.60099999999901,0.6765157184675993,-0.44585138813805747
11.800999999998899,0.6987709302130808,-0.44565780619504813
12.000999999998788,0.7200339290610221,-0.4484196116139722
12.200999999998677,0.735718185033453,-0.45853692162480036
12.400999999998566,0.7516193170977813,-0.4609096579765968
12.600999999998455,0.7749953747791025,-0.4623456512380108
12.800999999998345,0.7885118344980738,-0.4743471401644875
13.000999999998234,0.8102254368989704,-0.48024920175153624
13.200999999998123,0.8185784225459316,-0.4972074679837386
13.400999999998012,0.8223696759379329,-0.5128311217337167
13.600999999997901,0.8264735378656984,-0.529021700085116
13.80099999999779,0.8421074643172795,-0.5345494116722216
14.00099999999768,0.8525600581795587,-0.5457730705276302
14.200999999997569,0.8656304435316334,-0.5532810618591113
14.400999999997458,0.8826781016277582,-0.5558392879795949
14.600999999997347,0.8882192395923474,-0.5613274464141998
14.800999999997236,0.895032138299202,-0.5659661836525806
15.000999999997125,0.9011223345268046,-0.5788493930434669
15.200999999997014,0.909227332352089,-0.5974556562108498
15.400999999996904,0.9181165312231124,-0.5988942809312915
15.600999999996793,0.9270689896420927,-0.601793295025607
15.800999999996682,0.944116603253978,-0.6032085855083862
16.000999999996573,0.9581458440879228,-0.620033819762335
16.200999999996817,0.9730476857774943,-0.6197318455503069
16.40099999999706,0.9834953266344238,-0.6312654935783629
16.600999999997306,0.9956917892130078,-0.6372788543099561
16.80099999999755,1.0050838462614378,-0.6516970164043703
17.000999999997795,1.0131525063691487,-0.6689976132602248
17.20099999999804,1.0176573064864807,-0.687736013416252
17.400999999998284,1.026693410694092,-0.7074667479168045
17.60099999999853,1.0345951100785213,-0.7241336130886218
17.800999999998773,1.049906458811622,-0.734061531126232
18.000999999999017,1.0643272285294125,-0.7557903107651053
18.20099999999926,1.0796718727055354,-0.7591297212553914
18.400999999999506,1.0912374006969408,-0.7780349238808261
18.60099999999975,1.1020910427325261,-0.7941525305211733
18.799999999999994,1.11716189279865,-0.8006638864014153
19.000000000000238,1.1344533797699217,-0.8055628995555002
19.200000000000482,1.1452334085834706,-0.8102782934960249
19.400000000000727,1.1569641982234815,-0.8175153722123822
19.60000000000097,1.1735090035942164,-0.8177731960677229
19.800000000001216,1.1864127225416612,-0.823885738398074
20.00000000000146,1.1943724040847845,-0.8439701046510933
