Time (s),X (m),Y (m)
0.001,0.0008829029745972832,0.0007899207378008392
0.20000000000000015,0.0048081922618068386,0.0028876947027888056
0.4000000000000003,0.010232860076722049,0.00346418494680488
0.6000000000000004,0.01181201689197996,-0.0003936398234388565
0.8000000000000006,0.014483191023356316,-0.003818581543373455
1.0000000000000007,0.021279654764816296,-0.006189092337018292
1.2009999999999785,0.027121502700621573,-0.002494342252344751
1.4009999999999565,0.03641162948806472,0.0036175369667808
1.6009999999999345,0.04910843342548368,0.010276689471161568
1.8009999999999124,0.05894833852282914,0.011584266176770835
2.0009999999998906,0.0652499260151022,0.016060735216786068
2.2009999999998686,0.07191466921103441,0.019969303589715933
2.4009999999998466,0.07956262610815089,0.019614918108151046
2.6009999999998246,0.08504746152846572,0.025755965140904485
2.8009999999998025,0.09348975295229128,0.03075486966231745
3.0009999999997805,0.10339822454003827,0.039058805133529995
3.2009999999997585,0.11379320604540868,0.04400163703683251
3.4009999999997365,0.12352545133781602,0.05367110362476832
3.6009999999997144,0.1341880395793951,0.05835989087601058
3.8009999999996924,0.14462094143414211,0.06534181345078327
4.000999999999671,0.1520425257170857,0.07075822563279945
4.200999999999738,0.15751337094292298,0.07821822994192827
4.400999999999804,0.16538030107132567,0.08688165084169
4.600999999999871,0.17636002065841178,0.09246544582111857
4.800999999999938,0.18435978733487723,0.10095091026553112
5.000000000000004,0.19311687368999048,0.10454392696659406
5.200000000000071,0.20280876139380452,0.10975864879419839
5.400000000000138,0.20889237059967455,0.11614318316365059
5.600000000000205,0.21614187267506157,0.1194706325584737
5.800000000000272,0.2244745976396014,0.12389751078793602
6.000000000000338,0.23096007872930285,0.130156657474258
6.200000000000405,0.2384798608029317,0.13895486053797695
6.400000000000472,0.24297084807849978,0.1474382403547875
6.600000000000539,0.24730728322722453,0.15476914642354495
6.800000000000606,0.2529096884366944,0.1612853484673416
7.000000000000672,0.2597020211655564,0.16390294551190304
7.200000000000739,0.26622801732258744,0.17476073928921776
7.400000000000806,0.270938370739955,0.18177429045258234
7.600000000000873,0.2774174823094807,0.18528038197255062
7.8000000000009395,0.28247262868831846,0.1953416651418094
8.000000000001005,0.2869970143285253,0.2035005314817336
8.200000000000895,0.29456953379356093,0.211098224446134
8.400000000000784,0.3001367303334025,0.2209233565820564
8.600000000000673,0.30628059918464406,0.23200203420837748
8.800000000000562,0.31269887755304704,0.239702065347502
9.000000000000451,0.3205647955432938,0.24978671818702958
9.20000000000034,0.32667142696692225,0.2558401799990613
9.40000000000023,0.3310439602314033,0.26100324305475264
9.600000000000119,0.3355742435721317,0.27204871595615404
9.800000000000008,0.34123093219103684,0.2822432870990617
10.000999999999896,0.3468596614679322,0.2933692436895004
10.200999999999786,0.35190412996999926,0.3013256314954041
10.400999999999675,0.3588871390994775,0.3121239973410585
10.600999999999564,0.3649183534415585,0.3192484232929803
10.800999999999453,0.3703780982087644,0.32966457201074156
11.000999999999342,0.37608610186938646,0.335388125387243
11.200999999999231,0.38255114263239137,0.33980908811178817
11.40099999999912,0.38691177068635313,0.3463100822942499
11.60099999999901,0.39124881729974553,0.3504400129624501
11.800999999998899,0.39627603258332916,0.36501789044343746
12.000999999998788,0.40044976086749706,0.3739009729653993
12.200999999998677,0.4030194248430614,0.3841363372331599
12.400999999998566,0.4062997978830716,0.39398371662313475
12.600999999998455,0.40968313106752074,0.4047628574593184
12.800999999998345,0.4130694419267435,0.41480857506125673
13.000999999998234,0.41581702938335846,0.4254800167818885
13.200999999998123,0.4207108083055809,0.4343414811155723
13.400999999998012,0.423913425426761,0.4498250791249645
13.600999999997901,0.42420876887490144,0.45859954881565235
13.80099999999779,0.4263286209244567,0.46647399837445624
14.00099999999768,0.42712625504078183,0.4739946310617736
14.200999999997569,0.429861731276817,0.48430744974859213
14.400999999997458,0.43120478515598126,0.4894533747054051
14.600999999997347,0.4296435727153365,0.4980214166999425
14.800999999997236,0.4293507236773363,0.5055589618458507
15.000999999997125,0.4245938652137287,0.5184019259756926
15.200999999997014,0.42082309716005845,0.5333108450592479
15.400999999996904,0.4188539996272406,0.5412364410812824
15.600999999996793,0.4168842126253437,0.5495754647014672
15.800999999996682,0.41553820578054307,0.5597620559099729
16.000999999996573,0.41262583574521494,0.5729381720593638
16.200999999996817,0.4091739310604345,0.5848824405429821
16.40099999999706,0.40315024099831187,0.597035336809706
16.600999999997306,0.388017609663372,0.6119045536822806
16.80099999999755,0.3814602529735013,0.6248770548217899
17.000999999997795,0.3710773188622009,0.6363819838913359
17.20099999999804,0.35749674018154787,0.6473498777172232
17.400999999998284,0.3539342900109428,0.6589262590276872
17.60099999999853,0.34669364543226194,0.6689959045363879
17.800999999998773,0.3405274466475935,0.6807096711142735
18.000999999999017,0.33318593454600626,0.6928748614146593
18.20099999999926,0.32435361166550414,0.7022720995109276
18.400999999999506,0.3163503553012259,0.7092000079821249
18.60099999999975,0.3046382852225328,0.717554979116726
18.799999999999994,0.30073605574240675,0.7281240139295865
19.000000000000238,0.29328073803029525,0.7354155596241844
19.200000000000482,0.28759039355655025,0.7443481452622552
19.400000000000727,0.2776024540699987,0.7500899244549865
19.60000000000097,0.26796563011622326,0.7550005424846411
19.800000000001216,0.2584502720764656,0.7619502749201946
20.00000000000146,0.24765753582960057,0.7677032210150903
