Time (s),X (m),Y (m)
0.001,0.0003099530129853942,0.0010272443824616275
0.20000000000000015,0.001438591541229557,0.00020370022403592454
0.4000000000000003,0.005246110619647662,0.00874527802094108
0.6000000000000004,0.009206107173840532,0.013334719019198998
0.8000000000000006,0.019640598059169928,0.02162756240926851
1.0000000000000007,0.03464761322830638,0.028000018813218373
1.2009999999999785,0.04880267873832085,0.03076246732541286
1.4009999999999565,0.06467517405179797,0.02816135535154874
1.6009999999999345,0.07415706297837114,0.021197532079193084
1.8009999999999124,0.08754139323662499,0.027336241966113364
2.0009999999998906,0.09781657179487191,0.024823710648508603
2.2009999999998686,0.11019216037313878,0.022317810658269238
2.4009999999998466,0.12196725455657964,0.028881461237688737
2.6009999999998246,0.13570057568596575,0.02683802319292962
2.8009999999998025,0.15019348807828528,0.03068526293708224
3.0009999999997805,0.1643146391797144,0.02923255901644232
3.2009999999997585,0.1744838399891572,0.029795770939819676
3.4009999999997365,0.1875323574843438,0.03135318006535576
3.6009999999997144,0.20108305818355074,0.025748293666046432
3.8009999999996924,0.21197526614430992,0.013541093641417734
4.000999999999671,0.2231335405743884,0.0015816404685793412
4.200999999999738,0.23403302515153251,-0.006530371691170719
4.400999999999804,0.2481773655506917,-0.006181403302221978
4.600999999999871,0.26566071133760116,-0.007843500404431636
4.800999999999938,0.27957666007928705,-0.015176902351474484
5.000000000000004,0.29601476329792675,-0.015076473125316561
5.200000000000071,0.3133294629205667,-0.017819066857879845
5.400000000000138,0.32851542652032634,-0.019682080775036262
5.600000000000205,0.33990384939644686,-0.026982386603250353
5.800000000000272,0.3567276753773176,-0.03319882412630987
6.000000000000338,0.3711211015146092,-0.03354953260696926
6.200000000000405,0.3872577073543716,-0.042924439678701305
6.400000000000472,0.40663680192627116,-0.05160381589571346
6.600000000000539,0.42296625816819744,-0.049415713342147456
6.800000000000606,0.4386331005862907,-0.05272650164666771
7.000000000000672,0.4541095253649223,-0.05275618890613362
7.200000000000739,0.46925103448902483,-0.0529851656663172
7.400000000000806,0.48826781321305873,-0.04808431661843852
7.600000000000873,0.5026704166607172,-0.0551686432050521
7.8000000000009395,0.5194800261699313,-0.05469197926868829
8.000000000001005,0.540336818159462,-0.05144899550424132
8.200000000000895,0.5572749461274293,-0.04999484519272339
8.400000000000784,0.5753973706213615,-0.04767099926826313
8.600000000000673,0.5918117006663518,-0.04925278021937557
8.800000000000562,0.6137121122779159,-0.05265983673753159
9.000000000000451,0.6286386014947135,-0.05215638627820445
9.20000000000034,0.6486884754466068,-0.048617566450607906
9.40000000000023,0.6681547029381899,-0.0445981035151685
9.600000000000119,0.6800593654879511,-0.05127812239788559
9.800000000000008,0.6898669387685318,-0.05750501581606841
10.000999999999896,0.7034826811716767,-0.06666494039280729
10.200999999999786,0.7223474517422911,-0.06702878676659195
10.400999999999675,0.742111729204491,-0.07502161331207118
10.600999999999564,0.7609230780653848,-0.07801612291678513
10.800999999999453,0.7748647998256329,-0.07772218762697648
11.000999999999342,0.7910431126934302,-0.08050890069529357
11.200999999999231,0.8047558902608805,-0.09123418802280381
11.40099999999912,0.8178327969076027,-0.10062366634738452
11.60099999999901,0.8315467419419391,-0.10079736563698496
11.800999999998899,0.8475181371158893,-0.10557808720556816
12.000999999998788,0.8665770943283116,-0.10671260578483055
12.200999999998677,0.886265322041953,-0.10739969342084447
12.400999999998566,0.8998616245898676,-0.11402945850769577
12.600999999998455,0.9141092753382724,-0.12197678941432202
12.800999999998345,0.9330561902622426,-0.11722418138960122
13.000999999998234,0.9462139501105269,-0.12880649264016236
13.200999999998123,0.9642463939249235,-0.12616831487836733
13.400999999998012,0.9836708621139604,-0.12367969561561992
13.600999999997901,1.0002995980244898,-0.1304834936125349
13.80099999999779,1.0113924084822346,-0.13618390893347435
14.00099999999768,1.0287821072961347,-0.13976827451576154
14.200999999997569,1.0462176784342152,-0.1426071972430469
14.400999999997458,1.0599412941382311,-0.14848868127108322
14.600999999997347,1.077832583531735,-0.14996730395593622
14.800999999997236,1.095052363513532,-0.15198636131961055
15.000999999997125,1.1123982601109486,-0.15368062512382544
15.200999999997014,1.127060450354173,-0.15590740555144647
15.400999999996904,1.1456437193474416,-0.15445789457714337
15.600999999996793,1.1674368721237647,-0.1423975513524906
15.800999999996682,1.1883425786228021,-0.1338380333325756
16.000999999996573,1.2065533453767034,-0.13594047586153282
16.200999999996817,1.2263998831988738,-0.13355548651948268
16.40099999999706,1.249504668570607,-0.12932191418676164
16.600999999997306,1.2698735137674888,-0.12305858350114968
16.80099999999755,1.289796318527365,-0.1331621163693489
17.000999999997795,1.3089274015585506,-0.12651131947586255
17.20099999999804,1.3250826020900384,-0.11486441850985561
17.400999999998284,1.3408766128617922,-0.11354918400956757
17.60099999999853,1.3606014892082026,-0.10961719533868637
17.800999999998773,1.3749126202373283,-0.12528518331217117
18.000999999999017,1.3906769890818909,-0.13152159031533686
18.20099999999926,1.4085414246458783,-0.12861027450981294
18.400999999999506,1.4247302344977735,-0.13386377906105087
18.60099999999975,1.4350880543925897,-0.1436011712297365
18.799999999999994,1.4463737159714642,-0.1394269773340794
19.000000000000238,1.4609330419873645,-0.14138897885028795
19.200000000000482,1.4783954620607642,-0.13905156138606672
19.400000000000727,1.4943935208045913,-0.14451006596757682
19.60000000000097,1.513785890381495,-0.14447274546982827
19.800000000001216,1.536546448117384,-0.14544518690111224
20.00000000000146,1.558041398138139,-0.14961108246770863
