Time (s),X (m),Y (m)
0.001,-0.0006729371591054965,0.000515584144559974
0.20000000000000015,0.006754732245543947,-0.0050303402291538854
0.4000000000000003,0.012692203602750031,-0.0030909522113812663
0.6000000000000004,0.029973129626774793,0.0010672839741412976
0.8000000000000006,0.045233693928456796,0.0012624454930854863
1.0000000000000007,0.06371691635306917,0.0005044057718726614
1.2009999999999785,0.08243808283131038,-0.0001596982612286977
1.4009999999999565,0.10537082639000481,-0.0034255724779319943
1.6009999999999345,0.1387873264530831,-0.019943234251286114
1.8009999999999124,0.1784018546726235,-0.035206153030050986
2.0009999999998906,0.21096516128689938,-0.044591040862312636
2.2009999999998686,0.22883227295921793,-0.041083454688292005
2.4009999999998466,0.2542471067468259,-0.04986018894134401
2.6009999999998246,0.28031822663344963,-0.05726410085283674
2.8009999999998025,0.3069792133919044,-0.07432158406526154
3.0009999999997805,0.32984070848673613,-0.07755121043947624
3.2009999999997585,0.35110071721825686,-0.09070719970817183
3.4009999999997365,0.3758253623533211,-0.11998695435809387
3.6009999999997144,0.3948431581336967,-0.15965137541151475
3.8009999999996924,0.4053890997851508,-0.19706170398947725
4.000999999999671,0.41027254165523125,-0.23334464569026428
4.200999999999738,0.4034086338132051,-0.27119675143283467
4.400999999999804,0.39970133963307675,-0.3058281238182905
4.600999999999871,0.39166883724150436,-0.3457612397723236
4.800999999999938,0.3907206020449854,-0.38314308220897
5.000000000000004,0.395341792316274,-0.41029491275451396
5.200000000000071,0.3969715629087226,-0.4421023465559993
5.400000000000138,0.3946758111935799,-0.48136861732504876
5.600000000000205,0.38970687557038913,-0.5226712200278179
5.800000000000272,0.3794382830893082,-0.5650429383233891
6.000000000000338,0.36179875868683203,-0.6115306604185851
6.200000000000405,0.344661265041692,-0.6579963708364888
6.400000000000472,0.3318946989621966,-0.698442622490696
6.600000000000539,0.3255409622939293,-0.7274491188237916
6.800000000000606,0.323490262293226,-0.7595584690055965
7.000000000000672,0.32657337209176057,-0.7937589709298477
7.200000000000739,0.3254391738466505,-0.8262675469644626
7.400000000000806,0.3082500735904522,-0.852512736548122
7.600000000000873,0.2864955680436742,-0.8766724275404895
7.8000000000009395,0.26644222273078577,-0.8922304083037434
8.000000000001005,0.22770341261598093,-0.8935195102485668
8.200000000000895,0.18955010291981955,-0.8859804669925786
8.400000000000784,0.1513046161326837,-0.8749304551699237
8.600000000000673,0.11314238485288404,-0.8622338499062728
8.800000000000562,0.07936637383661396,-0.8468151579553469
9.000000000000451,0.04135411831155878,-0.83104851571208
9.20000000000034,0.0054475295479781164,-0.7998724183120933
9.40000000000023,-0.019824392036111575,-0.7569131004874401
9.600000000000119,-0.031236462990966083,-0.7169882097804052
9.800000000000008,-0.027656406274768605,-0.6709002832945882
10.000999999999896,-0.020784753804185204,-0.6216849999368005
10.200999999999786,-0.013667689857593403,-0.5851403821656737
10.400999999999675,-0.00042464527958152836,-0.5465392242846023
10.600999999999564,0.014760962860655787,-0.5076476678678208
10.800999999999453,0.03113186949125848,-0.46934994969827626
11.000999999999342,0.03601196742870304,-0.43479986952193456
11.200999999999231,0.04565180472846661,-0.4049112636408755
11.40099999999912,0.057109122497010376,-0.37455023357630374
11.60099999999901,0.07392733579615657,-0.33434604804264423
11.800999999998899,0.09686833419418828,-0.2952350583798725
12.000999999998788,0.13086431307430757,-0.2671989271372167
12.200999999998677,0.1642981585515945,-0.2516390234140813
12.400999999998566,0.1968809617217572,-0.24247646413908266
12.600999999998455,0.23598762650459806,-0.24300832218809756
12.800999999998345,0.28039229841919444,-0.2524733288384275
13.000999999998234,0.32247469006910234,-0.2609369874417402
13.200999999998123,0.365650242320301,-0.27966487680302166
13.400999999998012,0.414393610767272,-0.30709818171490716
13.600999999997901,0.4617781080044199,-0.34049585042041614
13.80099999999779,0.5021134685949674,-0.3648113047413156
14.00099999999768,0.5278686585202998,-0.38529815675065465
14.200999999997569,0.53650766165167,-0.41751273075635753
14.400999999997458,0.5300325444469509,-0.4594885694434029
14.600999999997347,0.5209810204024238,-0.49826592973164174
14.800999999997236,0.5060871475879899,-0.5444833604371543
15.000999999997125,0.47876509756826113,-0.5942793815605909
15.200999999997014,0.45765370975367,-0.6359523354809798
15.400999999996904,0.43492916701960677,-0.6700246280175278
15.600999999996793,0.412414670949541,-0.6977105312782598
15.800999999996682,0.380478715955095,-0.7251255429328626
16.000999999996573,0.34042602734378696,-0.7448691513464913
16.200999999996817,0.2958755101012433,-0.7480870206660588
16.40099999999706,0.2575734026868806,-0.743513588623068
16.600999999997306,0.21515124022906917,-0.7408996291189204
16.80099999999755,0.17573989305608484,-0.7405607270078658
17.000999999997795,0.1307683912756185,-0.7339547050698404
17.20099999999804,0.09089807549494305,-0.725346199110701
17.400999999998284,0.04089549322967265,-0.7053120025575415
17.60099999999853,-0.010450997738707526,-0.6820491440756764
17.800999999998773,-0.05913711160502342,-0.6661343654240562
18.000999999999017,-0.10007403265742978,-0.6600666445059457
18.20099999999926,-0.13941731182001008,-0.6502724375231125
18.400999999999506,-0.17430174152002648,-0.6441169625060198
18.60099999999975,-0.22558682213370262,-0.6274119716287416
18.799999999999994,-0.2813249484198526,-0.6029786655508829
19.000000000000238,-0.3285613888190676,-0.5852564015070042
19.200000000000482,-0.37743308333300113,-0.5621034540717799
19.400000000000727,-0.42502860618025673,-0.5323821373040315
19.60000000000097,-0.4624569068869872,-0.4825712166044651
19.800000000001216,-0.48433988088230334,-0.44512912980158365
20.00000000000146,-0.4899481016284102,-0.41442976445349394
