Time (s),X (m),Y (m)
0.001,0.0012512490639692614,0.0
0.20000000000000015,-0.005262483133848443,0.0009387935543672645
0.4000000000000003,-0.0042630342663584,0.0007206462669423842
0.6000000000000004,0.008697531913511523,-0.00015856825261572385
0.8000000000000006,0.029192790471201255,-0.0007103981194538251
1.0000000000000007,0.047421098962565536,-0.00039521618753622255
1.2009999999999785,0.05335732871348282,-2.2357589280953555e-05
1.4009999999999565,0.052090141781013094,-0.001076020421057363
1.6009999999999345,0.052719798911824864,-0.0004075883213346657
1.8009999999999124,0.05849245063889629,-0.005012505005944806
2.0009999999998906,0.07458084294458583,-0.011929178857282577
2.2009999999998686,0.09607042616727152,-0.019575118261230928
2.4009999999998466,0.12047220275888458,-0.03735547786570571
2.6009999999998246,0.1362910152824054,-0.05064209238454355
2.8009999999998025,0.15582609770264963,-0.060984852820596853
3.0009999999997805,0.18450380257994314,-0.06692152458367384
3.2009999999997585,0.20082996999101557,-0.07681068615909815
3.4009999999997365,0.22756433093309061,-0.08278175834615407
3.6009999999997144,0.24446968656357074,-0.0850067761847911
3.8009999999996924,0.253578942861481,-0.09164678376522353
4.000999999999671,0.2690166121440483,-0.10323888553964039
4.200999999999738,0.2920426463442927,-0.11943258446853598
4.400999999999804,0.3156462791245636,-0.1340735333354388
4.600999999999871,0.3466080692735434,-0.1489023016295113
4.800999999999938,0.3713704191132202,-0.16402348319110482
5.000000000000004,0.391012379947669,-0.1812243500574168
5.200000000000071,0.4142836968858688,-0.19731003355272994
5.400000000000138,0.44228112760089217,-0.21203855548948752
5.600000000000205,0.4699376025482947,-0.22066385564570576
5.800000000000272,0.48843973056547213,-0.22750469463864142
6.000000000000338,0.5100972041252108,-0.23464038613757818
6.200000000000405,0.5263037720258242,-0.24204577832471794
6.400000000000472,0.5470692410982495,-0.25289770133623696
6.600000000000539,0.5741673947929326,-0.2601596070167665
6.800000000000606,0.6055162505681383,-0.26744489183109543
7.000000000000672,0.6346874071504492,-0.2797139365233892
7.200000000000739,0.6634254120348473,-0.29624258216166405
7.400000000000806,0.6963887817011434,-0.3118020378708671
7.600000000000873,0.7299715208221665,-0.32476682136607116
7.8000000000009395,0.7579200147016308,-0.3388762500472303
8.000000000001005,0.7931568934432988,-0.3553857578324614
8.200000000000895,0.8416530350666556,-0.3840368405497487
8.400000000000784,0.8781872047055074,-0.40221451658151736
8.600000000000673,0.9038255579010582,-0.4156554936230558
8.800000000000562,0.9298359230825354,-0.4337060268367412
9.000000000000451,0.9576893765705553,-0.4545666326825883
9.20000000000034,0.9887389890344536,-0.48110552503774184
9.40000000000023,1.0190012284748717,-0.5139175444947354
9.600000000000119,1.048718198404574,-0.536533978106609
9.800000000000008,1.076456386713327,-0.5595748651656326
10.000999999999896,1.1051674124543582,-0.5949523789192749
10.200999999999786,1.1299870124010987,-0.6212908506474021
10.400999999999675,1.1531394959063703,-0.6467996984008035
10.600999999999564,1.1652552270284686,-0.6619398721408806
10.800999999999453,1.1732627360797592,-0.680353932847385
11.000999999999342,1.1700407902427192,-0.7052023026817563
11.200999999999231,1.1641688809236983,-0.7303675985484465
11.40099999999912,1.15924673727123,-0.7570390387980678
11.60099999999901,1.148473048011275,-0.7751745430936613
11.800999999998899,1.1381318230923887,-0.788892503850252
12.000999999998788,1.125756437750065,-0.8151219954809648
12.200999999998677,1.105315718222069,-0.8530295432405182
12.400999999998566,1.0812844692481884,-0.8967528337919533
12.600999999998455,1.0597014122135822,-0.9426537725433596
12.800999999998345,1.038848260038294,-0.9906662557720496
13.000999999998234,1.0182291657268672,-1.0222740248250084
13.200999999998123,0.9984169206231271,-1.0527720135599572
13.400999999998012,0.9769987901075926,-1.0912401042458322
13.600999999997901,0.9536853272904035,-1.1258972173982307
13.80099999999779,0.9285683995520071,-1.1753752363472194
14.00099999999768,0.9017707455487792,-1.2192734480097025
14.200999999997569,0.8758488223072536,-1.264432970770327
14.400999999997458,0.8457117929178606,-1.3120765986182552
14.600999999997347,0.819516931329494,-1.3530469909550202
14.800999999997236,0.8035888324057182,-1.3866873157759614
15.000999999997125,0.7769452434604416,-1.4290420626804152
15.200999999997014,0.7474565966636197,-1.4727148089752091
15.400999999996904,0.7200328170180831,-1.5158482425303814
15.600999999996793,0.6869644927386076,-1.5602841503266809
15.800999999996682,0.6594172320063825,-1.6041530938595487
16.000999999996573,0.6380631585813805,-1.64448595230229
16.200999999996817,0.6174610022436156,-1.6779948969167626
16.40099999999706,0.5894439342075147,-1.7048368233856954
16.600999999997306,0.5534386199269631,-1.726206233405068
16.80099999999755,0.5153234568478481,-1.7331912734709458
17.000999999997795,0.48331354463856524,-1.737366970331411
17.20099999999804,0.4520273502907991,-1.7377265168043805
17.400999999998284,0.4140557857433387,-1.737204069973819
17.60099999999853,0.3847993417055302,-1.7312312052478467
17.800999999998773,0.3523043701391482,-1.7231597905194245
18.000999999999017,0.31447454407408304,-1.7096210161040057
18.20099999999926,0.28969267315380837,-1.6939921291352658
18.400999999999506,0.26531862760632474,-1.680092770236875
18.60099999999975,0.2333444051286969,-1.6658767517735265
18.799999999999994,0.1961641793841971,-1.649470352848266
19.000000000000238,0.14543658695305586,-1.6251316373765818
19.200000000000482,0.09462595029803504,-1.6020243648644454
19.400000000000727,0.05627745211805792,-1.5853882158650616
19.60000000000097,0.016735529221775413,-1.5653642577685183
19.800000000001216,-0.024011954424285067,-1.540924986347938
20.00000000000146,-0.06313448700769878,-1.5155051075895285
