Time (s),X (m),Y (m)
0.001,0.0011890620069237587,0.00035268032603768894
0.20000000000000015,-0.001205660657770658,-0.0014020465150365923
0.4000000000000003,0.0006011562450652771,0.0010868650667130318
0.6000000000000004,0.0071762529339949475,0.001399284668926421
0.8000000000000006,0.012558864991809601,-0.0032413531255467577
1.0000000000000007,0.019407395567545782,-0.013366159207015997
1.2009999999999785,0.04047795565382291,-0.032004718778298656
1.4009999999999565,0.07004257454620141,-0.05669284802305714
1.6009999999999345,0.10115101419494632,-0.08967060312281665
1.8009999999999124,0.12470414060085651,-0.11815830220095969
2.0009999999998906,0.1291795637252408,-0.14644181755499433
2.2009999999998686,0.12782596809829566,-0.17183129867229513
2.4009999999998466,0.11286373283531688,-0.20806760455554024
2.6009999999998246,0.09355147487925687,-0.2541450635313118
2.8009999999998025,0.07175728593757316,-0.29622400559457945
3.0009999999997805,0.03977843976166043,-0.35155856485885567
3.2009999999997585,0.007089835128795238,-0.40081258047114166
3.4009999999997365,-0.024666458050467462,-0.443667317836716
3.6009999999997144,-0.0660469388718226,-0.5013472957424442
3.8009999999996924,-0.11496333848051143,-0.5737063052847596
4.000999999999671,-0.16242197138613662,-0.6424315824326443
4.200999999999738,-0.20359359952827988,-0.705103701142517
4.400999999999804,-0.24244155270846598,-0.7733039091066221
4.600999999999871,-0.28481343137466236,-0.8383127750245584
4.800999999999938,-0.3384509988808656,-0.8996016024515945
5.000000000000004,-0.4071384250946669,-0.9496444358460051
5.200000000000071,-0.4926473404301793,-0.9787951849459402
5.400000000000138,-0.575193792439965,-0.9808998827576252
5.600000000000205,-0.641826056183271,-0.9637718987829291
5.800000000000272,-0.7068560233248228,-0.9315862896195071
6.000000000000338,-0.775557628002904,-0.8887753847138153
6.200000000000405,-0.8397193561462416,-0.8424117320488609
6.400000000000472,-0.8944676378813793,-0.7953060787317395
6.600000000000539,-0.9586135082897966,-0.7460593636471682
6.800000000000606,-1.0319162389810572,-0.696760321575693
7.000000000000672,-1.1035065867788596,-0.6459658147573833
7.200000000000739,-1.174002798345695,-0.5802859624169929
7.400000000000806,-1.2409466653367602,-0.5022604489991201
7.600000000000873,-1.2960613143011952,-0.42555998002344886
7.8000000000009395,-1.3405280602386458,-0.3453117158123145
8.000000000001005,-1.3584769474056864,-0.2714884924515774
8.200000000000895,-1.3511379533020622,-0.20816284277175054
8.400000000000784,-1.3245915028624444,-0.14112615818897967
8.600000000000673,-1.284102020708167,-0.07158113481993134
8.800000000000562,-1.2350541172775027,-0.0003132987561157836
9.000000000000451,-1.176693618506891,0.07468848485933212
9.20000000000034,-1.1151464610220918,0.1355097077711801
9.40000000000023,-1.0529530700308214,0.1621291092362764
9.600000000000119,-0.9937093656090534,0.15506883560746726
9.800000000000008,-0.9467385512177047,0.1394790605606759
10.000999999999896,-0.9234237077934776,0.11188547790290365
10.200999999999786,-0.9214553082343856,0.07848553929716807
10.400999999999675,-0.9282559218701031,0.04666920381924329
10.600999999999564,-0.9650829326714894,0.003044512123034971
10.800999999999453,-1.0194405406627576,-0.04365690964272899
11.000999999999342,-1.068853462510957,-0.09528126722311091
11.200999999999231,-1.1157358777558686,-0.1552728435859269
11.40099999999912,-1.1691702117432061,-0.22092046754311395
11.60099999999901,-1.228232830711406,-0.2872859506586878
11.800999999998899,-1.2924714525925587,-0.35401702936099383
12.000999999998788,-1.358744937561362,-0.41273491800193757
12.200999999998677,-1.4314443210962062,-0.46065499441424396
12.400999999998566,-1.4941827638512053,-0.4961666409783787
12.600999999998455,-1.5576882131028331,-0.5214208941246125
12.800999999998345,-1.635547115877437,-0.5303629799256584
13.000999999998234,-1.7178713476157164,-0.5206201761611567
13.200999999998123,-1.7919794430633218,-0.4924229518540882
13.400999999998012,-1.8613768271886664,-0.4576959177869394
13.600999999997901,-1.930957609705195,-0.41335291076443004
13.80099999999779,-1.9922008362846686,-0.36401278298168877
14.00099999999768,-2.0485430463435814,-0.3198537217888314
14.200999999997569,-2.118168633241478,-0.28483675767070177
14.400999999997458,-2.187254053222977,-0.2504325541934921
14.600999999997347,-2.2541774263538685,-0.2191568044545858
14.800999999997236,-2.336700227981607,-0.19798935440392787
15.000999999997125,-2.418617103574901,-0.1882398519880054
15.200999999997014,-2.4983135935393697,-0.17909799003184565
15.400999999996904,-2.579613299402143,-0.16663137553349905
15.600999999996793,-2.651681870577403,-0.1389869920042588
15.800999999996682,-2.7361547890569953,-0.09346177046536096
16.000999999996573,-2.8258847912306315,-0.03392893823579663
16.200999999996817,-2.922643953752423,0.03751719720715518
16.40099999999706,-3.026093144117043,0.11906741942114035
16.600999999997306,-3.1281936787939904,0.19817030479141085
16.80099999999755,-3.2280324000891367,0.2813278055213328
17.000999999997795,-3.3256376300201707,0.37370064923272317
17.20099999999804,-3.404842477700003,0.465415489127341
17.400999999998284,-3.443552610456974,0.5483163974952225
17.60099999999853,-3.4385316239476564,0.6273737573171275
17.800999999998773,-3.4069100188785826,0.7062144704377499
18.000999999999017,-3.352426492203338,0.7872183800054721
18.20099999999926,-3.2845045327044846,0.8600225494124502
18.400999999999506,-3.2269624777812282,0.9203304833738545
18.60099999999975,-3.1694065920080727,0.9598375924130051
18.799999999999994,-3.103557641773166,0.9661339638380946
19.000000000000238,-3.0364748752881296,0.941190417379722
19.200000000000482,-2.970024844483244,0.8932863046787681
19.400000000000727,-2.9087760206922355,0.8332637407356797
19.60000000000097,-2.8797866490895627,0.7842974911137092
19.800000000001216,-2.880394996789633,0.7404196983860016
20.00000000000146,-2.8979205359723528,0.6952935209158756
