Time (s),X (m),Y (m)
0.001,0.0002200807748493132,-0.0010311682891199468
0.20000000000000015,0.003214498109303518,0.0002877381121664803
0.4000000000000003,0.007150997720133298,-0.011153343728102104
0.6000000000000004,0.027675512293123452,-0.014011333435876877
0.8000000000000006,0.06176038869178385,-0.01328526618342052
1.0000000000000007,0.09861070785422653,-0.026967362319315583
1.2009999999999785,0.140071178219441,-0.043922831964470214
1.4009999999999565,0.17765282430027615,-0.06301343910078362
1.6009999999999345,0.21568379815336003,-0.09002325902138138
1.8009999999999124,0.2423612711023149,-0.1233368793588832
2.0009999999998906,0.24002720432978622,-0.162317903543073
2.2009999999998686,0.22793324015968086,-0.19816522377935933
2.4009999999998466,0.203391608201117,-0.23640730479417904
2.6009999999998246,0.1661628281910557,-0.25833184656846225
2.8009999999998025,0.1258125189682038,-0.26821694422700965
3.0009999999997805,0.08061011833458388,-0.25784627629500834
3.2009999999997585,0.026626358412653938,-0.24835654538336402
3.4009999999997365,-0.03845137456531175,-0.2540996401092691
3.6009999999997144,-0.10693695972043733,-0.25822477033472857
3.8009999999996924,-0.1693654946788269,-0.24835605398342486
4.000999999999671,-0.20581628605731667,-0.22662543291680712
4.200999999999738,-0.21904119172614248,-0.19106838966992004
4.400999999999804,-0.21377322609578064,-0.14778857062345674
4.600999999999871,-0.21010601528079456,-0.09790521668817673
4.800999999999938,-0.2095738616922143,-0.03574617619627009
5.000000000000004,-0.19924730546389038,0.023771238313918724
5.200000000000071,-0.17873360288593929,0.0477720153364968
5.400000000000138,-0.14140104375287074,0.04025570168904704
5.600000000000205,-0.09348674189581332,0.03285488054771973
5.800000000000272,-0.056420389191439456,0.017217611329274945
6.000000000000338,-0.023855302519681962,-0.011244778821399508
6.200000000000405,0.0043173200997223765,-0.04527022491441228
6.400000000000472,0.01022829388402614,-0.0860868874912288
6.600000000000539,0.017064604642668343,-0.13487861999819795
6.800000000000606,0.02597322430633923,-0.19244474270199025
7.000000000000672,0.02499295907396127,-0.25406292153776316
7.200000000000739,0.018628653923496507,-0.3155498122411943
7.400000000000806,0.006536279225532452,-0.37347657555814456
7.600000000000873,-0.02202207323582845,-0.41045407131839584
7.8000000000009395,-0.06415663240489394,-0.4190147908515651
8.000000000001005,-0.11955791128791127,-0.4259758854852864
8.200000000000895,-0.17896685309505495,-0.4229383961111703
8.400000000000784,-0.24012606400269473,-0.41737732535395394
8.600000000000673,-0.29278071866970706,-0.3998768226372284
8.800000000000562,-0.34196650420675906,-0.37361189468591
9.000000000000451,-0.3734576303361422,-0.333029087857656
9.20000000000034,-0.38174782958603903,-0.2786768687201129
9.40000000000023,-0.37838554461603935,-0.2150617713548059
9.600000000000119,-0.36036859833640755,-0.1726189361939725
9.800000000000008,-0.3319277727009083,-0.1498969805062848
10.000999999999896,-0.29636472486583093,-0.14544929776733845
10.200999999999786,-0.24485876163438208,-0.14936716626982963
10.400999999999675,-0.18947671933490862,-0.16031403922463366
10.600999999999564,-0.14539803417621588,-0.17514471198256823
10.800999999999453,-0.11956807088936693,-0.20215726513078658
11.000999999999342,-0.11410358476616296,-0.24677456830548214
11.200999999999231,-0.12215861767989687,-0.2899039525304793
11.40099999999912,-0.13967394746011838,-0.34097180504851315
11.60099999999901,-0.16482436337775688,-0.37661412840790537
11.800999999998899,-0.19734785054180456,-0.3958187732056323
12.000999999998788,-0.23596846596321377,-0.40273792926284485
12.200999999998677,-0.28632850640541524,-0.3952968907627573
12.400999999998566,-0.30983120858098506,-0.3729358960452619
12.600999999998455,-0.3008332834954726,-0.33963366589914745
12.800999999998345,-0.2812928543610734,-0.30073049905156407
13.000999999998234,-0.2549595233019712,-0.2588661802447208
13.200999999998123,-0.2200533120867306,-0.22880671924374132
13.400999999998012,-0.16949627814652596,-0.20463044473731692
13.600999999997901,-0.11757743679689342,-0.20610242230325296
13.80099999999779,-0.06978389387793256,-0.21993500135312305
14.00099999999768,-0.05920338189114041,-0.24581851949814404
14.200999999997569,-0.07118729211413606,-0.28382553162224394
14.400999999997458,-0.0982881485633536,-0.32418686801050967
14.600999999997347,-0.12624017440089605,-0.36595240434207604
14.800999999997236,-0.1580636346035514,-0.38935005012424295
15.000999999997125,-0.1968918977567476,-0.3895905498908029
15.200999999997014,-0.24066096156229283,-0.37663752889378066
15.400999999996904,-0.2941710317715441,-0.36934481178147305
15.600999999996793,-0.3498724434925366,-0.35621375902817204
15.800999999996682,-0.3836180178607844,-0.3317657889889295
16.000999999996573,-0.39612902605854244,-0.29958137461428946
16.200999999996817,-0.39565513061542756,-0.2514294615767741
16.40099999999706,-0.3844428127062655,-0.20027160759147558
16.600999999997306,-0.3617016107741511,-0.15208890577417078
16.80099999999755,-0.33914048268673713,-0.09666175437173123
17.000999999997795,-0.31575068601281736,-0.035646329324978215
17.20099999999804,-0.29589778374679854,0.020306778297072378
17.400999999998284,-0.2713178601740009,0.07372152019495039
17.60099999999853,-0.2362117537612099,0.10487318028544106
17.800999999998773,-0.19338693671745638,0.12512820332771657
18.000999999999017,-0.14069752807349806,0.12437686497412483
18.20099999999926,-0.08506070049933495,0.11313951705756303
18.400999999999506,-0.03294918161214513,0.08865215833497962
18.60099999999975,0.033366151499451546,0.06631128303790665
18.799999999999994,0.09231658750358505,0.03749815898481557
19.000000000000238,0.14615457280041913,0.0016042520629130197
19.200000000000482,0.19176812589957828,-0.04111326215097485
19.400000000000727,0.22451448707386307,-0.09333666459304489
19.60000000000097,0.22406706802435158,-0.14573402580701714
19.800000000001216,0.20915363625671973,-0.19702853791045394
20.00000000000146,0.19042812035639295,-0.2513631621083857
