Time (s),X (m),Y (m)
0.001,-0.00021570977506068912,-0.0009345558501746678
0.20000000000000015,0.0064092118185207015,0.003907257040376068
0.4000000000000003,0.011097089324053419,-0.004277240862867743
0.6000000000000004,0.02764241199809149,-0.013483758396822719
0.8000000000000006,0.0484823678978917,-0.032365257445431825
1.0000000000000007,0.060466326454330366,-0.05184063782090147
1.2009999999999785,0.08308509701689615,-0.0639435091445576
1.4009999999999565,0.10668206080179482,-0.07110204185339834
1.6009999999999345,0.12411590258226518,-0.07927944061967081
1.8009999999999124,0.15537089143474683,-0.07549373070420924
2.0009999999998906,0.20034820850707735,-0.05805949794339651
2.2009999999998686,0.24349366709095738,-0.05322646602823185
2.4009999999998466,0.2778155081428876,-0.06437642899731767
2.6009999999998246,0.3106611656908503,-0.06117241135572005
2.8009999999998025,0.3470154127218441,-0.05022420770641061
3.0009999999997805,0.386733861090619,-0.045155255639623575
3.2009999999997585,0.4320631576242736,-0.03730711028093994
3.4009999999997365,0.47749521364635017,-0.031043509751290263
3.6009999999997144,0.5179064359908994,-0.027713115064252065
3.8009999999996924,0.5569065444427488,-0.02179739313923636
4.000999999999671,0.5980708919512028,-0.013223751140597088
4.200999999999738,0.6352478102175575,-0.007150527787700384
4.400999999999804,0.6755875624171397,-0.001221161400450419
4.600999999999871,0.7145622008059652,0.022155357618758986
4.800999999999938,0.7533612811596625,0.03185229720703257
5.000000000000004,0.7946755363160058,0.04451626438646217
5.200000000000071,0.8348810952267732,0.06784241171458885
5.400000000000138,0.8763131952071741,0.07609666181434319
5.600000000000205,0.9194459241639625,0.09075583685599443
5.800000000000272,0.962443734575297,0.1117283052280259
6.000000000000338,1.0097894993539385,0.12929353615172265
6.200000000000405,1.0549159923916374,0.14291809105649547
6.400000000000472,1.107101344563375,0.1688596255535002
6.600000000000539,1.1557340583713016,0.1932556139386685
6.800000000000606,1.2107192833505558,0.21017218316133096
7.000000000000672,1.2752335976766966,0.2294676245743319
7.200000000000739,1.3375306438043697,0.2404886066912335
7.400000000000806,1.394490519408914,0.24387150234286858
7.600000000000873,1.4504219851111626,0.24307031368797152
7.8000000000009395,1.5031994166670484,0.24465534671822675
8.000000000001005,1.5534938808539969,0.24654588627841245
8.200000000000895,1.6076000143158269,0.2541156892522717
8.400000000000784,1.654610922092252,0.25747331879697266
8.600000000000673,1.689516002216804,0.2468529377290488
8.800000000000562,1.7217315495173884,0.21413830408537363
9.000000000000451,1.7424921470752297,0.17243751270056093
9.20000000000034,1.7482043547626438,0.12868876165015022
9.40000000000023,1.7601571164109464,0.0790592258890607
9.600000000000119,1.7829008949623282,0.0218077815175618
9.800000000000008,1.8036433907691616,-0.03841679390016725
10.000999999999896,1.829929263849998,-0.09862410826609705
10.200999999999786,1.8457714486235168,-0.1596528991498124
10.400999999999675,1.8596107906830066,-0.2226659964992093
10.600999999999564,1.8783415276113709,-0.28833338957961063
10.800999999999453,1.8953232096349453,-0.35187862317407487
11.000999999999342,1.9066218623832236,-0.41260977727322484
11.200999999999231,1.9125364809940693,-0.46498148873294065
11.40099999999912,1.9184213307359095,-0.5199060646186751
11.60099999999901,1.9180599226812642,-0.568834162022225
11.800999999998899,1.9086992730081118,-0.6176589683049983
12.000999999998788,1.8995022609126118,-0.6757122848219529
12.200999999998677,1.8979488546689938,-0.7338106080300418
12.400999999998566,1.899062436422273,-0.7896755181201875
12.600999999998455,1.9003418289140277,-0.8388824440009831
12.800999999998345,1.9044825932747413,-0.889784243711949
13.000999999998234,1.9064220266961411,-0.9434920749632062
13.200999999998123,1.9195031111204977,-0.9978905828803933
13.400999999998012,1.940201848743696,-1.0472522956715917
13.600999999997901,1.947636711057881,-1.0920043674795572
13.80099999999779,1.944670675226077,-1.1489715351307008
14.00099999999768,1.9308448671861,-1.209293199190378
14.200999999997569,1.9113680018662125,-1.2646287276054804
14.400999999997458,1.8857922483769272,-1.299912154285547
14.600999999997347,1.8462371086142773,-1.3326564802345973
14.800999999997236,1.800881515886241,-1.3680841481276194
15.000999999997125,1.7529780602293845,-1.3832868265520422
15.200999999997014,1.691706849760881,-1.4100266028598578
15.400999999996904,1.6245447690273351,-1.4431806072383937
15.600999999996793,1.56338640056956,-1.4816397792778055
15.800999999996682,1.5089806114241664,-1.5250090825202893
16.000999999996573,1.4574859596541485,-1.556928254558719
16.200999999996817,1.4020149050265234,-1.5838829062844209
16.40099999999706,1.348396008081009,-1.6110882030836446
16.600999999997306,1.289743520779559,-1.6633505403955127
16.80099999999755,1.2305786246009196,-1.7030712572418563
17.000999999997795,1.1764488611832704,-1.738363463695167
17.20099999999804,1.1248347451170613,-1.7725273018160201
17.400999999998284,1.071125022517883,-1.8011202193339484
17.60099999999853,1.0134224573643584,-1.8168177685534894
17.800999999998773,0.9565320325476068,-1.841131302925934
18.000999999999017,0.9086991832916682,-1.885900158181339
18.20099999999926,0.8678844179945785,-1.9340029662809473
18.400999999999506,0.8317613391887073,-1.9768093672223235
18.60099999999975,0.7990005760222797,-2.017173468030735
18.799999999999994,0.7618677141489899,-2.0511920150558502
19.000000000000238,0.7231553632237495,-2.0752026449356715
19.200000000000482,0.6852074518886809,-2.1104291617193045
19.400000000000727,0.6440537899908026,-2.15690383414155
19.60000000000097,0.589732472840527,-2.19450229044651
19.800000000001216,0.5281187389828229,-2.220051471990529
20.00000000000146,0.47884568257183596,-2.247392737636222
