Time (s),X (m),Y (m)
0.001,-0.00037137305770231177,-0.0008446836120385868
0.20000000000000015,0.004066280495745656,0.003671385350171572
0.4000000000000003,0.004777911335128053,-0.0006682164549195785
0.6000000000000004,0.011366906024498098,0.0036137949322801524
0.8000000000000006,0.02237587466954909,-0.0031152557029674077
1.0000000000000007,0.03828023329925966,-0.0002226609584674883
1.2009999999999785,0.05642617740434169,-0.005838040413298773
1.4009999999999565,0.07713895369082253,-0.004873179911872555
1.6009999999999345,0.0951681925685902,-0.002482122903879551
1.8009999999999124,0.1101955819513858,0.0007044377451761322
2.0009999999998906,0.13209807381265293,0.0025885248748958845
2.2009999999998686,0.15215003391636137,0.006691730404416649
2.4009999999998466,0.17330444914134896,0.022407389968311164
2.6009999999998246,0.20097048370561063,0.03169882271320455
2.8009999999998025,0.22067119723839165,0.03442849242198511
3.0009999999997805,0.24241932718688028,0.03775870135853531
3.2009999999997585,0.2641905510395513,0.04115185888581422
3.4009999999997365,0.28656703154415575,0.05399409001770876
3.6009999999997144,0.3134840170330432,0.06817604010606534
3.8009999999996924,0.3421533721716969,0.0752284491310272
4.000999999999671,0.3689867339596972,0.07633881479471405
4.200999999999738,0.39650160132231643,0.09295304841145775
4.400999999999804,0.42361342913166317,0.10755793781692728
4.600999999999871,0.45561083044516765,0.11070654720004734
4.800999999999938,0.4834313829457975,0.11899401492365119
5.000000000000004,0.5113760788860788,0.13432463623004912
5.200000000000071,0.538643262648849,0.16009776603269246
5.400000000000138,0.564147054850793,0.18395571818123554
5.600000000000205,0.5852924074719149,0.20600151940051495
5.800000000000272,0.6080874123315682,0.21932301403123775
6.000000000000338,0.639085698757138,0.23043066372134632
6.200000000000405,0.6691082738375427,0.24934918669709544
6.400000000000472,0.7000685222064229,0.2628623666866055
6.600000000000539,0.7278143885026531,0.27076489564235073
6.800000000000606,0.7508359506155163,0.28227415816984835
7.000000000000672,0.7732849901925398,0.303048966338278
7.200000000000739,0.7966349074824389,0.3288240356543349
7.400000000000806,0.8160159202290568,0.35371587242150715
7.600000000000873,0.8391681159991159,0.3615971674662304
7.8000000000009395,0.8603820494864584,0.37799088225489813
8.000000000001005,0.8880024637702507,0.38842965687715136
8.200000000000895,0.9051267624874082,0.39619809190240707
8.400000000000784,0.9299460020838715,0.4061600451216966
8.600000000000673,0.9564235461914392,0.42232690175810755
8.800000000000562,0.9839314525379352,0.4374808844793704
9.000000000000451,1.010338306268678,0.4670881420845017
9.20000000000034,1.0408346396502677,0.4908188588453999
9.40000000000023,1.0652050879990482,0.4981376057188326
9.600000000000119,1.0866442609013007,0.5167074466458149
9.800000000000008,1.1091506583653665,0.5397163711966173
10.000999999999896,1.1336671509058922,0.5616152585707428
10.200999999999786,1.159024500360378,0.5888394510335536
10.400999999999675,1.1839740177464797,0.6252604191350783
10.600999999999564,1.2089795487602992,0.6462066506351082
10.800999999999453,1.233134817036507,0.6667810970966922
11.000999999999342,1.256412835836602,0.67949489297037
11.200999999999231,1.2807090383823754,0.6924041803310893
11.40099999999912,1.3041070911559,0.7100664448325148
11.60099999999901,1.3288804610073737,0.7354790805774003
11.800999999998899,1.349188419543581,0.7594019149603178
12.000999999998788,1.3647155620100746,0.786607926186846
12.200999999998677,1.3792488234832758,0.8072720775448745
12.400999999998566,1.3978255979743308,0.838948325536116
12.600999999998455,1.4157934003906538,0.8730576624744306
12.800999999998345,1.4350192500240284,0.8875458253033617
13.000999999998234,1.459524655513165,0.8977971018349978
13.200999999998123,1.4804479784313196,0.9143275449332788
13.400999999998012,1.5019124483805744,0.9392970948517434
13.600999999997901,1.523250698778136,0.9559609888518006
13.80099999999779,1.5476008676959812,0.977205987229289
14.00099999999768,1.5771840272121576,1.001728371976787
14.200999999997569,1.6071942486428477,1.0156150852360966
14.400999999997458,1.626130510645134,1.0474474097847581
14.600999999997347,1.6463038065284574,1.0636414123417202
14.800999999997236,1.6713483414356372,1.0848519838494493
15.000999999997125,1.695432242428028,1.1102453115139437
15.200999999997014,1.7220246248417928,1.1395885281717801
15.400999999996904,1.747218795508086,1.1746211553562347
15.600999999996793,1.7706875962031297,1.2044748102699943
15.800999999996682,1.7950080390463024,1.2333253781991316
16.000999999996573,1.8182498891390924,1.2594890562008219
16.200999999996817,1.8379467392997648,1.2859646400290885
16.40099999999706,1.8623772577399018,1.2973563949315317
16.600999999997306,1.8862677121617062,1.3194676053244834
16.80099999999755,1.914119500400868,1.3334469101395996
17.000999999997795,1.9431078428596398,1.353632679139372
17.20099999999804,1.9632971898021638,1.3747356440954752
17.400999999998284,1.9787306170960113,1.4020907538638587
17.60099999999853,1.9923711688385048,1.427208517729511
17.800999999998773,1.9990654812644932,1.4592214862265138
18.000999999999017,2.0095475889501757,1.494185114611236
18.20099999999926,2.0218115346739594,1.5121015044332735
18.400999999999506,2.03415864434533,1.5411920790640001
18.60099999999975,2.046145106567391,1.5795302382259255
18.799999999999994,2.0524676528180232,1.6127659092890416
19.000000000000238,2.0563875420103583,1.6412022163034057
19.200000000000482,2.059602115785776,1.6819553061988615
19.400000000000727,2.0607624776075806,1.7066841189690525
19.60000000000097,2.064459966366052,1.7326787790154674
19.800000000001216,2.067446671266309,1.767085426923623
20.00000000000146,2.075236096135803,1.7973837664298669
