Time (s),X (m),Y (m)
0.001,-0.0007144750753253542,0.00043579054991000265
0.20000000000000015,0.0019210157647212896,-0.00040020203807434603
0.4000000000000003,0.008152309435875943,-0.0030872086496228418
0.6000000000000004,0.006600458678448449,-0.0008774525510586396
0.8000000000000006,0.007540192258546069,0.006143187788683999
1.0000000000000007,0.01468811075101334,0.009350211573132748
1.2009999999999785,0.01867480432931091,0.017530014498724492
1.4009999999999565,0.022495219380948957,0.02382264347372224
1.6009999999999345,0.027991407605454835,0.023226914098080073
1.8009999999999124,0.039362530766560905,0.02137783807796749
2.0009999999998906,0.054112528173195056,0.018306796395569133
2.2009999999998686,0.07223876056568473,0.015173404776285579
2.4009999999998466,0.08142828768896192,0.015733872937093968
2.6009999999998246,0.09180695874707263,0.01862204375885423
2.8009999999998025,0.1024868584407906,0.01689638646590206
3.0009999999997805,0.11818092548089397,0.011871492670223801
3.2009999999997585,0.13563055583449043,0.004631942596500722
3.4009999999997365,0.144702706155239,0.00356435440722491
3.6009999999997144,0.15275313701317664,0.001925682721323205
3.8009999999996924,0.17058518186602542,-0.002738320234411762
4.000999999999671,0.18851294992144677,-0.011469333743792276
4.200999999999738,0.20306468225900748,-0.01450709575398165
4.400999999999804,0.21321783503268596,-0.015094818760440654
4.600999999999871,0.22485516233607056,-0.017467103793224074
4.800999999999938,0.23842083997962465,-0.021701421661264042
5.000000000000004,0.24855156793336286,-0.02295528062493197
5.200000000000071,0.25892546848492387,-0.02607482054840378
5.400000000000138,0.2753221855602876,-0.03287664163797633
5.600000000000205,0.28769898556615936,-0.03826780354279086
5.800000000000272,0.3023044800595267,-0.042339045539758105
6.000000000000338,0.31640848828040574,-0.047232399812560964
6.200000000000405,0.32973958039972884,-0.045421832135638086
6.400000000000472,0.34754939143937147,-0.04796574808196953
6.600000000000539,0.36357537587003397,-0.05154913400004916
6.800000000000606,0.37715748523651044,-0.05734656136518818
7.000000000000672,0.3914720904856577,-0.06007226282309394
7.200000000000739,0.4046583991288832,-0.06443923865696018
7.400000000000806,0.4201754364779689,-0.06411218783814768
7.600000000000873,0.44155003314060776,-0.07137457094405614
7.8000000000009395,0.46315136310002447,-0.0796373463251487
8.000000000001005,0.48477145739594735,-0.08872261045536924
8.200000000000895,0.5035455096550293,-0.09253962049802121
8.400000000000784,0.5230013414010476,-0.0981504649069782
8.600000000000673,0.5414768599931284,-0.10708261459106701
8.800000000000562,0.557753687769381,-0.11184702748792186
9.000000000000451,0.5763759152545272,-0.11901310088289543
9.20000000000034,0.5941970546317902,-0.12654902805705354
9.40000000000023,0.6126204221538594,-0.13403525245690207
9.600000000000119,0.6299154973557689,-0.1407115001797619
9.800000000000008,0.6432517679289304,-0.14613244541417747
10.000999999999896,0.6587948809543624,-0.14917736252741814
10.200999999999786,0.6750568100564198,-0.1552077205405982
10.400999999999675,0.6873808553441431,-0.15872255064377283
10.600999999999564,0.7062769835602085,-0.16700037415245636
10.800999999999453,0.7234125460087142,-0.16892339897179592
11.000999999999342,0.7398142672463218,-0.17698421964396555
11.200999999999231,0.7562091001444351,-0.18209037061401304
11.40099999999912,0.7710211714762446,-0.1918914505213216
11.60099999999901,0.7808589868337185,-0.20307222291903723
11.800999999998899,0.7929603092975368,-0.21812642006035496
12.000999999998788,0.8055369354555836,-0.22854196991442277
12.200999999998677,0.8148794418776627,-0.23745390143198147
12.400999999998566,0.8218157405621486,-0.2550526790050171
12.600999999998455,0.8271615071851279,-0.26772778844489065
12.800999999998345,0.8281511035764347,-0.28823121992282313
13.000999999998234,0.8281709529219358,-0.2998708538526162
13.200999999998123,0.828421150889855,-0.3142772415380954
13.400999999998012,0.8275716793735759,-0.3342044109445457
13.600999999997901,0.828258764933465,-0.3523183820264422
13.80099999999779,0.8257760048978929,-0.36601353194100666
14.00099999999768,0.8218385924899161,-0.38400089974737395
14.200999999997569,0.8184800569297954,-0.39861077885316104
14.400999999997458,0.816313404381149,-0.41362237713172545
14.600999999997347,0.8136246781976912,-0.42827266422360943
14.800999999997236,0.8054996721172277,-0.446677071416453
15.000999999997125,0.8036419436150636,-0.46191930128416403
15.200999999997014,0.7944778682197142,-0.48407883068167007
15.400999999996904,0.7859318292991508,-0.5059614733695803
15.600999999996793,0.7815013200403482,-0.5317835471821113
15.800999999996682,0.7751913220283635,-0.5545867623408803
16.000999999996573,0.7677667653859039,-0.5751886650515227
16.200999999996817,0.7622884593453128,-0.5968790069909257
16.40099999999706,0.7599682224380292,-0.6150483501001642
16.600999999997306,0.7552826681482149,-0.6277265988223399
16.80099999999755,0.7475625372072189,-0.6454568377436412
17.000999999997795,0.7472268511248278,-0.6604581744871366
17.20099999999804,0.7471704425924677,-0.6735206333327707
17.400999999998284,0.7402891502458241,-0.6891099682357161
17.60099999999853,0.7334092430456146,-0.7071514424240498
17.800999999998773,0.7269162999449146,-0.7209901245830255
18.000999999999017,0.7203725734040543,-0.7386098269699529
18.20099999999926,0.718038938885053,-0.751590203956127
18.400999999999506,0.7132422443383217,-0.7672226772704458
18.60099999999975,0.7065169824473787,-0.7862857433539104
18.799999999999994,0.6976814884453592,-0.8116428832327727
19.000000000000238,0.6912325187322659,-0.8319321334468274
19.200000000000482,0.6816109567450916,-0.8541723897444133
19.400000000000727,0.6739579192364039,-0.8753916645245711
19.60000000000097,0.6685193637512278,-0.8955338119795367
19.800000000001216,0.6648949478906465,-0.9131873320586675
20.00000000000146,0.6612667387767885,-0.9324346147238869
