Time (s),X (m),Y (m)
0.001,0.0012161128565605834,-0.00026688599193002474
0.20000000000000015,-0.0030869798507783715,0.0027683539371957276
0.4000000000000003,-0.009040307124541276,0.003957551937284913
0.6000000000000004,-0.007064060344517166,0.0028823961820312535
0.8000000000000006,0.003841425336401159,0.0011150333345114887
1.0000000000000007,0.021046123625488782,-0.0028565490146687236
1.2009999999999785,0.030161975171377642,-0.0022522826101025275
1.4009999999999565,0.04747807359987453,-0.004890517290778072
1.6009999999999345,0.054598662616921756,-0.0038921183310452433
1.8009999999999124,0.06785789682439874,0.0033587777528216426
2.0009999999998906,0.07776974215134579,0.010383204684179189
2.2009999999998686,0.08234822734105823,0.014983099686686463
2.4009999999998466,0.09879626537875548,0.015591256355785583
2.6009999999998246,0.11952756267866671,0.008763097499914654
2.8009999999998025,0.1507541601029949,-0.005339444282438642
3.0009999999997805,0.1844017210330509,-0.021524319636347492
3.2009999999997585,0.20447616204697272,-0.02805689672053177
3.4009999999997365,0.2267779022737678,-0.03259980512283981
3.6009999999997144,0.24455520386627713,-0.036865909716942306
3.8009999999996924,0.2732198480778608,-0.05284947919238852
4.000999999999671,0.30480246225743624,-0.07553444440666714
4.200999999999738,0.3348117788311176,-0.09604267556944898
4.400999999999804,0.3682762548184839,-0.11805629059637118
4.600999999999871,0.3957732890025952,-0.14094135129544647
4.800999999999938,0.407580274703691,-0.16563227597598426
5.000000000000004,0.4031850418838587,-0.18521021608448476
5.200000000000071,0.3970105239228183,-0.19494742611780222
5.400000000000138,0.394502293786319,-0.1991942826759149
5.600000000000205,0.38642649945281893,-0.23020959595005655
5.800000000000272,0.3778585307230044,-0.25951659426669393
6.000000000000338,0.36429443618275986,-0.2939081179796634
6.200000000000405,0.3555180151993449,-0.3249117896318445
6.400000000000472,0.34570795559985357,-0.3503108301974345
6.600000000000539,0.32800906523379336,-0.38917372059499666
6.800000000000606,0.30126179100267625,-0.42808418849803453
7.000000000000672,0.27258210093749546,-0.46185803663770986
7.200000000000739,0.2597276935749798,-0.49285107660646854
7.400000000000806,0.2545037012217956,-0.5244798429199284
7.600000000000873,0.2435189341872553,-0.5589742060460573
7.8000000000009395,0.2316501018107459,-0.5966598037678502
8.000000000001005,0.200089429228512,-0.6313464381669873
8.200000000000895,0.17442973355986327,-0.6576476152097153
8.400000000000784,0.15269666865619236,-0.6713093430617502
8.600000000000673,0.12835811992852791,-0.6777117778048394
8.800000000000562,0.10748018619625618,-0.6761815733587359
9.000000000000451,0.07671683990190542,-0.6681000533076787
9.20000000000034,0.03716113723288228,-0.6541414686667545
9.40000000000023,0.002623246218417389,-0.6427430398253198
9.600000000000119,-0.03254961453407146,-0.6276352645531595
9.800000000000008,-0.06711301910087426,-0.6107781834656105
10.000999999999896,-0.10274855952442953,-0.5785322671467831
10.200999999999786,-0.13487669238486769,-0.5467103060539052
10.400999999999675,-0.15770980225356507,-0.5242487495659044
10.600999999999564,-0.18470452088516626,-0.4912559755911108
10.800999999999453,-0.2091348209464606,-0.4585877540200071
11.000999999999342,-0.22470818685839472,-0.43118042880972535
11.200999999999231,-0.2259627143383961,-0.3952435390376871
11.40099999999912,-0.221357364545972,-0.3688567432460641
11.60099999999901,-0.21567457563334924,-0.32738282228164683
11.800999999998899,-0.21003540229238443,-0.2843302209056693
12.000999999998788,-0.19314150311899123,-0.2429551199230644
12.200999999998677,-0.17697213095419795,-0.21316815255519503
12.400999999998566,-0.1596370164460324,-0.17335839351991017
12.600999999998455,-0.14154475635090033,-0.13447571747209752
12.800999999998345,-0.12635128304413107,-0.09677745089422016
13.000999999998234,-0.10581616609099774,-0.053226439814598896
13.200999999998123,-0.08856201323462405,-0.019260224450331064
13.400999999998012,-0.0680808184395064,0.0129413868228593
13.600999999997901,-0.04131302436211023,0.045420312377167364
13.80099999999779,-0.018759822241787565,0.08113329987922956
14.00099999999768,0.009412783603564666,0.12722151557162803
14.200999999997569,0.02937235483824944,0.1676105361469495
14.400999999997458,0.04566272099317546,0.2013212536073712
14.600999999997347,0.05933599453690649,0.22841242517314647
14.800999999997236,0.0764109431647309,0.2651772058668129
15.000999999997125,0.10438273532950718,0.3081633201179097
15.200999999997014,0.12324336628031501,0.3438829548287532
15.400999999996904,0.13895804092434388,0.37673790463607176
15.600999999996793,0.1458324985328328,0.4032891108879989
15.800999999996682,0.16015189096539345,0.4334871805315949
16.000999999996573,0.1894546530503264,0.4708277681268434
16.200999999996817,0.21792768841818153,0.5120898365795385
16.40099999999706,0.25351980725341555,0.5488724430602883
16.600999999997306,0.28477911791880833,0.5789137018879287
16.80099999999755,0.3320125661900752,0.5897373578892114
17.000999999997795,0.37924114519110574,0.5790086027841739
17.20099999999804,0.41577477168113897,0.5576159268576543
17.400999999998284,0.454831161033989,0.5385638779026842
17.60099999999853,0.4995980174355645,0.5129290208385191
17.800999999998773,0.5368432723965034,0.4793210923310256
18.000999999999017,0.575170825537414,0.4525582934561715
18.20099999999926,0.6108980934390009,0.426281644075752
18.400999999999506,0.634031851998266,0.4043384046834098
18.60099999999975,0.6424068016845497,0.3656893173646351
18.799999999999994,0.6442075415232248,0.3261889031161532
19.000000000000238,0.6453362882660448,0.29622923971667203
19.200000000000482,0.6369583469032322,0.27414969714745296
19.400000000000727,0.6255153003070656,0.23614953794531274
19.60000000000097,0.6088025057470432,0.19568455263301177
19.800000000001216,0.5913205499789217,0.15983442389984084
20.00000000000146,0.5702998822490967,0.12740528244994442
