Time (s),X (m),Y (m)
0.001,0.0009492268646305597,0.0007291460897812449
0.20000000000000015,0.0044457680575621245,0.0021672607637191225
0.4000000000000003,0.0074388657342471754,0.0005675512792038057
0.6000000000000004,0.006994993197919824,-0.0031686051829344034
0.8000000000000006,0.013386762309907105,-0.0009594148666421937
1.0000000000000007,0.02112149649740201,-0.004574703866224579
1.2009999999999785,0.029328310933058436,-0.003852985299274888
1.4009999999999565,0.03528864697480875,-0.003419006589148021
1.6009999999999345,0.035553803412980076,-0.005264699276778844
1.8009999999999124,0.043194690892235446,-0.0026691595779360106
2.0009999999998906,0.05004104607200563,0.0005221942889785766
2.2009999999998686,0.05793384518522175,0.0016077062334851687
2.4009999999998466,0.06641909319978462,0.006871131319152614
2.6009999999998246,0.07383216905352794,0.012148161529697835
2.8009999999998025,0.08101204387051344,0.014521917486836724
3.0009999999997805,0.09020259007823789,0.01909930595173833
3.2009999999997585,0.09862184783510183,0.025432416508135845
3.4009999999997365,0.1063225060108856,0.03138034184766065
3.6009999999997144,0.11435953043529394,0.03288109411599968
3.8009999999996924,0.122704417310554,0.03959365308387879
4.000999999999671,0.12935782494971146,0.0458072950676958
4.200999999999738,0.13987066895549216,0.05092437895257626
4.400999999999804,0.1471462326667098,0.056444593938751245
4.600999999999871,0.15556353957433994,0.06877280525857354
4.800999999999938,0.16094775892877136,0.07598713328520344
5.000000000000004,0.16693875327834434,0.0826912239925953
5.200000000000071,0.1761425277943136,0.09085530018308305
5.400000000000138,0.18679864128370943,0.1033973487836871
5.600000000000205,0.19686367029342175,0.11258740246024214
5.800000000000272,0.2020289298202364,0.1211936136412393
6.000000000000338,0.21095019786392552,0.13359891653761874
6.200000000000405,0.21921820649521495,0.13965792365366772
6.400000000000472,0.2279432474394353,0.1479715078680987
6.600000000000539,0.2375373528870658,0.16247966382017134
6.800000000000606,0.24636983739055032,0.1668162381464787
7.000000000000672,0.25459413968750916,0.17396749657446378
7.200000000000739,0.26065600312413995,0.18333018652917998
7.400000000000806,0.2683479317622091,0.18769881778833514
7.600000000000873,0.2754775170654203,0.195182216496604
7.8000000000009395,0.2822955676099784,0.2044143311185743
8.000000000001005,0.28801983433478784,0.20851536924765993
8.200000000000895,0.2937076751090523,0.21297050494308897
8.400000000000784,0.2994476936951661,0.22089595590407918
8.600000000000673,0.30505774759687654,0.23001639350860217
8.800000000000562,0.3088006474952317,0.236955191322898
9.000000000000451,0.31353243048137597,0.24822816523300908
9.20000000000034,0.3180407689074595,0.25582202850231633
9.40000000000023,0.3221719971160487,0.2609278217871868
9.600000000000119,0.32734850251088204,0.26720939502897967
9.800000000000008,0.33148048985874035,0.27331860099739613
10.000999999999896,0.3355916618378864,0.28378128287706494
10.200999999999786,0.3394212452132598,0.29762393743442256
10.400999999999675,0.34484493594865756,0.30306078983497703
10.600999999999564,0.349577322327398,0.3083191227507452
10.800999999999453,0.3541805901967963,0.3150668552630144
11.000999999999342,0.3569188985241299,0.3229089735872788
11.200999999999231,0.3619378318822014,0.3320966253406469
11.40099999999912,0.3684069095409344,0.3387032363537311
11.60099999999901,0.3725771802693416,0.3454023935016766
11.800999999998899,0.37711965298089484,0.35358866822524304
12.000999999998788,0.3805728916165592,0.3658471551538459
12.200999999998677,0.3817640995876621,0.3765097955450121
12.400999999998566,0.3842071294562685,0.38425069781917587
12.600999999998455,0.3853426812446764,0.394768197874141
12.800999999998345,0.390453107641558,0.4078164490318301
13.000999999998234,0.3936953046671254,0.415836807561101
13.200999999998123,0.395926262153971,0.42293580579990336
13.400999999998012,0.3974889963306729,0.43304227130241607
13.600999999997901,0.40198574504452445,0.440448269822942
13.80099999999779,0.40709774412030447,0.447230628037158
14.00099999999768,0.40971693365409634,0.45589862750244264
14.200999999997569,0.41159845243009613,0.4666821207226868
14.400999999997458,0.41415753703793207,0.475872343821735
14.600999999997347,0.41699924665022203,0.4827932372096435
14.800999999997236,0.4212124976229467,0.48647227280016986
15.000999999997125,0.42388674612629035,0.4983152547383512
15.200999999997014,0.423712285081553,0.5111813103871544
15.400999999996904,0.4270733877112571,0.5246512642913223
15.600999999996793,0.4314765261453726,0.5273718109484864
15.800999999996682,0.43361112649564804,0.533463871737665
16.000999999996573,0.4356846339447074,0.5432168979866353
16.200999999996817,0.43542097003422203,0.5526139383331102
16.40099999999706,0.4349748973749167,0.5627378285418831
16.600999999997306,0.4334686060950268,0.5724799999909383
16.80099999999755,0.43127574017862697,0.5831211690952894
17.000999999997795,0.43301754831881367,0.5887408119121367
17.20099999999804,0.43236041370027506,0.6008884009940478
17.400999999998284,0.4332826325690456,0.6136142948112386
17.60099999999853,0.4316727404786159,0.631278192433681
17.800999999998773,0.4349788237274945,0.6422056239362507
18.000999999999017,0.4325340316020025,0.6549141613939736
18.20099999999926,0.43229978771872984,0.6655902328241574
18.400999999999506,0.4301319121851409,0.6717157490205405
18.60099999999975,0.4309947098781621,0.6833525486732671
18.799999999999994,0.4317409963618815,0.6932753655981054
19.000000000000238,0.4294332486154163,0.7041489336941323
19.200000000000482,0.42812939029991215,0.714610606213607
19.400000000000727,0.42489837041507206,0.7255687047080714
19.60000000000097,0.4220169783938256,0.7340646629774203
19.800000000001216,0.41563833967914987,0.7450872573796642
20.00000000000146,0.41047907411760937,0.7586202989355021
