Time (s),X (m),Y (m)
0.001,-0.0005090653149319316,0.0007291460897812449
0.20000000000000015,0.0054989190971957355,-0.0034590590887726047
0.4000000000000003,0.005949806244677555,0.00012502016367452447
0.6000000000000004,0.016354091077673157,-0.0007457310481353623
0.8000000000000006,0.028868011941195565,0.005666505910257929
1.0000000000000007,0.03999900623457724,0.0075975463182570615
1.2009999999999785,0.060030184987985874,0.002037859662320573
1.4009999999999565,0.07755925117858037,-0.00259335818555378
1.6009999999999345,0.0957234722164398,-0.011546734066971338
1.8009999999999124,0.1133506334183053,-0.04195831087120994
2.0009999999998906,0.12640919419992722,-0.06496574720145488
2.2009999999998686,0.13669492483219547,-0.07682329147206966
2.4009999999998466,0.14547421432436106,-0.08727934027063398
2.6009999999998246,0.15776633452162386,-0.10380297753593207
2.8009999999998025,0.16400202430113411,-0.12135009898991032
3.0009999999997805,0.1719336575700285,-0.14857362245871
3.2009999999997585,0.18084174588720398,-0.16904547246447085
3.4009999999997365,0.19225562968521692,-0.19618873931666686
3.6009999999997144,0.19837936823084512,-0.21402533464255483
3.8009999999996924,0.20278375372778107,-0.2340815351570523
4.000999999999671,0.20982351248596204,-0.263287024943422
4.200999999999738,0.21622412875082486,-0.2889669577047338
4.400999999999804,0.21889506193908667,-0.3113580463874853
4.600999999999871,0.22201170540603707,-0.339564844681379
4.800999999999938,0.21893345224900448,-0.37567156270315993
5.000000000000004,0.21712994792593346,-0.410353212154061
5.200000000000071,0.2260900646715474,-0.43907079389716985
5.400000000000138,0.23796500974096066,-0.46526993990492016
5.600000000000205,0.239699103500078,-0.49926914150150187
5.800000000000272,0.23738310725724002,-0.5349340107310789
6.000000000000338,0.2298307686075318,-0.5686854030256913
6.200000000000405,0.22448449671806647,-0.5976991650787514
6.400000000000472,0.22322584988458402,-0.6217606651103939
6.600000000000539,0.2177505668238791,-0.6501332707805683
6.800000000000606,0.21601208417098916,-0.6801421062305801
7.000000000000672,0.2192248680587892,-0.7046439385342302
7.200000000000739,0.22273256430101548,-0.7332159391967604
7.400000000000806,0.22353663381307148,-0.7668515687242102
7.600000000000873,0.2246388089199548,-0.8005919948933404
7.8000000000009395,0.22250414674757207,-0.8303110099302473
8.000000000001005,0.20908257646642978,-0.8569919155217932
8.200000000000895,0.19091771283594888,-0.8809930025910889
8.400000000000784,0.1752394172545204,-0.9052207747407134
8.600000000000673,0.1543445550657853,-0.9311231821472353
8.800000000000562,0.12296787025976687,-0.9511597057771697
9.000000000000451,0.08651641208190831,-0.9644220931088401
9.20000000000034,0.058872869107582895,-0.976330414695068
9.40000000000023,0.03072852498549643,-0.9881547350979298
9.600000000000119,0.0038664984081226445,-0.9875526907248409
9.800000000000008,-0.026108697879869556,-0.9843043088036846
10.000999999999896,-0.05294669149544934,-0.9839901498299801
10.200999999999786,-0.0802260088587228,-0.9909423741545526
10.400999999999675,-0.11689389013643925,-0.9779296418193315
10.600999999999564,-0.150130068922472,-0.9700935845353512
10.800999999999453,-0.1774660893379038,-0.9469462169369779
11.000999999999342,-0.20275014286450294,-0.9221882395831457
11.200999999999231,-0.21632721478600783,-0.8837786861948401
11.40099999999912,-0.2204041261986237,-0.8453551560981584
11.60099999999901,-0.2245155832685607,-0.8064093586823463
11.800999999998899,-0.22757248178365294,-0.7692028089922338
12.000999999998788,-0.2361433972130311,-0.7345325887215187
12.200999999998677,-0.24589411349406215,-0.7061943918954401
12.400999999998566,-0.2529594651690309,-0.6710762161826958
12.600999999998455,-0.2515113385778281,-0.6383217936468278
12.800999999998345,-0.2539381403012135,-0.6058737818236607
13.000999999998234,-0.24442703034360988,-0.5700316477921912
13.200999999998123,-0.22727125123469566,-0.533771754481465
13.400999999998012,-0.2070464842186057,-0.49653744661607546
13.600999999997901,-0.19352485049462478,-0.4611191671335372
13.80099999999779,-0.1672132557443569,-0.42745659396601227
14.00099999999768,-0.1527715531823828,-0.3991286527059136
14.200999999997569,-0.13070762495918542,-0.3781463832224411
14.400999999997458,-0.10810729642512186,-0.3600749501339828
14.600999999997347,-0.0819397129900463,-0.34704371636893266
14.800999999997236,-0.05945018804136137,-0.33883097495517744
15.000999999997125,-0.032667182492368704,-0.3367847875669646
15.200999999997014,-0.0055789125844558215,-0.33434475121905916
15.400999999996904,0.024048727661096534,-0.3445310379397023
15.600999999996793,0.061191358659584374,-0.3720729973232179
15.800999999996682,0.09297931144002486,-0.40422896453894824
16.000999999996573,0.11385805991034517,-0.4413420998283496
16.200999999996817,0.123640988659603,-0.48061872378676834
16.40099999999706,0.13893768569378523,-0.51625109477871
16.600999999997306,0.14092821502821595,-0.5433085929038749
16.80099999999755,0.13325241635678084,-0.5688120302156221
17.000999999997795,0.13005661352960382,-0.5940536770748537
17.20099999999804,0.12868793886133542,-0.6221194338031545
17.400999999998284,0.12385358589095453,-0.64826902921016
17.60099999999853,0.1189907348518764,-0.6805113652782094
17.800999999998773,0.11244777601460546,-0.7132490187572906
18.000999999999017,0.09822313440764453,-0.7449713864172642
18.20099999999926,0.08834532873250721,-0.7746461103773561
18.400999999999506,0.0779171107766513,-0.8029888818958423
18.60099999999975,0.05744627834264212,-0.8255922794074788
18.799999999999994,0.03312477356261321,-0.8410486778730424
19.000000000000238,0.01477028960904612,-0.8560888276830957
19.200000000000482,-0.00938106264554348,-0.8722509406513862
19.400000000000727,-0.03569393675305122,-0.8862235944259742
19.60000000000097,-0.06219660885618753,-0.8978310683709696
19.800000000001216,-0.09554078409116877,-0.9004984331351351
20.00000000000146,-0.13425407078782076,-0.9000891519802566
