Time (s),X (m),Y (m)
0.001,0.0012512490639692614,0.0
0.20000000000000015,0.002783214360924132,0.00011637397296089022
0.4000000000000003,0.007354476513146707,0.0010155782349269406
0.6000000000000004,0.010180387886343595,0.0011948335534566446
0.8000000000000006,0.009890810642496778,0.005679279316279542
1.0000000000000007,0.01104816991600985,0.006697893882913526
1.2009999999999785,0.025117989026770378,0.003621695543503481
1.4009999999999565,0.02335466621913373,0.004636074041504689
1.6009999999999345,0.03163176941896199,0.006368742776531415
1.8009999999999124,0.039084802860720295,0.0066830419263403185
2.0009999999998906,0.04416516327976302,0.0047622520960695445
2.2009999999998686,0.05589223331998476,-0.0001632386293374495
2.4009999999998466,0.05906040495310517,-0.004350021912516577
2.6009999999998246,0.06944277715567465,-0.0037622231962791746
2.8009999999998025,0.08181629464063452,-0.007382410771076679
3.0009999999997805,0.09022903635088095,-0.011241057753338753
3.2009999999997585,0.10723491240059993,-0.017946701623432
3.4009999999997365,0.1233641439118046,-0.0245872199936701
3.6009999999997144,0.13074594890200472,-0.028226250466369566
3.8009999999996924,0.14435648343410665,-0.03388861518744106
4.000999999999671,0.1556329204512286,-0.04497164286041284
4.200999999999738,0.16000295910562437,-0.047898376451887964
4.400999999999804,0.17000099582193637,-0.05079007527919784
4.600999999999871,0.18317462225663772,-0.056859355448735986
4.800999999999938,0.2025254141941013,-0.06252812622332879
5.000000000000004,0.21794462504606216,-0.06790637508350794
5.200000000000071,0.23178989492460766,-0.07199846050181197
5.400000000000138,0.248185525927305,-0.07751977778787938
5.600000000000205,0.26641947822538325,-0.08493830995803567
5.800000000000272,0.286572497047574,-0.0958627998775714
6.000000000000338,0.30660431209759914,-0.10181281272277234
6.200000000000405,0.31905269156608956,-0.10849907560657604
6.400000000000472,0.33290650230636976,-0.11413823029834895
6.600000000000539,0.3484080536570609,-0.12175290499059098
6.800000000000606,0.3586747048877021,-0.1283562933363192
7.000000000000672,0.3714596288951016,-0.13090544552114258
7.200000000000739,0.37833080774872685,-0.13819350969030098
7.400000000000806,0.39278054547159086,-0.14504420214515312
7.600000000000873,0.40942581774218434,-0.15089679826410352
7.8000000000009395,0.4182932152614889,-0.15663360621295772
8.000000000001005,0.4334999341056501,-0.16280305893782435
8.200000000000895,0.44068617227216705,-0.16796010067807243
8.400000000000784,0.45037509395558517,-0.17592548449169815
8.600000000000673,0.4677772824751665,-0.1828585315583664
8.800000000000562,0.479989037595637,-0.18847912345618187
9.000000000000451,0.49853058225712266,-0.1956203740016205
9.20000000000034,0.5046564199110817,-0.1982562044990853
9.40000000000023,0.5224910721828191,-0.2070231007081328
9.600000000000119,0.53901385000622,-0.2133107932667992
9.800000000000008,0.5547085166482085,-0.21884537019128975
10.000999999999896,0.573483443171446,-0.2305075818466207
10.200999999999786,0.5918930397113796,-0.24356894632208706
10.400999999999675,0.6084206218371513,-0.2535605702611678
10.600999999999564,0.624817060575992,-0.2622210170431767
10.800999999999453,0.6363640612646334,-0.27123044153073156
11.000999999999342,0.646065542256544,-0.2805256604551247
11.200999999999231,0.6551238154626438,-0.28485921922297935
11.40099999999912,0.6691211496695948,-0.29617419653325017
11.60099999999901,0.69203298806082,-0.3123698780252783
11.800999999998899,0.7128931066496296,-0.324254084918755
12.000999999998788,0.7271078053039122,-0.33519455000579756
12.200999999998677,0.743227767868595,-0.3471940604786812
12.400999999998566,0.757568042870513,-0.356468885124625
12.600999999998455,0.7700596238475643,-0.36677361594914304
12.800999999998345,0.7902222613698597,-0.3765137519087546
13.000999999998234,0.805830557874742,-0.38338912227834815
13.200999999998123,0.8241738892386858,-0.3924914851302712
13.400999999998012,0.844058884365582,-0.4028947764257024
13.600999999997901,0.8628036646207704,-0.40967084595307635
13.80099999999779,0.8809092461477153,-0.4119530150995678
14.00099999999768,0.895394675263233,-0.42033638853966526
14.200999999997569,0.9166171916455085,-0.43424479358131796
14.400999999997458,0.9337734020533464,-0.4454565194700632
14.600999999997347,0.9485773440633372,-0.45444125534683943
14.800999999997236,0.9594535714876217,-0.46395290135847783
15.000999999997125,0.9787613128608985,-0.47507375595849827
15.200999999997014,0.9994090466308859,-0.4843693082715263
15.400999999996904,1.022078510826928,-0.49780397478622634
15.600999999996793,1.0390575670042304,-0.5099940673536296
15.800999999996682,1.0574483096934448,-0.5214646493535205
16.000999999996573,1.0766907142893245,-0.5351649170251846
16.200999999996817,1.09197944127589,-0.5446840241800371
16.40099999999706,1.1082919616220144,-0.5529855307732218
16.600999999997306,1.1305338283353754,-0.5685184026780122
16.80099999999755,1.1495796687751862,-0.5759038650234211
17.000999999997795,1.1677450364069961,-0.5782881195705433
17.20099999999804,1.184396877139777,-0.5853133314103819
17.400999999998284,1.2011533766481164,-0.5934430446403796
17.60099999999853,1.2194714774654989,-0.600638496999157
17.800999999998773,1.2388333684253414,-0.6124276918003256
18.000999999999017,1.2534371442506658,-0.6238470290642214
18.20099999999926,1.2704652912844094,-0.634600571998544
18.400999999999506,1.2905512152331182,-0.6453533554549271
18.60099999999975,1.3048419348052294,-0.6511464812352225
18.799999999999994,1.3190910778365255,-0.6603225974182461
19.000000000000238,1.3383452979749,-0.6737259803035106
19.200000000000482,1.3574656783776191,-0.6852733409132808
19.400000000000727,1.3716783834299415,-0.6963940093236856
19.60000000000097,1.3901015287623604,-0.7062537702557304
19.800000000001216,1.4068105873978123,-0.7193330124016026
20.00000000000146,1.4175555453061017,-0.7280127479258375
