Time (s),X (m),Y (m)
0.001,-0.0007759513068619564,0.00026688599193002506
0.20000000000000015,0.004416714072571233,-0.0016311111657139267
0.4000000000000003,0.00625722773796406,-0.001187332401393116
0.6000000000000004,0.004381363053325909,0.003939174255594762
0.8000000000000006,0.010598301880170484,0.004172735654801232
1.0000000000000007,0.023540938580945303,0.0015715902318045973
1.2009999999999785,0.034485556388949686,0.00020626470638679395
1.4009999999999565,0.047587171071559506,-0.0014637778711287285
1.6009999999999345,0.06019014530813924,-0.005945261147651886
1.8009999999999124,0.07339942358619685,-0.006525494468961837
2.0009999999998906,0.08749037017185016,-0.010120604119601789
2.2009999999998686,0.10269093674565055,-0.010969802568127062
2.4009999999998466,0.12074192643086396,-0.010685060626201545
2.6009999999998246,0.13663758801750733,-0.010020026814689043
2.8009999999998025,0.1475464992440496,-0.01007194815617747
3.0009999999997805,0.14669304511797024,-0.012496261579589758
3.2009999999997585,0.15549581089601974,-0.01757960348908297
3.4009999999997365,0.16605558007402263,-0.016827187547892575
3.6009999999997144,0.17314505006726016,-0.022276167730236662
3.8009999999996924,0.18650530606308047,-0.027189230020400117
4.000999999999671,0.2144341019124583,-0.034679874486554255
4.200999999999738,0.23165283241451878,-0.03946049689021843
4.400999999999804,0.2515006784121996,-0.047676435487526446
4.600999999999871,0.27477220146739645,-0.05058678769813339
4.800999999999938,0.2902067164767558,-0.05494999106286783
5.000000000000004,0.3162275640879711,-0.06776363381277556
5.200000000000071,0.3325948841361696,-0.07499847783873399
5.400000000000138,0.36601039325543333,-0.09576035253738081
5.600000000000205,0.39194718554883484,-0.10760218666976618
5.800000000000272,0.41473714094971925,-0.12174310730131888
6.000000000000338,0.43294799819016333,-0.14006191851607278
6.200000000000405,0.4553658958777223,-0.15069188646098466
6.400000000000472,0.4725479598835435,-0.16312510575051875
6.600000000000539,0.49529227182407415,-0.17291922764668183
6.800000000000606,0.516512083784345,-0.18696654508387514
7.000000000000672,0.5387673223487384,-0.20098828113685285
7.200000000000739,0.5525582526155078,-0.20995734081413905
7.400000000000806,0.5731865933538712,-0.2311454138207939
7.600000000000873,0.5915252123893971,-0.2566111089624522
7.8000000000009395,0.6072989433092715,-0.2741140939866539
8.000000000001005,0.6213955569446257,-0.2918738508239951
8.200000000000895,0.6289319675353588,-0.30802667509790194
8.400000000000784,0.6316244080772918,-0.32378566547115645
8.600000000000673,0.6369847133722777,-0.34699249427231327
8.800000000000562,0.6371479126167936,-0.3697472877746221
9.000000000000451,0.6340804414094176,-0.3983801413501724
9.20000000000034,0.6286043113607351,-0.42113977188594426
9.40000000000023,0.6195701984247874,-0.45010435841007423
9.600000000000119,0.6124972068879516,-0.4699030859216157
9.800000000000008,0.6048372185832974,-0.49598838060712963
10.000999999999896,0.5957429888427367,-0.5152498503766141
10.200999999999786,0.5824059822471086,-0.5492938826685333
10.400999999999675,0.568317283297548,-0.5848351650889595
10.600999999999564,0.5543041807414433,-0.6164072435033059
10.800999999999453,0.5357381462103367,-0.6542382651704721
11.000999999999342,0.5201446107447729,-0.6819011954659177
11.200999999999231,0.5018792170526781,-0.7091525644964725
11.40099999999912,0.48667366729136463,-0.734069832267449
11.60099999999901,0.46084935526479853,-0.7601748034221286
11.800999999998899,0.44201049725912717,-0.7841643670203448
12.000999999998788,0.42050403108803913,-0.8047850087892127
12.200999999998677,0.40691866419477973,-0.82447322398099
12.400999999998566,0.3882580144252659,-0.8404090772947953
12.600999999998455,0.3655735635464885,-0.8553627403969375
12.800999999998345,0.33004657933545034,-0.859258642033801
13.000999999998234,0.302283116265798,-0.8602139043441008
13.200999999998123,0.28017561776310107,-0.857122280799692
13.400999999998012,0.25513725878621724,-0.8552931364180044
13.600999999997901,0.23114708002051915,-0.8487462565618068
13.80099999999779,0.20501399855332175,-0.8371648208271548
14.00099999999768,0.17191638478392365,-0.8245061538687263
14.200999999997569,0.14259794873823847,-0.816871513810801
14.400999999997458,0.11792213167137837,-0.8074903941242667
14.600999999997347,0.09466852709581025,-0.7994242047000083
14.800999999997236,0.06611844057994053,-0.7883084651663564
15.000999999997125,0.036477667792518244,-0.7755547287607636
15.200999999997014,0.011545787209817821,-0.7665277760778203
15.400999999996904,-0.021874542001698968,-0.7477875166045213
15.600999999996793,-0.05516451409138945,-0.7331686111516564
15.800999999996682,-0.0780981529529502,-0.7231822694884682
16.000999999996573,-0.10257103639772452,-0.7071450237505535
16.200999999996817,-0.13212075873274964,-0.6801719076413877
16.40099999999706,-0.16040605790483758,-0.6553364976672923
16.600999999997306,-0.19104740616258462,-0.6353786863017568
16.80099999999755,-0.21171545167623007,-0.6223553648844448
17.000999999997795,-0.23336786146554606,-0.5956787548700322
17.20099999999804,-0.2544477564198017,-0.5734743085777821
17.400999999998284,-0.2711535030050218,-0.5496821260520912
17.60099999999853,-0.2806480405648212,-0.5349518998421989
17.800999999998773,-0.28841775311773227,-0.5174124918424029
18.000999999999017,-0.2916533871602298,-0.4964121888278762
18.20099999999926,-0.2960709762308019,-0.47025858168853485
18.400999999999506,-0.29800673577583164,-0.45309018290626085
18.60099999999975,-0.2939485714439903,-0.42935863245950706
18.799999999999994,-0.28942778720522516,-0.4029189641000238
19.000000000000238,-0.2837021106051558,-0.37501131829016715
19.200000000000482,-0.2751873224739251,-0.3505261580361077
19.400000000000727,-0.2657668438315145,-0.3265088345043355
19.60000000000097,-0.2526893775000507,-0.29672056996932333
19.800000000001216,-0.23964765909203561,-0.2613427676436265
20.00000000000146,-0.22701787073608207,-0.23429481780364034
