Time (s),X (m),Y (m)
0.001,4.1020280575708355e-05,-0.0010155025257856578
0.20000000000000015,0.0017047610870081645,0.0029874463547689247
0.4000000000000003,0.004841326856879571,0.0006589458714199095
0.6000000000000004,0.012534033445942557,-0.0005844214568694693
0.8000000000000006,0.028285933902102867,-0.001629155501014121
1.0000000000000007,0.047730012665534075,0.0049604525655214
1.2009999999999785,0.06877165080791853,0.015368666015849314
1.4009999999999565,0.09054624999778392,0.03092999052476738
1.6009999999999345,0.11090966003406046,0.03227199041139334
1.8009999999999124,0.13239255176583634,0.017768835076442304
2.0009999999998906,0.15932841117900295,0.017124739018004886
2.2009999999998686,0.17909576147232037,0.006235757173943348
2.4009999999998466,0.20623816308369433,0.004421581960187167
2.6009999999998246,0.2380435598617195,0.010907204478174996
2.8009999999998025,0.2626985309443671,0.0067328916432939055
3.0009999999997805,0.27994580973469435,-0.005461714159732399
3.2009999999997585,0.30141669636442064,-0.011809900923829603
3.4009999999997365,0.32027237897954286,-0.018466970993268553
3.6009999999997144,0.3412859255815348,-0.025518963069168572
3.8009999999996924,0.36706019240530435,-0.030329571699440824
4.000999999999671,0.389690276569096,-0.04241885658843022
4.200999999999738,0.4077875565460211,-0.055756655623216564
4.400999999999804,0.42805539964849315,-0.06591808738014672
4.600999999999871,0.44953556167395436,-0.07437539962795134
4.800999999999938,0.4787755454086781,-0.06220415441941039
5.000000000000004,0.5112413120054645,-0.05796811083154664
5.200000000000071,0.5445111341185066,-0.049138903819046204
5.400000000000138,0.573643079716543,-0.044804383551215646
5.600000000000205,0.6018850653707912,-0.039544524892980534
5.800000000000272,0.6281202356763738,-0.04795227613422847
6.000000000000338,0.6588731887476361,-0.05077884285414592
6.200000000000405,0.6831828222301883,-0.06727897193479508
6.400000000000472,0.7109193737192078,-0.06441620192535731
6.600000000000539,0.7429799323529064,-0.06605842026807114
6.800000000000606,0.7784554822980845,-0.05742176525817232
7.000000000000672,0.8120853241989291,-0.0613721072402288
7.200000000000739,0.8348518874573483,-0.07554574879393909
7.400000000000806,0.8589117030191086,-0.08899465192207517
7.600000000000873,0.8832851973471302,-0.09706248001146453
7.8000000000009395,0.9095002300574478,-0.11194342092339865
8.000000000001005,0.9337956263085828,-0.1282512218954126
8.200000000000895,0.9554655019923274,-0.14420599508536222
8.400000000000784,0.9770484336312584,-0.1539406695444575
8.600000000000673,0.9972540866689674,-0.16544822488643635
8.800000000000562,1.0182626785548212,-0.17630696504714397
9.000000000000451,1.0404111360726178,-0.18574195521114661
9.20000000000034,1.0675497661259203,-0.18673840574294917
9.40000000000023,1.0916808117353638,-0.1927304415864371
9.600000000000119,1.1158532283487204,-0.19414405147270464
9.800000000000008,1.1431641445126821,-0.1976635691640048
10.000999999999896,1.170841881245942,-0.19987618307108546
10.200999999999786,1.202084133443094,-0.19840247789700904
10.400999999999675,1.2286313188572309,-0.1917809238686485
10.600999999999564,1.2570035136273625,-0.1905880162226788
10.800999999999453,1.282369817875992,-0.2067538348568069
11.000999999999342,1.3130036660448958,-0.21376429130088623
11.200999999999231,1.3416229338243342,-0.2049379624523092
11.40099999999912,1.3731941652449078,-0.19882434753596617
11.60099999999901,1.4085396947571314,-0.1904483069210424
11.800999999998899,1.4383611939763437,-0.18028575189132204
12.000999999998788,1.4651476810780728,-0.1679227039501074
12.200999999998677,1.4909993266277215,-0.174507603449528
12.400999999998566,1.5197067173325454,-0.18297841733747547
12.600999999998455,1.5488543464820463,-0.19479060280738725
12.800999999998345,1.5818739894167184,-0.19337176326533867
13.000999999998234,1.6108895564899077,-0.18805678078528698
13.200999999998123,1.639444137052648,-0.19054349514274807
13.400999999998012,1.6687289327814387,-0.18137183260152787
13.600999999997901,1.698010058347482,-0.17244911486646153
13.80099999999779,1.7268482056813859,-0.1636628861510669
14.00099999999768,1.7541581040822427,-0.1578100268042812
14.200999999997569,1.7793192941856166,-0.16385232434572256
14.400999999997458,1.8057478942191825,-0.1712575704755525
14.600999999997347,1.833529863620741,-0.1684091197827956
14.800999999997236,1.8606001233140297,-0.16486622725367758
15.000999999997125,1.8915489062860915,-0.16915774020662036
15.200999999997014,1.922130321323922,-0.16995719925288388
15.400999999996904,1.9535776456759193,-0.17001176246959862
15.600999999996793,1.985981953714409,-0.16542620719660014
15.800999999996682,2.016453558881506,-0.16036529320642953
16.000999999996573,2.049877045632226,-0.15717916449227654
16.200999999996817,2.087261572201272,-0.14337246373082743
16.40099999999706,2.125883366570195,-0.1351089633907784
16.600999999997306,2.1622538894510663,-0.13927570173822587
16.80099999999755,2.193102090293124,-0.12904576078458346
17.000999999997795,2.221531400569549,-0.12196597204261378
17.20099999999804,2.2466429368150522,-0.12931225036668412
17.400999999998284,2.2746592853254373,-0.13259274239173816
17.60099999999853,2.2995709488357403,-0.13150889682083103
17.800999999998773,2.326690172055849,-0.12520360098747169
18.000999999999017,2.3600426498020988,-0.11737653942795345
18.20099999999926,2.392614943331733,-0.10927976376589449
18.400999999999506,2.4218719144245293,-0.10702677333568864
18.60099999999975,2.45561694600497,-0.09967225952625933
18.799999999999994,2.485398154099079,-0.0941983219639566
19.000000000000238,2.514755691919144,-0.08786273676092485
19.200000000000482,2.5431824974914967,-0.08018966199645916
19.400000000000727,2.5738610996381226,-0.07503980608683436
19.60000000000097,2.604079472350736,-0.07609674682300757
19.800000000001216,2.634431184683418,-0.07829773881091112
20.00000000000146,2.6655489552616514,-0.07204143483588192
