Time (s),X (m),Y (m)
0.001,-0.00021570977506068912,-0.0009345558501746678
0.20000000000000015,-0.0014769506640655492,-0.0046339663326558245
0.4000000000000003,0.0020936656136196123,-0.003955544414989838
0.6000000000000004,0.005695960913895956,0.00038128193625571453
0.8000000000000006,0.010894046489519901,0.0005753927963840055
1.0000000000000007,0.016202515397702504,0.0013235954919835302
1.2009999999999785,0.02117625227111901,0.0007084906416388366
1.4009999999999565,0.02538238878292127,0.004650792163774306
1.6009999999999345,0.02970784257426219,0.004875006944793928
1.8009999999999124,0.033770838585974565,0.009829590825343515
2.0009999999998906,0.0382207532013286,0.009706428720501037
2.2009999999998686,0.0426900933492796,0.00852660547537653
2.4009999999998466,0.04725831567003337,0.010240063989561841
2.6009999999998246,0.051899577392934694,0.013789733545929791
2.8009999999998025,0.056468589818690205,0.013192175062708044
3.0009999999997805,0.059260969057989867,0.017657038305184287
3.2009999999997585,0.06263576180814388,0.019284301807908636
3.4009999999997365,0.06439323704293919,0.023319589644555685
3.6009999999997144,0.06684086412494548,0.025235526447246397
3.8009999999996924,0.06934371876568625,0.031533424434578926
4.000999999999671,0.0718776772968282,0.035485910775664826
4.200999999999738,0.07398648786786274,0.03850584942635674
4.400999999999804,0.07695117477381522,0.04210219685538472
4.600999999999871,0.07804289820915086,0.04759704669086928
4.800999999999938,0.0823300388099022,0.04682060715742224
5.000000000000004,0.08425939243647321,0.05064309334882345
5.200000000000071,0.08693616401128654,0.056291634616737356
5.400000000000138,0.08875070728813902,0.05925128120471613
5.600000000000205,0.09032134888442703,0.06631758496186285
5.800000000000272,0.09135255715736748,0.07055498791051489
6.000000000000338,0.09174516997053501,0.07767483005758978
6.200000000000405,0.09213893133743821,0.08377359735242518
6.400000000000472,0.09273540666598158,0.09040824092776827
6.600000000000539,0.09328369792967053,0.09768420251408123
6.800000000000606,0.09537593994983644,0.10237920424362013
7.000000000000672,0.09384005081383458,0.11017938200869148
7.200000000000739,0.09409164665166815,0.11552480073319056
7.400000000000806,0.09445339069655927,0.12044701330854035
7.600000000000873,0.09185283738664796,0.12826988175811005
7.8000000000009395,0.09334215129823212,0.13363921564864983
8.000000000001005,0.09151535145887386,0.1395089902715093
8.200000000000895,0.0908141369433097,0.14571998265299102
8.400000000000784,0.09199879427067138,0.15132530558500848
8.600000000000673,0.08955760692933529,0.15807459147224423
8.800000000000562,0.08669388115337635,0.16528845693999497
9.000000000000451,0.08686576857546877,0.1721653778698818
9.20000000000034,0.0870976506931268,0.1793841433999457
9.40000000000023,0.0846560654289619,0.18506210536279905
9.600000000000119,0.0795189374407904,0.1917624967801732
9.800000000000008,0.07581488011032264,0.1978360213108101
10.000999999999896,0.0753349000775036,0.20363774410152452
10.200999999999786,0.07366993830032809,0.2093881444357585
10.400999999999675,0.06962108324077089,0.21486324754966296
10.600999999999564,0.06798655866501284,0.2196065998118017
10.800999999999453,0.06639956495552554,0.22471510108766607
11.000999999999342,0.06535559814252906,0.2291976194397167
11.200999999999231,0.06332715928805757,0.234394914349478
11.40099999999912,0.059628146976318394,0.23886010904338892
11.60099999999901,0.057480274799168105,0.2425974913755239
11.800999999998899,0.05334815024963185,0.2458991531389981
12.000999999998788,0.05265020968595068,0.24876035159827725
12.200999999998677,0.04819196189139891,0.24964278341553442
12.400999999998566,0.04519734903743148,0.25349531252826013
12.600999999998455,0.040090074411759755,0.25707413628517256
12.800999999998345,0.034471218411110185,0.25748104575488234
13.000999999998234,0.032119143719746286,0.2602761513534344
13.200999999998123,0.027305986185980277,0.26377665765971026
13.400999999998012,0.02303667580704462,0.2662742411110073
13.600999999997901,0.019072710951304295,0.26779208353719647
13.80099999999779,0.014606795786433419,0.26919388468784483
14.00099999999768,0.007584373367567383,0.26892940961476
14.200999999997569,0.00548957134888586,0.27245455617124753
14.400999999997458,-0.0023499306874568784,0.2715188925388553
14.600999999997347,-0.009479081666772098,0.2712899252102781
14.800999999997236,-0.013616509025794752,0.2740845043767735
15.000999999997125,-0.02116792221761831,0.27325469120070833
15.200999999997014,-0.026523265612256392,0.27415886360075997
15.400999999996904,-0.03260649597932417,0.27410601945338786
15.600999999996793,-0.03962414518178836,0.2731167585092581
15.800999999996682,-0.04616616087968045,0.2739547546269768
16.000999999996573,-0.05486051072732217,0.26971317020959373
16.200999999996817,-0.05994780663562601,0.27291966685968466
16.40099999999706,-0.06738881059070795,0.2695312136863477
16.600999999997306,-0.07526628270215066,0.2658066878498686
16.80099999999755,-0.08237393409305385,0.2623232284407123
17.000999999997795,-0.08910684296468435,0.2594982441553571
17.20099999999804,-0.09604207004610554,0.26054213150570515
17.400999999998284,-0.10254128285119254,0.2572205977973689
17.60099999999853,-0.10903001354007752,0.25651658910182334
17.800999999998773,-0.115850154134803,0.25682026781555106
18.000999999999017,-0.12114855030311751,0.2545489414730016
18.20099999999926,-0.12676360199952993,0.2545702252021808
18.400999999999506,-0.13269121457021615,0.2539171871129658
18.60099999999975,-0.13874710150515204,0.25108613568396265
18.799999999999994,-0.14318288699500667,0.2457139136159166
19.000000000000238,-0.1483945688328064,0.24046810817769923
19.200000000000482,-0.15245803384938894,0.2363436440159114
19.400000000000727,-0.15537598922204732,0.2319988135696657
19.60000000000097,-0.15881857055669582,0.22984106685076805
19.800000000001216,-0.1615428523905262,0.22672303603866076
20.00000000000146,-0.1656331161553599,0.22402331363683717
