Time (s),X (m),Y (m)
0.001,-0.0008071636076123137,8.987223813608099e-05
0.20000000000000015,-0.0035451567042096236,-1.1319492365440224e-05
0.4000000000000003,-0.004543944155609044,0.0005374483105976737
0.6000000000000004,-0.008069198847336591,-0.0015771680111672775
0.8000000000000006,-0.007590214214237017,-0.002430712630890827
1.0000000000000007,-0.00523735087342928,-0.003273722253000692
1.2009999999999785,-0.0015962150391984195,-0.004106593778998361
1.4009999999999565,0.0018174966871474718,-0.0043255437177183165
1.6009999999999345,0.0071987927987450006,-0.0032584491618489935
1.8009999999999124,0.01077639663543536,-0.0030649968425589982
2.0009999999998906,0.016959267128485056,-0.004064655381068488
2.2009999999998686,0.020744380276388995,-0.0021663232993768588
2.4009999999998466,0.02951168381994801,-0.003719216153325085
2.6009999999998246,0.037159896419634374,-0.005303652242855639
2.8009999999998025,0.039755270369881045,-0.006350448069764755
3.0009999999997805,0.04500221591967764,-0.00792592322132921
3.2009999999997585,0.0497271226483196,-0.008593149655984416
3.4009999999997365,0.05202217670081478,-0.008566974115339089
3.6009999999997144,0.060172756743845805,-0.006831305310290878
3.8009999999996924,0.06707396757044128,-0.006777674168330011
4.000999999999671,0.07279643345892158,-0.007555561954172688
4.200999999999738,0.08062966913321681,-0.008485042046175504
4.400999999999804,0.08529828165481787,-0.009606729583304023
4.600999999999871,0.08935800330900447,-0.009937691886961334
4.800999999999938,0.0932207577385247,-0.011000481833731207
5.000000000000004,0.09658612395511658,-0.011911221486041998
5.200000000000071,0.10270036308098023,-0.009604396128342116
5.400000000000138,0.10781169089427249,-0.008409077503180729
5.600000000000205,0.11470262976514435,-0.00834179726968309
5.800000000000272,0.12220062898086391,-0.006819353520690207
6.000000000000338,0.13077941096530035,-0.006075066978384615
6.200000000000405,0.13779782347729524,-0.010015362179058398
6.400000000000472,0.1443507282369553,-0.013858997315434647
6.600000000000539,0.14954630997259188,-0.01622068449023139
6.800000000000606,0.15638539111971353,-0.019218387409418905
7.000000000000672,0.1595242131122514,-0.019218026757109062
7.200000000000739,0.16786927334447233,-0.018882669290615522
7.400000000000806,0.17428001524862707,-0.017961466737649846
7.600000000000873,0.18243117129253286,-0.018615475613829334
7.8000000000009395,0.19494860603581074,-0.021699948665465253
8.000000000001005,0.20781564577029196,-0.025900299747183983
8.200000000000895,0.21622181522809472,-0.027474826631931848
8.400000000000784,0.22493597516181474,-0.03107638488091591
8.600000000000673,0.2331993098085816,-0.036453030142205384
8.800000000000562,0.2394625685082304,-0.040351389609006943
9.000000000000451,0.2430680412856772,-0.04361601605247238
9.20000000000034,0.24559076385002168,-0.04525903607811413
9.40000000000023,0.24952923967163088,-0.04878187653467435
9.600000000000119,0.25328506458485145,-0.05102919337444673
9.800000000000008,0.25967544748656063,-0.05313114193998827
10.000999999999896,0.26702044027060357,-0.053261007207229476
10.200999999999786,0.27647877088519923,-0.056803903837794385
10.400999999999675,0.27928007007751976,-0.05792971584002576
10.600999999999564,0.28788184833262825,-0.0588422054199747
10.800999999999453,0.29723670263540164,-0.0598130685512415
11.000999999999342,0.30734704335939694,-0.06307563155016271
11.200999999999231,0.3180233816509027,-0.06514859247322602
11.40099999999912,0.32620777225710873,-0.06549758186917852
11.60099999999901,0.33656507954090464,-0.06786323155494453
11.800999999998899,0.34730885073573414,-0.07035016663331133
12.000999999998788,0.35705196992656774,-0.07257696707279669
12.200999999998677,0.36693543459837774,-0.07454495301515442
12.400999999998566,0.37533366825119113,-0.07656025427531517
12.600999999998455,0.386635284917785,-0.08068844984538658
12.800999999998345,0.39740856444800887,-0.08490855659742319
13.000999999998234,0.4087139784881689,-0.09041609537350212
13.200999999998123,0.4187046952901509,-0.09427780907201994
13.400999999998012,0.4244893409535556,-0.09809594430726609
13.600999999997901,0.4325170694593573,-0.10143911488373165
13.80099999999779,0.43729338470332685,-0.10390388202884482
14.00099999999768,0.442275627559334,-0.1096933243462476
14.200999999997569,0.44702280029452,-0.11047374929019517
14.400999999997458,0.45210349211080575,-0.11274659056106712
14.600999999997347,0.4552966348686165,-0.11172356337505021
14.800999999997236,0.46377979306237027,-0.11462795110460974
15.000999999997125,0.47353671292746163,-0.11979150697243807
15.200999999997014,0.48335268223477795,-0.12682932101032313
15.400999999996904,0.4908711470279781,-0.132890094846492
15.600999999996793,0.4945640100396349,-0.1375137503182095
15.800999999996682,0.4973158515210694,-0.1435330817375051
16.000999999996573,0.49963666351864255,-0.145826207526793
16.200999999996817,0.5009960985373613,-0.14678989517393073
16.40099999999706,0.5034953616527286,-0.1515962513193579
16.600999999997306,0.506471591525511,-0.15680974282519733
16.80099999999755,0.5103692727689705,-0.15965974963807908
17.000999999997795,0.5164689535465152,-0.16468721702897302
17.20099999999804,0.5218343841614124,-0.16772278935278612
17.400999999998284,0.5258907011722785,-0.1725838092538568
17.60099999999853,0.5301036713473251,-0.1774740159846741
17.800999999998773,0.533047327311975,-0.1856779748377658
18.000999999999017,0.5340029071837379,-0.19033760723522514
18.20099999999926,0.5362540200798607,-0.19668529144029281
18.400999999999506,0.5376793564371244,-0.19909808972965995
18.60099999999975,0.5373713411295336,-0.20458638294352668
18.799999999999994,0.5382894582176164,-0.20917748067951678
19.000000000000238,0.5387708037472687,-0.2120229934561533
19.200000000000482,0.5390740469594182,-0.2155317493031426
19.400000000000727,0.5401570610914413,-0.219824915343637
19.60000000000097,0.5415651565161517,-0.2276285879253365
19.800000000001216,0.5432762935186134,-0.2357268654955489
20.00000000000146,0.5449231549488452,-0.23828603369071613
