Time (s),X (m),Y (m)
0.001,-0.0006729371591054965,0.000515584144559974
0.20000000000000015,-0.0019082838555407777,0.0018102162043764757
0.4000000000000003,-0.0009858654561724813,0.00420968533485884
0.6000000000000004,0.007942046685380755,0.0009957840844962648
0.8000000000000006,0.01938584150697143,0.00035243737417374937
1.0000000000000007,0.024151291303443772,0.0040517927827051995
1.2009999999999785,0.031668564392550044,0.0032732605900046446
1.4009999999999565,0.04145200193696781,0.002612397510286376
1.6009999999999345,0.04886041252843124,0.0028238850928060705
1.8009999999999124,0.05846771616239677,-0.00201349160987087
2.0009999999998906,0.06566417849972128,-0.001310540254393371
2.2009999999998686,0.07106457216299139,-0.0029892542690928108
2.4009999999998466,0.07585536676125436,-0.0007148558375362989
2.6009999999998246,0.07932036157766692,0.003117388423506132
2.8009999999998025,0.08980081272184214,0.0032366676611955605
3.0009999999997805,0.10085463071019254,-0.0017347466502525978
3.2009999999997585,0.1066448696073574,-0.004257281999347285
3.4009999999997365,0.11569240043489935,-0.006836005267636142
3.6009999999997144,0.12256343119975448,-0.009170498428614978
3.8009999999996924,0.13243124813190255,-0.011990066537707364
4.000999999999671,0.1403302820929821,-0.012980382259440053
4.200999999999738,0.14276153141665182,-0.01354101248035313
4.400999999999804,0.15568968953134557,-0.018216887226972896
4.600999999999871,0.16732991038834044,-0.023487447141422018
4.800999999999938,0.1770082473534413,-0.022681194489442308
5.000000000000004,0.19533975488944516,-0.025877205641590934
5.200000000000071,0.20622308366686964,-0.028851371893185467
5.400000000000138,0.21620283027253884,-0.03190017838597012
5.600000000000205,0.228996502383832,-0.03165037390828119
5.800000000000272,0.24234509330394868,-0.029501142074235764
6.000000000000338,0.25073118270226735,-0.02867404023563121
6.200000000000405,0.25590417435147145,-0.023681143959133132
6.400000000000472,0.256940608231707,-0.021680492307760143
6.600000000000539,0.2708245153238857,-0.020296417581366313
6.800000000000606,0.2815781982088629,-0.019952729463867527
7.000000000000672,0.2865399046305582,-0.017769096681915182
7.200000000000739,0.29414065971435577,-0.016845075515753722
7.400000000000806,0.3046538985138667,-0.015179384693641062
7.600000000000873,0.31297341341118046,-0.013690164449995925
7.8000000000009395,0.3163259122962607,-0.010731012407018525
8.000000000001005,0.3267483753255996,-0.005258207018828378
8.200000000000895,0.33535990145240496,-0.0010686385045824386
8.400000000000784,0.3380154517104436,0.002426833612906097
8.600000000000673,0.3458280195631358,0.00324378603766312
8.800000000000562,0.35595154005490043,0.006232839479232726
9.000000000000451,0.3605997570868916,0.007282537076608506
9.20000000000034,0.36947883958928895,0.00834649370587298
9.40000000000023,0.3804362819713787,0.00971250441674815
9.600000000000119,0.3873959758477195,0.008794234826780795
9.800000000000008,0.3975453770646683,0.007804984151114936
10.000999999999896,0.4002096589222793,0.010159300192421134
10.200999999999786,0.4139763779488467,0.007848406781482171
10.400999999999675,0.42458120995660625,0.005720670754841408
10.600999999999564,0.43677262629934593,0.004219559945760898
10.800999999999453,0.4502546331956003,0.001425158210227127
11.000999999999342,0.45549463591347494,0.00031529558588318447
11.200999999999231,0.4699123967118377,-0.0012285306581412768
11.40099999999912,0.4846462912742815,-0.004294992526615533
11.60099999999901,0.4940825523890913,-0.005200227970528042
11.800999999998899,0.5027646268617344,-0.003426349784359904
12.000999999998788,0.5063849633771871,-0.0022105427444459526
12.200999999998677,0.5143073510448959,0.000950375071706343
12.400999999998566,0.5242492545995211,-0.001231456720957579
12.600999999998455,0.5388551264922835,-0.0003139739629496986
12.800999999998345,0.5559103363339416,-0.00035147087994270393
13.000999999998234,0.5632678314811976,-0.0016744991877596525
13.200999999998123,0.5725839906233924,-0.003148395319425855
13.400999999998012,0.5833374897494994,-0.002196627515913119
13.600999999997901,0.5926329677994937,-0.000797151192310905
13.80099999999779,0.609940133770646,0.0010472713086506628
14.00099999999768,0.6159760121461263,0.00024112358400535635
14.200999999997569,0.624285305080526,0.00224435337981564
14.400999999997458,0.6361708564464963,0.001779110902278462
14.600999999997347,0.6436679122289738,0.003648782995970298
14.800999999997236,0.6561241973618817,0.002986441701629712
15.000999999997125,0.6615712434189175,0.005273933150797611
15.200999999997014,0.6693418471366386,0.005250568285147707
15.400999999996904,0.678202620313353,0.005048663022651481
15.600999999996793,0.6915791591915997,0.0032533710602146615
15.800999999996682,0.702012562704883,0.004208116341244281
16.000999999996573,0.7158510894593167,0.0012848723472158484
16.200999999996817,0.7278527123654069,0.0027045765916706922
16.40099999999706,0.7434155586024928,0.005104262168165505
16.600999999997306,0.752648344558588,0.005697870093626035
16.80099999999755,0.7598075186146414,0.008000617282314791
17.000999999997795,0.775528195739663,0.006841459305675856
17.20099999999804,0.7801456278927946,0.00644132091751329
17.400999999998284,0.7879181348800885,0.006306053100471599
17.60099999999853,0.799879414633859,0.007551713579095392
17.800999999998773,0.8201596437627192,0.006355946168306238
18.000999999999017,0.8294298333321495,0.0050390955572950724
18.20099999999926,0.8384634969872059,0.003777663770965755
18.400999999999506,0.8465316914604055,0.003912850164399213
18.60099999999975,0.8592980589510245,0.004419559691860917
18.799999999999994,0.8700080307879682,0.0039059825153658695
19.000000000000238,0.880630174997587,0.0019380276262708402
19.200000000000482,0.8913417440463084,0.00018374137110900089
19.400000000000727,0.9038716133667166,-0.0009171693933840353
19.60000000000097,0.9146184502106398,0.0001204748867390354
19.800000000001216,0.9252950459791252,0.0007378163915283223
20.00000000000146,0.9354709384445277,0.0019145286490305693
