Time (s),X (m),Y (m)
0.001,-0.00013259955118837574,-0.0009689812320744441
0.20000000000000015,0.005882720616928826,0.005438160306326137
0.4000000000000003,0.016377201334637142,0.00697314799661427
0.6000000000000004,0.025653274423834936,-0.0018948220374991128
0.8000000000000006,0.02969602370435407,-0.01594725927432284
1.0000000000000007,0.04765990122792766,-0.03136526091472479
1.2009999999999785,0.07272060651580363,-0.04352219072365229
1.4009999999999565,0.09481422730829406,-0.04075540154768999
1.6009999999999345,0.11625245043540457,-0.051511574382744556
1.8009999999999124,0.14141992215436677,-0.058941003659595134
2.0009999999998906,0.17186896789866904,-0.06223414752105739
2.2009999999998686,0.20478542023949595,-0.06523846365388145
2.4009999999998466,0.24214743158387494,-0.06109597447042042
2.6009999999998246,0.2722634178284301,-0.06485560739638155
2.8009999999998025,0.302010823005413,-0.07315887398247149
3.0009999999997805,0.328516008917156,-0.08117206758040856
3.2009999999997585,0.358347686497736,-0.0897350453295149
3.4009999999997365,0.3965907189775967,-0.08944476720026104
3.6009999999997144,0.4357837783632991,-0.08892728441032574
3.8009999999996924,0.4739152553882886,-0.09444153431422009
4.000999999999671,0.5149467253081342,-0.08801937911496241
4.200999999999738,0.5507407289763155,-0.09789051464753519
4.400999999999804,0.590873566013904,-0.10625197435983477
4.600999999999871,0.6214272725046841,-0.11335297438752151
4.800999999999938,0.6381260845239466,-0.126764876654947
5.000000000000004,0.6663076379437869,-0.14133619015347862
5.200000000000071,0.6991505494480386,-0.1572426072712006
5.400000000000138,0.7452139784177781,-0.17460991355463587
5.600000000000205,0.7931727871495537,-0.19127516444928
5.800000000000272,0.8206436234103297,-0.212271333604864
6.000000000000338,0.8287891320047487,-0.2344021498549416
6.200000000000405,0.8607379151620593,-0.2623764174347975
6.400000000000472,0.8782195593991655,-0.29236726344116487
6.600000000000539,0.9054019268781439,-0.3275534864176676
6.800000000000606,0.942143470710423,-0.36462050067353297
7.000000000000672,0.9525966179513284,-0.39681740088162326
7.200000000000739,0.9471726526706402,-0.42715044790755413
7.400000000000806,0.9416436253504059,-0.46404664200239953
7.600000000000873,0.9538413000836606,-0.5091990305332633
7.8000000000009395,0.9690133176101896,-0.5632681121390742
8.000000000001005,0.9760393752867256,-0.6100107753354076
8.200000000000895,0.9799461819306133,-0.651676344710693
8.400000000000784,0.9833350560261043,-0.6950157298177527
8.600000000000673,0.9873799704943494,-0.7419272469227193
8.800000000000562,0.9900009079099302,-0.7822803170042041
9.000000000000451,0.9885587137085081,-0.8211853777582672
9.20000000000034,0.9830994988789727,-0.8594562203697718
9.40000000000023,0.9825789685049572,-0.8981338346877422
9.600000000000119,0.9858934769532449,-0.9424310926746473
9.800000000000008,0.9798948600330573,-0.9806964149131542
10.000999999999896,0.9698150997779287,-1.0183817880233057
10.200999999999786,0.9633190225947793,-1.0604405059051913
10.400999999999675,0.9633750387767357,-1.0992275156825273
10.600999999999564,0.9692767348939886,-1.1356397505995834
10.800999999999453,0.9804301919329674,-1.178154318119903
11.000999999999342,0.9856424680166345,-1.2256898158486236
11.200999999999231,0.9907735463744782,-1.2797252036556317
11.40099999999912,0.9965355378891455,-1.3377738197223226
11.60099999999901,0.9989510985108931,-1.3982993360863498
11.800999999998899,1.0057663674577315,-1.4572107467749735
12.000999999998788,1.0160700254757586,-1.5160122012006847
12.200999999998677,1.0190038077155383,-1.5703938957025558
12.400999999998566,1.022090813666335,-1.624315150877756
12.600999999998455,1.0351768562322619,-1.6803770238411861
12.800999999998345,1.0383752021557546,-1.7281522768211783
13.000999999998234,1.0352363061820662,-1.7610835299270569
13.200999999998123,1.0290690541734009,-1.8017746338492282
13.400999999998012,1.0302591764985798,-1.8550674073441835
13.600999999997901,1.032731979010881,-1.9082860662827874
13.80099999999779,1.0257764587735143,-1.9529675167300553
14.00099999999768,1.0124764985740746,-1.9863605778801636
14.200999999997569,1.007905935251702,-2.0374266845980737
14.400999999997458,0.9990288186477583,-2.0813151804781422
14.600999999997347,0.981832127783939,-2.1215907700868657
14.800999999997236,0.9551246940828689,-2.1451847380519657
15.000999999997125,0.9241629068439149,-2.1709619730290215
15.200999999997014,0.8878204937554549,-2.2080856388302013
15.400999999996904,0.8461845415129532,-2.240138906150252
15.600999999996793,0.8148465347503694,-2.259027101044513
15.800999999996682,0.7796173454469492,-2.2880162877049712
16.000999999996573,0.7419579938686147,-2.297311157318457
16.200999999996817,0.7091362543020806,-2.289778347934964
16.40099999999706,0.6728286402374857,-2.3002783928710726
16.600999999997306,0.6308957433680483,-2.3201512735468492
16.80099999999755,0.5837071884646428,-2.3394990921841408
17.000999999997795,0.5424022919365072,-2.3539219459502805
17.20099999999804,0.4924146703132893,-2.371845950934067
17.400999999998284,0.44420737543710703,-2.4015136112945386
17.60099999999853,0.3967889071307564,-2.421956845406387
17.800999999998773,0.35015102464657105,-2.427356744949567
18.000999999999017,0.3019104389011704,-2.444433066302858
18.20099999999926,0.25187663936304533,-2.46645484854874
18.400999999999506,0.1942981420882984,-2.5001168110980796
18.60099999999975,0.14353681245867816,-2.537571673353692
18.799999999999994,0.09562579633425532,-2.5735748559481566
19.000000000000238,0.05276303719144887,-2.615881787199973
19.200000000000482,0.013037009069509874,-2.6499666785407103
19.400000000000727,-0.029837817457593705,-2.682510002574668
19.60000000000097,-0.07199768777099758,-2.6933719358176647
19.800000000001216,-0.11712124327870409,-2.7083042182424677
20.00000000000146,-0.16317132485363048,-2.723006171980811
