Time (s),X (m),Y (m)
0.001,0.0012473251573109415,-8.987223813608099e-05
0.20000000000000015,-0.0008410272626753697,0.0008093201894472429
0.4000000000000003,0.0023443625858795536,-0.0014622877553079486
0.6000000000000004,0.01460151048035,-0.00608276863826326
0.8000000000000006,0.026935884351533074,-0.008605192773479268
1.0000000000000007,0.03762787104492985,-0.011139680353156708
1.2009999999999785,0.04682446588462643,-0.012566322011505534
1.4009999999999565,0.059419950550831505,-0.011181494335549463
1.6009999999999345,0.06752402275539228,-0.010568072715414392
1.8009999999999124,0.07947029014306521,-0.016263785434594634
2.0009999999998906,0.09550262810050374,-0.024011862601826594
2.2009999999998686,0.11847647448449654,-0.03552411453893781
2.4009999999998466,0.13788313697166038,-0.04454490776425247
2.6009999999998246,0.1607973424853822,-0.05095928515705963
2.8009999999998025,0.1822509700337913,-0.06354393022036157
3.0009999999997805,0.19922733394602954,-0.07217748254060402
3.2009999999997585,0.2077832864935354,-0.07199743558316725
3.4009999999997365,0.22371910531442532,-0.0784921964987995
3.6009999999997144,0.24228436424151267,-0.08367227905714604
3.8009999999996924,0.26062536305780015,-0.08834188107280064
4.000999999999671,0.26925756428520753,-0.09513400609234421
4.200999999999738,0.2795186724193198,-0.09926206315471886
4.400999999999804,0.2965898157356309,-0.10224979895853945
4.600999999999871,0.3120948816285224,-0.10858626007614498
4.800999999999938,0.3351998318977242,-0.1231351893691036
5.000000000000004,0.35592523388873826,-0.13490991821455728
5.200000000000071,0.38112003101314107,-0.15089517574215722
5.400000000000138,0.39675224986220414,-0.16406463871878843
5.600000000000205,0.40815879755947815,-0.17211783205700484
5.800000000000272,0.4265766839843431,-0.18102864352599207
6.000000000000338,0.44814516944635113,-0.19137191317492003
6.200000000000405,0.4702427122185583,-0.19754450548522545
6.400000000000472,0.4823129776177951,-0.20675105173697148
6.600000000000539,0.5037360022921418,-0.2198424525750743
6.800000000000606,0.5359866030142981,-0.23634797682496264
7.000000000000672,0.5601950664561223,-0.24722337042139
7.200000000000739,0.584746313027867,-0.25994090119847774
7.400000000000806,0.6067971988132086,-0.26275309054842505
7.600000000000873,0.6338047495999735,-0.2744763030454114
7.8000000000009395,0.6611376724741419,-0.29218650594841544
8.000000000001005,0.6803992147611041,-0.30546209312809697
8.200000000000895,0.6920037055989969,-0.31089903159617766
8.400000000000784,0.7077545898474809,-0.32006474666424556
8.600000000000673,0.728755095759821,-0.32609022460922055
8.800000000000562,0.7528959761366034,-0.33968925737823535
9.000000000000451,0.7780785829425862,-0.35894971708901846
9.20000000000034,0.7913587546265302,-0.366300465722972
9.40000000000023,0.8070780040620469,-0.3675809308680492
9.600000000000119,0.8294704841165135,-0.37813318126207396
9.800000000000008,0.8463916418487346,-0.3883177635933018
10.000999999999896,0.8704450655688293,-0.4028734782243803
10.200999999999786,0.8924776695478215,-0.41718717804728545
10.400999999999675,0.9119050927664775,-0.4333850659994149
10.600999999999564,0.9345568855713442,-0.44458170036432915
10.800999999999453,0.9521253989398322,-0.4491315560107959
11.000999999999342,0.9693545765350081,-0.4575556299100387
11.200999999999231,0.9935720358181473,-0.4733826832782895
11.40099999999912,1.014685572623372,-0.4902886127020342
11.60099999999901,1.036175507738021,-0.5017310706441943
11.800999999998899,1.0604240741780624,-0.5171924037227115
12.000999999998788,1.0798937641167892,-0.5378380254403017
12.200999999998677,1.1003592015047396,-0.5501474689795001
12.400999999998566,1.1131191843483947,-0.5594084399561825
12.600999999998455,1.1306528568675485,-0.5790097261896342
12.800999999998345,1.144518139609965,-0.585673435975592
13.000999999998234,1.1526296134367304,-0.5930034020167383
13.200999999998123,1.1646096113893718,-0.6031777443340505
13.400999999998012,1.1771053073620361,-0.6185278180488463
13.600999999997901,1.1856069508398106,-0.6379528389023824
13.80099999999779,1.1923369995248063,-0.6626065891849858
14.00099999999768,1.1939257886131838,-0.6856115042509774
14.200999999997569,1.1944840654167956,-0.7041667266666273
14.400999999997458,1.194956638773451,-0.7182521288226238
14.600999999997347,1.1920246401127643,-0.7423902279234857
14.800999999997236,1.186932690830459,-0.763583994225853
15.000999999997125,1.179813081136338,-0.7891546341381139
15.200999999997014,1.17466760955046,-0.8058404514119267
15.400999999996904,1.1709753233828366,-0.8176023206890398
15.600999999996793,1.1656765046796158,-0.8340736443058454
15.800999999996682,1.153457148940004,-0.8675929601865524
16.000999999996573,1.1438332139385365,-0.8951006983341508
16.200999999996817,1.137302110415954,-0.9135328125678589
16.40099999999706,1.1280627750456547,-0.9344671420534494
16.600999999997306,1.110882710954646,-0.9644229704147896
16.80099999999755,1.0984950255183423,-0.9937787334082259
17.000999999997795,1.0850752832676587,-1.0247676909328594
17.20099999999804,1.0704810495711616,-1.0481041744349828
17.400999999998284,1.0629817203102354,-1.0699306271799942
17.60099999999853,1.046475261172435,-1.1032116627452457
17.800999999998773,1.0344691181677428,-1.1351527841747404
18.000999999999017,1.0264088490051093,-1.1552453707716757
18.20099999999926,1.0191242506057259,-1.1748134063051234
18.400999999999506,0.9997650611785289,-1.2006780228883287
18.60099999999975,0.9853103956589997,-1.2247956133564004
18.799999999999994,0.9716340894924104,-1.2499985690988686
19.000000000000238,0.9523585700413425,-1.277745930164916
19.200000000000482,0.9272798627416624,-1.3098842602578393
19.400000000000727,0.9112840675211207,-1.3378099348430819
19.60000000000097,0.8892409822731927,-1.3713124745933047
19.800000000001216,0.876330994180404,-1.4030411659183366
20.00000000000146,0.86155221589463,-1.4295738494150703
