Time (s),X (m),Y (m)
0.001,-0.000795421750936344,-0.00017906049427360483
0.20000000000000015,0.0059194145075254214,0.0005032734869428876
0.4000000000000003,0.014832983617977583,0.003100179363457687
0.6000000000000004,0.021889793675023392,0.005571490137321575
0.8000000000000006,0.025154753257110345,0.008437810544188592
1.0000000000000007,0.02877890793765931,0.01366809217911152
1.2009999999999785,0.04103543989729161,0.01718560069339414
1.4009999999999565,0.060658447037007596,0.014560633084020731
1.6009999999999345,0.07064630178323839,0.006520496341388883
1.8009999999999124,0.07366212998470452,0.005612811095277967
2.0009999999998906,0.08442954631456236,0.006265378234371412
2.2009999999998686,0.09837723020841493,0.006093419489985294
2.4009999999998466,0.09643893619566568,0.0020497078890759713
2.6009999999998246,0.10060648211072104,-0.0006834521390668634
2.8009999999998025,0.1166818625453015,-0.012504591311039353
3.0009999999997805,0.13566326603210754,-0.021465498519651297
3.2009999999997585,0.15340999096508054,-0.03102084314313383
3.4009999999997365,0.16379242222843413,-0.03534150073345645
3.6009999999997144,0.17496862467311253,-0.051220945053485706
3.8009999999996924,0.19919309127174648,-0.06886263467217098
4.000999999999671,0.22315556242986806,-0.08391669652234003
4.200999999999738,0.24677211915000086,-0.10044619840705138
4.400999999999804,0.28172585383836407,-0.12262644006771643
4.600999999999871,0.3131713196367386,-0.140306001745237
4.800999999999938,0.34558745477117103,-0.15540885990690217
5.000000000000004,0.3674151991502706,-0.16277361858951875
5.200000000000071,0.38637368232927805,-0.16618043381423725
5.400000000000138,0.40874270987075356,-0.16854376216938124
5.600000000000205,0.43358323626962053,-0.17492305425256865
5.800000000000272,0.46114985839796513,-0.1855172812076619
6.000000000000338,0.4849272503482749,-0.1994457050617512
6.200000000000405,0.5098096568000672,-0.2154677770389519
6.400000000000472,0.536303962323748,-0.23336649536828816
6.600000000000539,0.5628928107045338,-0.2514877699236504
6.800000000000606,0.5813162875441724,-0.26835254667261915
7.000000000000672,0.6176274743433161,-0.28083219263400455
7.200000000000739,0.6407380683514032,-0.30307675582475013
7.400000000000806,0.6673801943464913,-0.32329710624361263
7.600000000000873,0.6827030585738609,-0.33958230277574686
7.8000000000009395,0.7018903623746385,-0.350909216089688
8.000000000001005,0.7215405791713274,-0.3586817337592247
8.200000000000895,0.7276963369726984,-0.3689302938653111
8.400000000000784,0.7437231757109701,-0.383339118435844
8.600000000000673,0.7727221598229068,-0.4000881883347531
8.800000000000562,0.8176950012561471,-0.41760850860221443
9.000000000000451,0.8456894983510852,-0.43381772519843587
9.20000000000034,0.866954323929671,-0.4533750737602864
9.40000000000023,0.9052239576033474,-0.47435354579327915
9.600000000000119,0.9555398047757839,-0.4975243725589309
9.800000000000008,0.9871805942420508,-0.513315844277772
10.000999999999896,1.0194992451120701,-0.5295424498716816
10.200999999999786,1.0549650637075048,-0.5490285560594841
10.400999999999675,1.0821628005374113,-0.5659856573703897
10.600999999999564,1.1245748591428255,-0.5838236445094568
10.800999999999453,1.1575795951405474,-0.6035825962836773
11.000999999999342,1.1928763737576866,-0.6307366883076455
11.200999999999231,1.2290876398516033,-0.6560379072922589
11.40099999999912,1.2582959031277225,-0.6755822728014546
11.60099999999901,1.286222533095983,-0.6932694021111686
11.800999999998899,1.3101442044676566,-0.7055939906892162
12.000999999998788,1.339894857775103,-0.7217436921659872
12.200999999998677,1.3679848733930338,-0.7377195752561041
12.400999999998566,1.3971943582527016,-0.7589452326488555
12.600999999998455,1.4281502656008094,-0.7836686124637327
12.800999999998345,1.452598415361218,-0.801642346251986
13.000999999998234,1.4753356439189007,-0.8175176038030061
13.200999999998123,1.5059519170740312,-0.8305394596506839
13.400999999998012,1.528818868978121,-0.850941100493477
13.600999999997901,1.5672912447383183,-0.8767766152667936
13.80099999999779,1.6081791064316917,-0.9033838709746193
14.00099999999768,1.639637563216004,-0.9271726036159994
14.200999999997569,1.6778134383115098,-0.9578166470953479
14.400999999997458,1.7155379848467307,-0.9872886001626185
14.600999999997347,1.7479615994613933,-1.0050282132956476
14.800999999997236,1.780422635727198,-1.0206938389942077
15.000999999997125,1.8037005325331203,-1.0353327873390128
15.200999999997014,1.8423640455784736,-1.0579715976178956
15.400999999996904,1.8819544381746847,-1.086098967170586
15.600999999996793,1.9271179911724756,-1.121875905286671
15.800999999996682,1.9581533139979357,-1.148664673416569
16.000999999996573,1.9848333390360302,-1.1675822150152235
16.200999999996817,2.016159840334175,-1.190206021423461
16.40099999999706,2.0585111256516466,-1.2128084516677293
16.600999999997306,2.0904876063534696,-1.2390321924761953
16.80099999999755,2.1186539849728825,-1.2586504220758403
17.000999999997795,2.1467809783513827,-1.2787227515670596
17.20099999999804,2.173753311061703,-1.295436937699007
17.400999999998284,2.2059446341898545,-1.31414209271258
17.60099999999853,2.2400768160095437,-1.3333129721544241
17.800999999998773,2.2707653573967654,-1.35411203926709
18.000999999999017,2.30621290742653,-1.381787509264399
18.20099999999926,2.3488558222331957,-1.4170969870929626
18.400999999999506,2.3906933814385636,-1.4417169720956604
18.60099999999975,2.4249452525414683,-1.4675557852070906
18.799999999999994,2.4594883687780578,-1.4918999234479797
19.000000000000238,2.4878278245981873,-1.5148726635117122
19.200000000000482,2.5253049317519203,-1.5424999230097547
19.400000000000727,2.5608198905109862,-1.569097493011969
19.60000000000097,2.596503313656657,-1.5928374751069483
19.800000000001216,2.6310533382741155,-1.615561781028154
20.00000000000146,2.6689672943735085,-1.64025363044467
