Time (s),X (m),Y (m)
0.001,0.0006558713247593165,0.0009345558501746678
0.20000000000000015,-0.0019441799559477614,-0.0040922375151676614
0.4000000000000003,0.007088298724435371,0.004922597681899555
0.6000000000000004,0.02241763944625949,0.0065449837004824115
0.8000000000000006,0.03960146686046521,0.004979469477430123
1.0000000000000007,0.057229147869120575,-0.0015872424697975784
1.2009999999999785,0.07403467750108732,-0.007859524791785076
1.4009999999999565,0.09018938588418021,-0.029193175540495702
1.6009999999999345,0.10872619075402747,-0.05397950486332727
1.8009999999999124,0.1466001254152312,-0.07837110347771141
2.0009999999998906,0.196637309901392,-0.10404171303868597
2.2009999999998686,0.22465592442752558,-0.128397532288517
2.4009999999998466,0.2565907659552401,-0.14864448501256405
2.6009999999998246,0.2851193046027026,-0.16698262683417311
2.8009999999998025,0.32380908662210256,-0.18947810766019482
3.0009999999997805,0.34560740373144355,-0.21645194530431808
3.2009999999997585,0.3854566038507581,-0.24100106758643686
3.4009999999997365,0.417505377977625,-0.2705652042146904
3.6009999999997144,0.45101814489587855,-0.2980758241052703
3.8009999999996924,0.49942482057440546,-0.3249853425666843
4.000999999999671,0.5580247358314636,-0.3535614305015362
4.200999999999738,0.5997398579992365,-0.38269016242974574
4.400999999999804,0.6196171520575409,-0.41206734456511696
4.600999999999871,0.6279962292002521,-0.4371916377620583
4.800999999999938,0.651504095043405,-0.46422855197560386
5.000000000000004,0.699531647247859,-0.4960448203006013
5.200000000000071,0.7453615948257244,-0.5287404317619337
5.400000000000138,0.7845125531747291,-0.5557577007859293
5.600000000000205,0.8158427150476063,-0.5842228305821799
5.800000000000272,0.8414004377705551,-0.6245459191846141
6.000000000000338,0.8720405371557776,-0.6704686516106763
6.200000000000405,0.8972395463513895,-0.7196310395156168
6.400000000000472,0.9267145571822534,-0.7671108472260787
6.600000000000539,0.9526369951641113,-0.8044112892062399
6.800000000000606,0.9662961792657986,-0.8502123362361675
7.000000000000672,1.0069415148821668,-0.8998755773048234
7.200000000000739,1.0257233823288798,-0.948579671800884
7.400000000000806,1.0536954917340233,-0.9988118284372157
7.600000000000873,1.0828445431597595,-1.0514149495075045
7.8000000000009395,1.124088217972986,-1.103646113519928
8.000000000001005,1.1559349867018134,-1.1549789513345257
8.200000000000895,1.1830225467147581,-1.2033155934448159
8.400000000000784,1.207793140718591,-1.2503814510814382
8.600000000000673,1.2367510264762014,-1.300237548761078
8.800000000000562,1.257273896745417,-1.348026169523598
9.000000000000451,1.2704745520591212,-1.3978650679959503
9.20000000000034,1.2843646424479433,-1.4496273596055238
9.40000000000023,1.2981535767302974,-1.498684127554373
9.600000000000119,1.3043281018239743,-1.5399621624928923
9.800000000000008,1.3123383283013261,-1.5871735962966333
10.000999999999896,1.324411923764758,-1.6434415847009092
10.200999999999786,1.3356950067459612,-1.6968794453575937
10.400999999999675,1.3471847075455974,-1.7514624665370004
10.600999999999564,1.3613981653798966,-1.8105443933962895
10.800999999999453,1.3646457928927207,-1.8638062018574855
11.000999999999342,1.3648624065594421,-1.9169573347069804
11.200999999999231,1.359782824045956,-1.9653492235812606
11.40099999999912,1.3449796753422394,-2.0101676151654924
11.60099999999901,1.323421186493645,-2.0541381122345554
11.800999999998899,1.3030438342075248,-2.0997121617888594
12.000999999998788,1.2949547155068588,-2.152769972188799
12.200999999998677,1.2845572439421398,-2.2089664271774923
12.400999999998566,1.279958473966032,-2.2618674359251933
12.600999999998455,1.2807832078239505,-2.320475924448498
12.800999999998345,1.2802838412849449,-2.3731670187996685
13.000999999998234,1.26009396306716,-2.4047599654253022
13.200999999998123,1.2223746733658871,-2.4260814077978865
13.400999999998012,1.1813516874984318,-2.4491209534726814
13.600999999997901,1.1401482811126835,-2.4749154762553127
13.80099999999779,1.1003150485656463,-2.5037731257222275
14.00099999999768,1.0658438667408343,-2.5443718410097933
14.200999999997569,1.03973073012432,-2.5935780935162147
14.400999999997458,1.0168899686795305,-2.640029271847342
14.600999999997347,0.9908547688014526,-2.675657308144537
14.800999999997236,0.9681603267303144,-2.7115503674654446
15.000999999997125,0.9394415705676643,-2.742937101802498
15.200999999997014,0.8960287245245705,-2.7703488397716307
15.400999999996904,0.8581303393108316,-2.8034477503363786
15.600999999996793,0.8148772585399201,-2.850249279760373
15.800999999996682,0.7658204195229377,-2.880899463811476
16.000999999996573,0.7152075947826005,-2.916727124516869
16.200999999996817,0.6643589474807781,-2.943670846666473
16.40099999999706,0.6134894957667982,-2.9603445612960337
16.600999999997306,0.5679535360357804,-2.983708902473213
16.80099999999755,0.526999267481564,-3.0297465619789876
17.000999999997795,0.48576382380658367,-3.0631536246673017
17.20099999999804,0.4539336272822226,-3.1160561429999927
17.400999999998284,0.4284531632661841,-3.157930972100942
17.60099999999853,0.4020676969012368,-3.20477113900981
17.800999999998773,0.3691486422294944,-3.255590404472795
18.000999999999017,0.3253176208969373,-3.2985473221630754
18.20099999999926,0.2787914310999807,-3.3382712973902664
18.400999999999506,0.2403579915851323,-3.378642679800798
18.60099999999975,0.19072738541915477,-3.4135452950236433
18.799999999999994,0.13001245999650846,-3.458615632616925
19.000000000000238,0.0631384330897181,-3.501024408397286
19.200000000000482,0.0014751778737369802,-3.529629001344809
19.400000000000727,-0.054784963042270346,-3.56742281185086
19.60000000000097,-0.10766795046976049,-3.606080185701757
19.800000000001216,-0.16436322538191203,-3.643242253655654
20.00000000000146,-0.21894209458986422,-3.671867998022877
