Time (s),X (m),Y (m)
0.001,-4.680521708071185e-05,0.00099603208171127
0.20000000000000015,0.0011863143766875069,0.0009146797784224486
0.4000000000000003,0.0027209201454908715,0.0072252116920734685
0.6000000000000004,0.0053892628611359105,0.007392706069607108
0.8000000000000006,0.012073327761151494,0.006543432570860475
1.0000000000000007,0.016105097706196232,0.012450375962782933
1.2009999999999785,0.020902124044954815,0.012903612235557398
1.4009999999999565,0.030975285744009623,-0.002752020115104658
1.6009999999999345,0.041677408234281774,0.0017536685384544148
1.8009999999999124,0.05067986270840569,0.005780188564888046
2.0009999999998906,0.06294323175338108,0.00766747922362942
2.2009999999998686,0.06654113112771813,0.0011723333572302187
2.4009999999998466,0.0733393582204517,-0.006500879694151861
2.6009999999998246,0.08780368297852804,-0.0004123675576514592
2.8009999999998025,0.098787430516823,-0.003199646267890448
3.0009999999997805,0.11018598176586639,-0.00917738560486719
3.2009999999997585,0.12207756710015652,-0.00849033147673153
3.4009999999997365,0.1290212206757409,-0.020597312722192004
3.6009999999997144,0.13760509618306796,-0.01767020613818684
3.8009999999996924,0.14895894792647796,-0.022493527207283315
4.000999999999671,0.1635694631740817,-0.028309974055372635
4.200999999999738,0.17718746494851145,-0.0206667083935588
4.400999999999804,0.19199150231935408,-0.02289569595177462
4.600999999999871,0.2030859749420292,-0.030462492980264103
4.800999999999938,0.2154294607911638,-0.03201810778707748
5.000000000000004,0.2259000826622958,-0.031173285748238157
5.200000000000071,0.23835771710742748,-0.028420144521752514
5.400000000000138,0.2485331636133649,-0.03637024520285968
5.600000000000205,0.25873210537445795,-0.04129871010283427
5.800000000000272,0.27294045495276803,-0.04014377143878917
6.000000000000338,0.2832172890641957,-0.053955920566738425
6.200000000000405,0.2996767114800096,-0.05082694382936245
6.400000000000472,0.3121184676078707,-0.059975321330733924
6.600000000000539,0.3250501319294825,-0.07200306823025208
6.800000000000606,0.3327392974130678,-0.08761450112103285
7.000000000000672,0.3442078451485406,-0.09112077859341412
7.200000000000739,0.3564473237119495,-0.09628669317808093
7.400000000000806,0.366819518261597,-0.10500881037286959
7.600000000000873,0.37870970791770336,-0.10431945696968738
7.8000000000009395,0.3897195975362715,-0.11101370593312711
8.000000000001005,0.39965917411776086,-0.11660856950007067
8.200000000000895,0.4071193782187955,-0.11775862111541975
8.400000000000784,0.41498998532490394,-0.12534100462528966
8.600000000000673,0.42593029079257494,-0.13297865744199674
8.800000000000562,0.4341590647115038,-0.1424809614185498
9.000000000000451,0.4475065229350962,-0.14812379510350834
9.20000000000034,0.4551731197168143,-0.16663580855695692
9.40000000000023,0.4703395221297565,-0.17623783151865988
9.600000000000119,0.4834889838309023,-0.1826828311116367
9.800000000000008,0.4913237100211909,-0.19069511634659897
10.000999999999896,0.5033717611762658,-0.19960302535327584
10.200999999999786,0.5159048168054806,-0.20528293744865161
10.400999999999675,0.5255507892260696,-0.21241271686529706
10.600999999999564,0.536089088410078,-0.22009836498560842
10.800999999999453,0.5509800635787593,-0.22755780699607453
11.000999999999342,0.5657049491404349,-0.22713920145877256
11.200999999999231,0.5796222410041434,-0.22984235685958387
11.40099999999912,0.5958271667093358,-0.2235312153493457
11.60099999999901,0.6088113831382672,-0.23027811980771515
11.800999999998899,0.6246463971644581,-0.2317211479585715
12.000999999998788,0.6356644036992103,-0.23914471011515753
12.200999999998677,0.6441008216431735,-0.23905515932357108
12.400999999998566,0.6533918240795552,-0.24526271416833534
12.600999999998455,0.6649557283636522,-0.25372930795428034
12.800999999998345,0.6780752527722722,-0.2564791311198039
13.000999999998234,0.6907819687462297,-0.26433114262890534
13.200999999998123,0.7038212791952282,-0.2729594277669799
13.400999999998012,0.7103682418611715,-0.2813338700471722
13.600999999997901,0.7243381786352201,-0.2870298937789976
13.80099999999779,0.7346725151172804,-0.29743481787144993
14.00099999999768,0.743276699640543,-0.31429257243771314
14.200999999997569,0.7524923726708773,-0.32869035447011646
14.400999999997458,0.7641346935905685,-0.33663136949032874
14.600999999997347,0.7777448391243564,-0.33502303922740634
14.800999999997236,0.7873121451780252,-0.33570772565184365
15.000999999997125,0.7941433965959135,-0.34096818421768377
15.200999999997014,0.8016706392322257,-0.34580079241365935
15.400999999996904,0.8156770333413627,-0.3498440177157257
15.600999999996793,0.8282781806727227,-0.3620580001420454
15.800999999996682,0.8397131981910686,-0.3691774244279213
16.000999999996573,0.853892997594976,-0.37518819437520445
16.200999999996817,0.8672477603900736,-0.3876332323197453
16.40099999999706,0.8819353935515735,-0.39749985201858745
16.600999999997306,0.8900804572452821,-0.4054346311230116
16.80099999999755,0.895920980501971,-0.41114018155741433
17.000999999997795,0.9027549020455947,-0.4204844437445879
17.20099999999804,0.9124627076208356,-0.4271223909014726
17.400999999998284,0.928341345492418,-0.4302368629826058
17.60099999999853,0.9435591241711224,-0.4345096717834409
17.800999999998773,0.9566941297087292,-0.44056553688879735
18.000999999999017,0.9684338022502724,-0.4499927988182637
18.20099999999926,0.9768908870396451,-0.4617441720961883
18.400999999999506,0.9884018264476335,-0.46612156802716814
18.60099999999975,1.0018911169724576,-0.47814104538813706
18.799999999999994,1.0052170578129322,-0.4946710821634966
19.000000000000238,1.0063768933103252,-0.5109997906654896
19.200000000000482,1.0091440929923081,-0.5240280768687224
19.400000000000727,1.0182795316816091,-0.5349893793836383
19.60000000000097,1.0254785709334417,-0.5502631531326367
19.800000000001216,1.04266468132887,-0.5534247282628686
20.00000000000146,1.055287130806889,-0.5551309998193907
