Time (s),X (m),Y (m)
0.001,0.0003991412691229187,0.0010155025257856582
0.20000000000000015,0.003173643920044706,0.004300347943261332
0.4000000000000003,0.004089856616562614,0.0029039970187788576
0.6000000000000004,0.007814249986084812,0.007983553573278518
0.8000000000000006,0.014033416534232113,0.010462355853763679
1.0000000000000007,0.018336207352927944,0.009846223722503085
1.2009999999999785,0.0248170558895976,0.008469852695038487
1.4009999999999565,0.03326021840408396,0.013092721572348599
1.6009999999999345,0.042365491686748996,0.013947094770491168
1.8009999999999124,0.05432810661131448,0.020852367196916393
2.0009999999998906,0.06392358557523029,0.019367655225478713
2.2009999999998686,0.07047516815585021,0.019395811764349003
2.4009999999998466,0.08000372090775242,0.021539297729946685
2.6009999999998246,0.08800927851595991,0.012871791830653569
2.8009999999998025,0.0971111611707556,0.021134238893535273
3.0009999999997805,0.10873537626907293,0.023798628923956792
3.2009999999997585,0.11796852568705626,0.02892327738377544
3.4009999999997365,0.12929344239524335,0.029857484066581567
3.6009999999997144,0.13737873459235583,0.03311644704789047
3.8009999999996924,0.14683346231641461,0.03005639353029723
4.000999999999671,0.15712959386636896,0.02851388204771894
4.200999999999738,0.16165268413096198,0.02232969817412076
4.400999999999804,0.17039782748379073,0.026189781237678036
4.600999999999871,0.18443929275642357,0.03207285693510276
4.800999999999938,0.19372275903200384,0.036450543602717586
5.000000000000004,0.20630460568788989,0.04268232642211053
5.200000000000071,0.2178829515348609,0.04548205526657369
5.400000000000138,0.23008800253897624,0.04807707785363884
5.600000000000205,0.24321238767427678,0.0536885447692477
5.800000000000272,0.25150485414165885,0.048346180675958576
6.000000000000338,0.25917704338921527,0.052856930617224344
6.200000000000405,0.26805216502221196,0.05350855270483815
6.400000000000472,0.278057816782474,0.051979696211618305
6.600000000000539,0.28855112983183145,0.056700559822184825
6.800000000000606,0.30196425209625666,0.06258752087704729
7.000000000000672,0.31430684349495713,0.06558472127014389
7.200000000000739,0.3227083846041213,0.06779629587536859
7.400000000000806,0.33271976879752163,0.07399415068950832
7.600000000000873,0.34691578653617594,0.07914150895178454
7.8000000000009395,0.35745042871877836,0.07498578083442702
8.000000000001005,0.36703931828465386,0.07414359074115033
8.200000000000895,0.3736070016610937,0.07083952038333034
8.400000000000784,0.37866703613707886,0.06631456297539184
8.600000000000673,0.3881657763879798,0.06377518817240153
8.800000000000562,0.39754054773631375,0.06399013832142979
9.000000000000451,0.4092109273151652,0.06369833930255722
9.20000000000034,0.4177165166269382,0.06457429861365113
9.40000000000023,0.4246975976952248,0.059406165750833094
9.600000000000119,0.43648470948685597,0.05740592523138725
9.800000000000008,0.44571762100886203,0.05658536155342283
10.000999999999896,0.4557769115899141,0.05804547416917225
10.200999999999786,0.4669446452317502,0.06350337911367866
10.400999999999675,0.4777037915476377,0.06317082606896107
10.600999999999564,0.4882963432473155,0.06469394820294633
10.800999999999453,0.4972225842623797,0.06797033841877467
11.000999999999342,0.5054849274659696,0.0639512987205358
11.200999999999231,0.5175592078921426,0.06609631171382331
11.40099999999912,0.5263318304606958,0.06294386380460197
11.60099999999901,0.5365808609145258,0.062275271100307006
11.800999999998899,0.5437906166141041,0.06040354848933532
12.000999999998788,0.5540207896296737,0.05877368900603322
12.200999999998677,0.5623299749149568,0.06437131567682448
12.400999999998566,0.5741155553520919,0.07004717733657448
12.600999999998455,0.5846434108766595,0.07519755643568304
12.800999999998345,0.5937084143878018,0.07309258652460765
13.000999999998234,0.606938287761785,0.08399139858802372
13.200999999998123,0.6167571322035463,0.08398501174220246
13.400999999998012,0.6284341460904789,0.08932089050378607
13.600999999997901,0.6409523290094065,0.09581300570057397
13.80099999999779,0.6530113622565976,0.09851489601295843
14.00099999999768,0.6623415160251268,0.10366807594405228
14.200999999997569,0.6747552599235265,0.11081153668797515
14.400999999997458,0.6860865208991198,0.1121317704842669
14.600999999997347,0.6936567543836337,0.11070722015473314
14.800999999997236,0.7047995947192263,0.11330153629168016
15.000999999997125,0.7174791823366015,0.1205422879580014
15.200999999997014,0.7270307609684546,0.1133554128003969
15.400999999996904,0.7359072541619288,0.11736217680724421
15.600999999996793,0.7491459620910045,0.11975128197299255
15.800999999996682,0.762599008636598,0.12678490316070906
16.000999999996573,0.7703198374479407,0.1266869896694802
16.200999999996817,0.7803900603740305,0.12869546429629644
16.40099999999706,0.7911301016201444,0.13053697424718402
16.600999999997306,0.8022351817165801,0.1361261217161315
16.80099999999755,0.8150012081859977,0.14192325519282795
17.000999999997795,0.8246033418732545,0.13846237677473994
17.20099999999804,0.8336139601177794,0.1424495636289011
17.400999999998284,0.8420961104780884,0.14274604188907666
17.60099999999853,0.8561169169271522,0.14578554974140742
17.800999999998773,0.8653075451456043,0.1482606038136277
18.000999999999017,0.8741210420633976,0.1540288107241255
18.20099999999926,0.886706843501551,0.15690037201632992
18.400999999999506,0.8973346956617383,0.1647221901470144
18.60099999999975,0.9098597877380403,0.16385515866232295
18.799999999999994,0.9193662237847584,0.1674513545145391
19.000000000000238,0.9301099806819407,0.1601697085948178
19.200000000000482,0.9382248022547042,0.16120275963360378
19.400000000000727,0.9489133188731421,0.16400004770144352
19.60000000000097,0.9572814024632819,0.1675409343845244
19.800000000001216,0.9718023648180131,0.17738193103420283
20.00000000000146,0.9845799173865497,0.1824386152084531
