Time (s),X (m),Y (m)
0.001,0.0003099530129853942,-0.0010272443824616275
0.20000000000000015,0.0015896438836441329,0.00542361982069921
0.4000000000000003,0.00822631853187853,-0.0026968635769964717
0.6000000000000004,0.02508203289063625,-0.033146688118550774
0.8000000000000006,0.06347735934430235,-0.06167033845772029
1.0000000000000007,0.11620671463277905,-0.09586592141237521
1.2009999999999785,0.13442051981407444,-0.13800185433172768
1.4009999999999565,0.13574604535974574,-0.1950509919641692
1.6009999999999345,0.1292199244816801,-0.26139136447580613
1.8009999999999124,0.11954350767421731,-0.33610474635658727
2.0009999999998906,0.14013189422381828,-0.4124623753694894
2.2009999999998686,0.18517233327849694,-0.4871817422557659
2.4009999999998466,0.23784297720165756,-0.5520517555893697
2.6009999999998246,0.2941522444195308,-0.6145671650589608
2.8009999999998025,0.3557462864262441,-0.6734496258389634
3.0009999999997805,0.41418933711687317,-0.7282958974761388
3.2009999999997585,0.4686827814199363,-0.7873592003737445
3.4009999999997365,0.5060066249172686,-0.8477523452685524
3.6009999999997144,0.5170627737610398,-0.8922477004282203
3.8009999999996924,0.5361140372066062,-0.913120487015868
4.000999999999671,0.564038186378503,-0.8978417070897704
4.200999999999738,0.6026579438419788,-0.8690438498934944
4.400999999999804,0.6444802871018261,-0.8535957600231187
4.600999999999871,0.6987610605308526,-0.8385252570256448
4.800999999999938,0.7630636842628107,-0.8259459996994689
5.000000000000004,0.8362487731556429,-0.7812112286143894
5.200000000000071,0.9266257669592911,-0.753488944755753
5.400000000000138,1.0100939812605974,-0.7501032167445222
5.600000000000205,1.0656613678461149,-0.7754538342956783
5.800000000000272,1.1127947492234649,-0.8223586662913134
6.000000000000338,1.1467386801938957,-0.8809222003884523
6.200000000000405,1.1644614141359289,-0.9326788180721783
6.400000000000472,1.155034530552298,-0.977881657931325
6.600000000000539,1.1157919308175817,-1.0102179849447466
6.800000000000606,1.064299965826238,-1.0191059516037413
7.000000000000672,1.0032529330815614,-1.0087729729650168
7.200000000000739,0.9645917911323667,-0.9825810659954791
7.400000000000806,0.9539758832659944,-0.9554475455437396
7.600000000000873,0.9654394728334922,-0.9356226326684081
7.8000000000009395,0.994706853258985,-0.9383074358785403
8.000000000001005,1.0221891985264318,-0.9747612819686114
8.200000000000895,1.0315977298885224,-1.013258249914205
8.400000000000784,1.009829293472509,-1.0311661334394135
8.600000000000673,0.9713176493431542,-1.0508792471479131
8.800000000000562,0.9282288633384033,-1.0371124532461407
9.000000000000451,0.9013126848598778,-0.9914054890516993
9.20000000000034,0.9041350700585752,-0.9442434769260982
9.40000000000023,0.9265574076001566,-0.8921125403481944
9.600000000000119,0.954556162415474,-0.8541602835260916
9.800000000000008,0.998473700846774,-0.8275941891608026
10.000999999999896,1.052721972581601,-0.8163314671259639
10.200999999999786,1.102635633970938,-0.8303948636583804
10.400999999999675,1.1251453407976633,-0.859854446317464
10.600999999999564,1.123453908487424,-0.8993454846315103
10.800999999999453,1.1068446220272066,-0.9686714780932866
11.000999999999342,1.080045506158847,-1.0055426780384455
11.200999999999231,1.0470603448830589,-1.0151244649576776
11.40099999999912,1.0061200218809716,-1.0063159890453732
11.60099999999901,0.9964100912595715,-0.9791964957590006
11.800999999998899,0.9989891568473495,-0.9363633398266167
12.000999999998788,1.0224722643597512,-0.9049478655070168
12.200999999998677,1.0676414166200274,-0.8867610156926908
12.400999999998566,1.1150610730048638,-0.8799244497108044
12.600999999998455,1.152290304268454,-0.9056105468211864
12.800999999998345,1.1656085911189071,-0.9388837600376108
13.000999999998234,1.1665477963667885,-0.9621588674821904
13.200999999998123,1.1428480209534833,-0.9725083647044209
13.400999999998012,1.1102546894435903,-0.9671239350264452
13.600999999997901,1.0885122892198167,-0.9440906948613932
13.80099999999779,1.0817768288576768,-0.9102568687613504
14.00099999999768,1.1006288735225211,-0.8507148688536013
14.200999999997569,1.1226733636946407,-0.7711889622577244
14.400999999997458,1.1281066826009323,-0.6756383961847937
14.600999999997347,1.1541307923193365,-0.611466291290444
14.800999999997236,1.1985357438562605,-0.5750484153900678
15.000999999997125,1.2642674142836756,-0.546567799958822
15.200999999997014,1.3322815135197996,-0.5119413324873098
15.400999999996904,1.4121031546208476,-0.48904005868929523
15.600999999996793,1.5004419369432989,-0.47994290219878327
15.800999999996682,1.5793766345546434,-0.4799960253009146
16.000999999996573,1.6450649928779093,-0.49537311666757683
16.200999999996817,1.690963053907296,-0.5353105978902947
16.40099999999706,1.711217862127202,-0.5956202524749904
16.600999999997306,1.7032436778670452,-0.6641120485581219
16.80099999999755,1.6763261414925414,-0.7051436298467904
17.000999999997795,1.6251247001567128,-0.7454416030273631
17.20099999999804,1.566431413302073,-0.7669112014465016
17.400999999998284,1.5199153755704196,-0.7575969986724145
17.60099999999853,1.5030573433386525,-0.7167128541491252
17.800999999998773,1.5119674879261389,-0.6667224204788069
18.000999999999017,1.538820818654593,-0.6456447806160286
18.20099999999926,1.582267360798602,-0.6440779246964141
18.400999999999506,1.6040781909119335,-0.6623119008532498
18.60099999999975,1.6083018080843967,-0.7061420619886934
18.799999999999994,1.61088344746139,-0.7652603188590208
19.000000000000238,1.6025324231043245,-0.8327268659954462
19.200000000000482,1.590036431809596,-0.9060723028044351
19.400000000000727,1.5730531872244842,-0.9906703432483182
19.60000000000097,1.543550114716941,-1.0553720191094533
19.800000000001216,1.492877130870575,-1.0999904415152724
20.00000000000146,1.4369242391712533,-1.1255861886584515
