Time (s),X (m),Y (m)
0.001,0.0002200807748493132,-0.0010311682891199468
0.20000000000000015,0.0012449524102538683,0.004032419794743377
0.4000000000000003,0.002780682628600827,0.0039530245651245716
0.6000000000000004,0.0033408045608763065,0.0030229299498551977
0.8000000000000006,0.006354935721513848,0.0031177488100286896
1.0000000000000007,0.009465544759917162,0.007362456560174818
1.2009999999999785,0.012390956096436714,0.00738906200200832
1.4009999999999565,0.016155517387702437,0.005749750125764935
1.6009999999999345,0.018252799019386704,0.0056175695952749094
1.8009999999999124,0.021999131213077908,0.003805207607804903
2.0009999999998906,0.02505958651166541,0.0009916403651419501
2.2009999999998686,0.028617232500519695,0.0009821671467162422
2.4009999999998466,0.032788883446863384,-0.0009587881979407125
2.6009999999998246,0.03661835199020647,-0.0007950512149604395
2.8009999999998025,0.04001248227748887,-0.0022087677747346995
3.0009999999997805,0.04360981071184282,-0.0030064562393501888
3.2009999999997585,0.04776404642333505,-0.004769491062980734
3.4009999999997365,0.051737365053041134,-0.0045223276846926945
3.6009999999997144,0.05551250769758026,-0.004135291500578045
3.8009999999996924,0.060162731696155755,-0.003654249970196642
4.000999999999671,0.06321291897898082,-0.005690981798311979
4.200999999999738,0.06730980634608413,-0.006214950491019828
4.400999999999804,0.07137183479598966,-0.009440617170128021
4.600999999999871,0.07517300575087253,-0.012535048148050598
4.800999999999938,0.07916979218883616,-0.014476600601808639
5.000000000000004,0.0837665757872196,-0.015424410671582966
5.200000000000071,0.08839662558631822,-0.017112520970310303
5.400000000000138,0.09306688653794483,-0.017692358317530618
5.600000000000205,0.09694560090311019,-0.021840868786862203
5.800000000000272,0.1009257264987167,-0.02231164789460886
6.000000000000338,0.10555809067287267,-0.022619812876559252
6.200000000000405,0.11018550290803783,-0.02222407184163533
6.400000000000472,0.11477688279707417,-0.02557410984541082
6.600000000000539,0.11931939678099009,-0.02541303872550717
6.800000000000606,0.12277098616408193,-0.02745456169630586
7.000000000000672,0.12694716995477373,-0.030090931932122998
7.200000000000739,0.13044901709635068,-0.03152591335544801
7.400000000000806,0.1343337385765949,-0.03553572970791219
7.600000000000873,0.13836247731877063,-0.03966732168412223
7.8000000000009395,0.14233837942225963,-0.04134762166068314
8.000000000001005,0.14614841462302514,-0.0450934459412444
8.200000000000895,0.14895176986833847,-0.04895899970035513
8.400000000000784,0.15343407475224513,-0.051081368388058844
8.600000000000673,0.158139188123595,-0.05333620108878217
8.800000000000562,0.1620796445113455,-0.05734553281495409
9.000000000000451,0.16575167019696196,-0.06060908040225202
9.20000000000034,0.16934322771155477,-0.0639669102887583
9.40000000000023,0.17347185642605234,-0.06566458828265564
9.600000000000119,0.17746078064071524,-0.06726284513845521
9.800000000000008,0.18105671352785704,-0.07002196461829543
10.000999999999896,0.18522590099760863,-0.07195358152926574
10.200999999999786,0.19005811592528307,-0.07089304917672098
10.400999999999675,0.19447511549423002,-0.07468099951095171
10.600999999999564,0.19808180654548752,-0.07640625790150471
10.800999999999453,0.2026721865853344,-0.07885891809752665
11.000999999999342,0.20688784261136178,-0.08037370578238662
11.200999999999231,0.21060697619004665,-0.08279835184104212
11.40099999999912,0.21472444300538923,-0.08427865282603618
11.60099999999901,0.21978558487419222,-0.0862322206422884
11.800999999998899,0.22313809137461466,-0.08491818263353532
12.000999999998788,0.22744162918038266,-0.08574363779175793
12.200999999998677,0.2321465679156317,-0.08740867769449029
12.400999999998566,0.23620816737493996,-0.08951003477667048
12.600999999998455,0.24060087968049043,-0.09270934627229352
12.800999999998345,0.24520749547794915,-0.09370902289840222
13.000999999998234,0.2499423159761645,-0.09442155502756806
13.200999999998123,0.25437524120481453,-0.09501422607571113
13.400999999998012,0.2589066855086468,-0.09633688833426782
13.600999999997901,0.26343676267139504,-0.09589796875129332
13.80099999999779,0.2678207658414526,-0.09612172604362909
14.00099999999768,0.2721247970704044,-0.09569133175562754
14.200999999997569,0.27654511741276555,-0.09670361325815885
14.400999999997458,0.28136490688793775,-0.09617598362066436
14.600999999997347,0.2862868177057741,-0.09535646388358918
14.800999999997236,0.29054177513345075,-0.09430437499283074
15.000999999997125,0.29501973335346227,-0.09381516761786103
15.200999999997014,0.2996168226569262,-0.09197694743437806
15.400999999996904,0.3026318758451542,-0.08884761676816076
15.600999999996793,0.3054308473730205,-0.08694581786457291
15.800999999996682,0.3089782781288772,-0.08404046748923119
16.000999999996573,0.31223295004519913,-0.08340499139389816
16.200999999996817,0.316753111921289,-0.08431066238990077
16.40099999999706,0.3221292873881358,-0.08365188956298754
16.600999999997306,0.3258684746509152,-0.08117604089329004
16.80099999999755,0.3283713143530542,-0.07894962227622224
17.000999999997795,0.33260627902502554,-0.07769586183727825
17.20099999999804,0.3359877943577179,-0.07475210459491559
17.400999999998284,0.3415345011326683,-0.07338783106509912
17.60099999999853,0.34608160853737047,-0.06984947366276519
17.800999999998773,0.34987416733136506,-0.067297076236823
18.000999999999017,0.3547550924557225,-0.06578093349500336
18.20099999999926,0.36033519642071854,-0.06428071166375306
18.400999999999506,0.36407137810217677,-0.061271737273351654
18.60099999999975,0.3670936670219119,-0.057304223213248885
18.799999999999994,0.3706321860766844,-0.05661107015941645
19.000000000000238,0.37551299584809084,-0.05592649985851854
19.200000000000482,0.3805122452370573,-0.05556419494173386
19.400000000000727,0.3858473644529553,-0.05334575339608553
19.60000000000097,0.39109262027063885,-0.05184655717011391
19.800000000001216,0.3970078188737373,-0.0509559421487275
20.00000000000146,0.40197052864147487,-0.0486755049011081
