Time (s),X (m),Y (m)
0.001,-0.000795421750936344,-0.00017906049427360483
0.20000000000000015,0.004378082120546513,0.00037999425252497005
0.4000000000000003,0.003916581577761383,-0.0003886138360326794
0.6000000000000004,0.0022210996236826613,0.003909387184356925
0.8000000000000006,0.0015625493419071375,0.00916459428848747
1.0000000000000007,-0.0020709843475440713,0.009970950854869185
1.2009999999999785,0.010242430419321642,0.010631469740001965
1.4009999999999565,0.011470252096033062,0.009965005181108362
1.6009999999999345,0.005320533605342474,0.01505591965862597
1.8009999999999124,0.018575678025655695,0.013220287613791046
2.0009999999998906,0.034489270666207494,0.01652318184435212
2.2009999999998686,0.04250517453051189,0.023771043342971317
2.4009999999998466,0.051932110379134304,0.031522327953214475
2.6009999999998246,0.054310782559829476,0.03499873519373565
2.8009999999998025,0.0574097420937487,0.039243283527000475
3.0009999999997805,0.06518450613096767,0.037891261309061834
3.2009999999997585,0.08353284955097533,0.03707878585459118
3.4009999999997365,0.09218327389437318,0.03657913215864135
3.6009999999997144,0.10847613384329359,0.034797290560325676
3.8009999999996924,0.1251742732637151,0.02943960188672379
4.000999999999671,0.1408158736739711,0.02198988873688859
4.200999999999738,0.15670981419443217,0.018000544519610976
4.400999999999804,0.17164201975220408,0.008760092329673229
4.600999999999871,0.18573708241738743,-0.008144478054128117
4.800999999999938,0.19950482061679123,-0.023966159479562807
5.000000000000004,0.2187483787357118,-0.035977649989543926
5.200000000000071,0.2436599569278225,-0.048798848270561426
5.400000000000138,0.2603630151206079,-0.05952058402161665
5.600000000000205,0.2745643382083136,-0.07205720864390742
5.800000000000272,0.2954101178467974,-0.08528050265813907
6.000000000000338,0.31421404876448905,-0.09602314174177363
6.200000000000405,0.32875354114641125,-0.10482268433479215
6.400000000000472,0.3407430664250719,-0.11401214610537662
6.600000000000539,0.35895021213756884,-0.12847080826274354
6.800000000000606,0.39596714352122714,-0.14423984421604494
7.000000000000672,0.4188602335139402,-0.1605972714931707
7.200000000000739,0.4353651041679851,-0.1741835673582134
7.400000000000806,0.45570585104562017,-0.18815093498244717
7.600000000000873,0.4656157599324803,-0.1932248651215312
7.8000000000009395,0.4767108481117232,-0.20342954316346956
8.000000000001005,0.5018399127159265,-0.2184694908229876
8.200000000000895,0.5269151190916967,-0.2355807463117499
8.400000000000784,0.5415284398651866,-0.25167921222073886
8.600000000000673,0.5622868425109411,-0.26548646269211046
8.800000000000562,0.5640286223239912,-0.2702979947379787
9.000000000000451,0.5822925085150803,-0.2810792858746884
9.20000000000034,0.6052399434717446,-0.2971640723470802
9.40000000000023,0.629959233245196,-0.3142980785546724
9.600000000000119,0.6482910498463588,-0.3277577260163309
9.800000000000008,0.6718178888826704,-0.3445800492783299
10.000999999999896,0.7061944965003651,-0.3628276872304383
10.200999999999786,0.7321670869128423,-0.3825797736476097
10.400999999999675,0.7576539614172964,-0.40441256318949753
10.600999999999564,0.7750822327702478,-0.4221285285593709
10.800999999999453,0.7879194909052751,-0.4310716530820522
11.000999999999342,0.8092111421881425,-0.4417304917881984
11.200999999999231,0.8403055949527851,-0.45540809248986613
11.40099999999912,0.8761761269877456,-0.4760983459428142
11.60099999999901,0.9048380736914204,-0.4940574756440194
11.800999999998899,0.9300629987557331,-0.5060615018615461
12.000999999998788,0.9542238986237529,-0.5259238133200418
12.200999999998677,0.9829770074118253,-0.5410866575018044
12.400999999998566,1.0060786556637755,-0.5512733939650626
12.600999999998455,1.0240774786887679,-0.5709190023117117
12.800999999998345,1.0501681695987852,-0.5903499040573443
13.000999999998234,1.0779415001926467,-0.6029897197059576
13.200999999998123,1.1061877110932927,-0.6180512970505672
13.400999999998012,1.120325349657121,-0.6340924887003042
13.600999999997901,1.1449541015486413,-0.6477403528846517
13.80099999999779,1.164240334381472,-0.6593466161291256
14.00099999999768,1.1802025070962592,-0.6740332415220203
14.200999999997569,1.2066549714358477,-0.6943225253533852
14.400999999997458,1.2404299193920094,-0.7179840825480847
14.600999999997347,1.2772960329308485,-0.7482296973234949
14.800999999997236,1.3094305240968673,-0.7806219739254997
15.000999999997125,1.3291083971570141,-0.8112633025496423
15.200999999997014,1.327544666788278,-0.8351562357930052
15.400999999996904,1.3109312607309243,-0.8556440492536885
15.600999999996793,1.2956594349383295,-0.879497531648001
15.800999999996682,1.2749094506910317,-0.9112636235939967
16.000999999996573,1.261737034054081,-0.9279743586018069
16.200999999996817,1.2482900824881538,-0.9464071024809788
16.40099999999706,1.2363392121283217,-0.9694560511689708
16.600999999997306,1.224417943508321,-0.9964662016276794
16.80099999999755,1.206545216873974,-1.0219857343122012
17.000999999997795,1.187031507112756,-1.0499673952797208
17.20099999999804,1.1645970146330942,-1.0809335729438903
17.400999999998284,1.148348502309283,-1.0997386145358015
17.60099999999853,1.121098650715876,-1.1342163805459515
17.800999999998773,1.0938288164942245,-1.164383203215941
18.000999999999017,1.0724298491824071,-1.1911740481719624
18.20099999999926,1.0548893614039367,-1.218822361861605
18.400999999999506,1.0332600627765163,-1.2519382016419645
18.60099999999975,1.0091750773527388,-1.2801918581763683
18.799999999999994,0.9851998752109455,-1.3045802526713828
19.000000000000238,0.9703256528817152,-1.323251540865547
19.200000000000482,0.9456690735333555,-1.3548787719359145
19.400000000000727,0.9184852797241339,-1.3918373691346744
19.60000000000097,0.8916030231812783,-1.431818652063865
19.800000000001216,0.8728602992461426,-1.4537413328474622
20.00000000000146,0.8536044080218275,-1.4826732407303977
