Time (s),X (m),Y (m)
0.001,0.0003991412691229187,-0.0010155025257856578
0.20000000000000015,0.0005659286511797974,0.0035713215760708626
0.4000000000000003,0.0022111464672521426,0.002714272632550829
0.6000000000000004,0.0055607081986885345,0.004178243611987215
0.8000000000000006,0.008896798532778787,0.006452213790046349
1.0000000000000007,0.012797430164701333,0.005668668319683175
1.2009999999999785,0.017213142249320603,0.005021640925252191
1.4009999999999565,0.020247455389221913,0.005680249963710872
1.6009999999999345,0.02285939082551633,0.006063121126338428
1.8009999999999124,0.025200783009595818,0.008020052635725564
2.0009999999998906,0.02864441679680673,0.007473110949412838
2.2009999999998686,0.032223355789141934,0.005845238973489018
2.4009999999998466,0.0367747231809354,0.004388164901602902
2.6009999999998246,0.04058648235219464,0.005304358556419362
2.8009999999998025,0.04439689708368786,0.005332810228820739
3.0009999999997805,0.047645032251429666,0.005146283200202029
3.2009999999997585,0.05169120929270254,0.003105510096669981
3.4009999999997365,0.05609572565604481,0.002162020452691164
3.6009999999997144,0.06006934333733726,0.002848155425611555
3.8009999999996924,0.06417212820000287,0.0037386535366719345
4.000999999999671,0.06838204686714991,0.003910323455495239
4.200999999999738,0.07255319360398842,0.003981790130715496
4.400999999999804,0.07683895408136908,0.004538906511607044
4.600999999999871,0.08100633555015396,0.0050659265905905184
4.800999999999938,0.08297326137031812,0.007211984915221093
5.000000000000004,0.0878388909757038,0.008066494433320887
5.200000000000071,0.09174497328139948,0.00970732777740633
5.400000000000138,0.09556938557063843,0.008374896288578067
5.600000000000205,0.09996308154512516,0.008462790189324353
5.800000000000272,0.10463903034025879,0.009989165794059382
6.000000000000338,0.10968511059753197,0.012015602976431955
6.200000000000405,0.11361741787453451,0.01162416538755987
6.400000000000472,0.1187464340257724,0.008521327379345415
6.600000000000539,0.12323497778285454,0.009578637442434689
6.800000000000606,0.12858319488124859,0.008244520435686192
7.000000000000672,0.13367842279393002,0.00814616879788305
7.200000000000739,0.13753721705445288,0.010858355029662231
7.400000000000806,0.14156347814254303,0.011241056102063477
7.600000000000873,0.14618566889755047,0.011392323450813943
7.8000000000009395,0.15018191015109775,0.01269146507704413
8.000000000001005,0.15514463401331588,0.012775939372321557
8.200000000000895,0.15938080146024325,0.013945404372545609
8.400000000000784,0.16464087231886299,0.013404559324883734
8.600000000000673,0.16935436602385487,0.01398774097453407
8.800000000000562,0.17515097040158528,0.014857516130834806
9.000000000000451,0.17968814072157954,0.01626690517002263
9.20000000000034,0.18501524061089458,0.017354387821621412
9.40000000000023,0.19178439445675255,0.01784686132071319
9.600000000000119,0.19778917887823982,0.01862065808150107
9.800000000000008,0.20282099438482343,0.020025310632482127
10.000999999999896,0.20776876791087365,0.02140914936513553
10.200999999999786,0.2136865711333029,0.022594060017910908
10.400999999999675,0.22016428613043276,0.02378109790551285
10.600999999999564,0.22569186828586882,0.02539370127835308
10.800999999999453,0.23125262626468224,0.027387525316041984
11.000999999999342,0.23735811931841297,0.02758454450209528
11.200999999999231,0.24260061071459055,0.02917779705912861
11.40099999999912,0.2474940587754746,0.03132705851542287
11.60099999999901,0.2521409540879756,0.03300383495143826
11.800999999998899,0.25795474097494114,0.03439476138304326
12.000999999998788,0.2640320376207202,0.03603590389711106
12.200999999998677,0.2681394188973538,0.038673334812152606
12.400999999998566,0.2725314420589566,0.04117841343439047
12.600999999998455,0.2778201202758223,0.042748243670826816
12.800999999998345,0.2829054985148618,0.04470418214757584
13.000999999998234,0.2877472265537813,0.04693773350568821
13.200999999998123,0.2918828952063761,0.04944081963069874
13.400999999998012,0.29567769374805164,0.052357510180473056
13.600999999997901,0.29860766010554923,0.05509665091654814
13.80099999999779,0.3042158335056559,0.05702734273334717
14.00099999999768,0.3085662835571264,0.05991219555188863
14.200999999997569,0.3111726117176526,0.06331097395251402
14.400999999997458,0.3147975732396321,0.06609382462296583
14.600999999997347,0.31858031048553986,0.06902890010137791
14.800999999997236,0.3225065671136035,0.07216620973074286
15.000999999997125,0.3252158987655368,0.0759423520721195
15.200999999997014,0.32845275889663417,0.07962235841119912
15.400999999996904,0.3311145409767787,0.08378490742891409
15.600999999996793,0.3336850233317375,0.08737980396071125
15.800999999996682,0.33783518263678286,0.09163614316590271
16.000999999996573,0.34029461424534807,0.09632550539330409
16.200999999996817,0.3424214139913506,0.10066366919304728
16.40099999999706,0.34302657432495104,0.10555972707565671
16.600999999997306,0.3457836052553445,0.10946893146146575
16.80099999999755,0.3481473717752255,0.11439399442956172
17.000999999997795,0.3490262142189275,0.11908675838084337
17.20099999999804,0.34973278157434146,0.12370334407065095
17.400999999998284,0.35077419957255335,0.12827993054872247
17.60099999999853,0.35247942152647,0.13283605290685835
17.800999999998773,0.3529741776593041,0.1373345098739804
18.000999999999017,0.35343250399216686,0.14250745843944596
18.20099999999926,0.3530008487571311,0.14723521201805884
18.400999999999506,0.353167366676992,0.15153020667898845
18.60099999999975,0.3536714520379613,0.1564597480156384
18.799999999999994,0.3528573906384881,0.1614631155382262
19.000000000000238,0.35345049937635187,0.16501541127210667
19.200000000000482,0.35571362779514426,0.16992274092048737
19.400000000000727,0.35629598961145376,0.17523144660083284
19.60000000000097,0.35581340819130425,0.18071520941575162
19.800000000001216,0.3534923806735392,0.18400214317378003
20.00000000000146,0.3550609453849217,0.18925983617509454
