Time (s),X (m),Y (m)
0.001,-0.0007489004572251305,0.00035268032603768894
0.20000000000000015,1.9001444646620074e-05,0.0007055689167352197
0.4000000000000003,-0.007140970167576996,0.0031346330895676362
0.6000000000000004,-0.004464759977814249,0.002288397046943678
0.8000000000000006,-0.002340367247364589,0.001695071622244674
1.0000000000000007,0.0009565031355368203,0.0010534204295062218
1.2009999999999785,0.0022374013619869382,0.0007158919068922774
1.4009999999999565,0.0035727264482311332,0.00024085188702212363
1.6009999999999345,0.004445119530087282,-0.00010994851252525955
1.8009999999999124,0.005423951996552468,-0.0005093144494370537
2.0009999999998906,0.006436205441044149,-0.0009394807224304307
2.2009999999998686,0.007458010662458628,-0.0013905114024443074
2.4009999999998466,0.00866647491858029,-0.001879175736821943
2.6009999999998246,0.009896738452308726,-0.0023354573478333303
2.8009999999998025,0.011353896332082898,-0.0028625436901153455
3.0009999999997805,0.012557834225357434,-0.0033075192330429774
3.2009999999997585,0.01378422323558396,-0.0037905687461341595
3.4009999999997365,0.01504709108814405,-0.004237776006969992
3.6009999999997144,0.016580439271036716,-0.004721342354665142
3.8009999999996924,0.018277604023343726,-0.005215867578038941
4.000999999999671,0.019989087470249214,-0.005815469209477512
4.200999999999738,0.021885854836638026,-0.006396429661129935
4.400999999999804,0.02365093041614726,-0.00693649280829297
4.600999999999871,0.02563204174074121,-0.007487551779451386
4.800999999999938,0.02764583702532983,-0.008016011554117656
5.000000000000004,0.029659083312963016,-0.008565575021395402
5.200000000000071,0.031848632541403535,-0.009142978400284593
5.400000000000138,0.033883364722999645,-0.009641083724908633
5.600000000000205,0.036129285851592904,-0.010177394611080113
5.800000000000272,0.03860607627317195,-0.010796596145355818
6.000000000000338,0.04114847009597658,-0.011272042422412623
6.200000000000405,0.04367517149017951,-0.011877903889625353
6.400000000000472,0.04636795003261966,-0.012503926940859533
6.600000000000539,0.04911637363938113,-0.0130490076650446
6.800000000000606,0.05195719512222306,-0.013643578391608895
7.000000000000672,0.05484283793442371,-0.014167342407785067
7.200000000000739,0.05778748802052724,-0.01465807879333236
7.400000000000806,0.06056955980789756,-0.015101905698372452
7.600000000000873,0.06354142339000861,-0.015505670053942436
7.8000000000009395,0.0667362698228592,-0.016001712224444353
8.000000000001005,0.06984855847314272,-0.01643387836752735
8.200000000000895,0.07308306418475342,-0.016829061681456932
8.400000000000784,0.07627719129671688,-0.01715558657708435
8.600000000000673,0.07956465712731393,-0.01748752196725749
8.800000000000562,0.0828489193131374,-0.01775768332231334
9.000000000000451,0.08594372864317004,-0.017985453474139976
9.20000000000034,0.08922814550869915,-0.01819250369322803
9.40000000000023,0.09244558727235891,-0.01833241438152016
9.600000000000119,0.09564422655545668,-0.01844644870779306
9.800000000000008,0.09872430749322118,-0.018516216204680663
10.000999999999896,0.10199843709364846,-0.01855653364251349
10.200999999999786,0.10518930305615755,-0.018529138725766645
10.400999999999675,0.10830686569940626,-0.018442411671672227
10.600999999999564,0.11155560516484334,-0.018340266059065247
10.800999999999453,0.11466863371185314,-0.018164024587286217
11.000999999999342,0.11794165203489942,-0.017908992800654458
11.200999999999231,0.1209555126298382,-0.01762911902423593
11.40099999999912,0.12407602438353915,-0.01727816952515517
11.60099999999901,0.12722847768459336,-0.016851520084431755
11.800999999998899,0.1304568617839137,-0.01635878918443403
12.000999999998788,0.13372806031230283,-0.01576135759125994
12.200999999998677,0.13700460817615592,-0.015142257701777791
12.400999999998566,0.14034419896179698,-0.014379513023665197
12.600999999998455,0.14353438763710075,-0.013539099669510361
12.800999999998345,0.14690550295247534,-0.012627662553103701
13.000999999998234,0.15014242424003627,-0.011623668613006864
13.200999999998123,0.1534724111195484,-0.010536650103181593
13.400999999998012,0.15663645089232453,-0.009364611601245881
13.600999999997901,0.1600807969106115,-0.008066562535780487
13.80099999999779,0.1635195622054974,-0.006475735367961032
14.00099999999768,0.16713054360527588,-0.004784844354505224
14.200999999997569,0.17112816829849464,-0.0027423767992365454
14.400999999997458,0.175579141068553,0.002792623077754183
14.600999999997347,0.1817272492635983,0.012028756904755298
14.800999999997236,0.18662140861059512,0.018350235819583692
15.000999999997125,0.19220924459304484,0.02784377127018764
15.200999999997014,0.1976989666106667,0.03807574972745181
15.400999999996904,0.20283802529701642,0.04795059653795259
15.600999999996793,0.20795517523404247,0.05819280166250337
15.800999999996682,0.2130300128436762,0.06867143264840202
16.000999999996573,0.21803187214425374,0.07932452542299305
16.200999999996817,0.22254839758603157,0.08981632091493329
16.40099999999706,0.22684203599705813,0.10062580750646231
16.600999999997306,0.23087041498046437,0.11156420907296356
16.80099999999755,0.2346504569292307,0.12256210191119178
17.000999999997795,0.23816860834169698,0.13357050944455226
17.20099999999804,0.24144159644265234,0.14457263237243773
17.400999999998284,0.24435150417873264,0.15532264983138347
17.60099999999853,0.24718840849400536,0.1663002693607656
17.800999999998773,0.25000423960770934,0.17699189911604984
18.000999999999017,0.25298106175951485,0.18786756121959075
18.20099999999926,0.25670482932520483,0.1963423429130558
18.400999999999506,0.2599056323418395,0.20146257719578609
18.60099999999975,0.26250303754746984,0.20841288784021192
18.799999999999994,0.2654482485944164,0.21788820797670452
19.000000000000238,0.2684018657838264,0.22373387193174507
19.200000000000482,0.27176851279830483,0.23162561631558115
19.400000000000727,0.2748585061442898,0.23819154727187422
19.60000000000097,0.27749985413164585,0.24435274772617438
19.800000000001216,0.2802295271373763,0.25072977469941277
20.00000000000146,0.28319006949739894,0.2575396701175209
