Time (s),X (m),Y (m)
0.001,0.0008829029745972832,0.0007899207378008392
0.20000000000000015,0.00014759442413235052,-0.0030922161674176133
0.4000000000000003,0.009448305865040096,-0.008279650956439961
0.6000000000000004,0.03173277523951566,-0.013331420747041195
0.8000000000000006,0.06589086219042589,-0.018439019454464144
1.0000000000000007,0.1074671820437159,-0.026216150779569614
1.2009999999999785,0.1399243498291259,-0.0425622139422522
1.4009999999999565,0.16887051388613705,-0.06923506402743003
1.6009999999999345,0.20513570075768922,-0.1007501819853794
1.8009999999999124,0.25047531444269366,-0.1296474067417195
2.0009999999998906,0.30328614559761335,-0.16361042044150512
2.2009999999998686,0.35543556652470126,-0.20511451920814613
2.4009999999998466,0.4073298454873542,-0.25426801806684685
2.6009999999998246,0.47701688358167027,-0.315018352758058
2.8009999999998025,0.537695809154083,-0.3765358652094379
3.0009999999997805,0.6001945403889208,-0.43652318869852
3.2009999999997585,0.6511382629716423,-0.4967973074072274
3.4009999999997365,0.7072320771584416,-0.5620399583927016
3.6009999999997144,0.7545268660224513,-0.6246932565741578
3.8009999999996924,0.8015080295048213,-0.6935476351632766
4.000999999999671,0.8393712913566698,-0.763779362417606
4.200999999999738,0.872988825558707,-0.8408726666614283
4.400999999999804,0.8972043684184622,-0.915601301401984
4.600999999999871,0.8991034019640202,-0.9841788503492279
4.800999999999938,0.8783049731706541,-1.0579309439062115
5.000000000000004,0.8483002306917881,-1.1285517080576517
5.200000000000071,0.8001773047499109,-1.2002219143148503
5.400000000000138,0.744854370111834,-1.2540747474296163
5.600000000000205,0.6832981729581022,-1.3030093308739954
5.800000000000272,0.6143368566314389,-1.3325902386362065
6.000000000000338,0.5552297522781066,-1.338822291792031
6.200000000000405,0.5174825281685002,-1.332037724111405
6.400000000000472,0.49365375674866724,-1.3267402928786929
6.600000000000539,0.5014166053240791,-1.295440606809411
6.800000000000606,0.5280403539332035,-1.2578713075755414
7.000000000000672,0.5675806136156164,-1.2241179586839208
7.200000000000739,0.6171162394814176,-1.196818957739522
7.400000000000806,0.6786819802643345,-1.1753964955974547
7.600000000000873,0.7291721862021767,-1.182329066051977
7.8000000000009395,0.7708173238038051,-1.2019803606247204
8.000000000001005,0.7988436271568703,-1.2368040875532487
8.200000000000895,0.8367706051110058,-1.2798258711291588
8.400000000000784,0.884540215994369,-1.3255617838992342
8.600000000000673,0.9241804941453327,-1.3816561629891213
8.800000000000562,0.9588603155436352,-1.4438503363556188
9.000000000000451,0.9912420668511207,-1.5093218808503541
9.20000000000034,1.0241718638676491,-1.5761518525432736
9.40000000000023,1.0494156482044283,-1.6568801579943095
9.600000000000119,1.048705787245256,-1.7282672695043704
9.800000000000008,1.0172462792790566,-1.7965993430676126
10.000999999999896,0.9669774918762839,-1.8565044434211744
10.200999999999786,0.9085995972167495,-1.9056203778640748
10.400999999999675,0.8458870648037833,-1.9526152661177656
10.600999999999564,0.7671090085821896,-1.9934049619053038
10.800999999999453,0.6897515038698262,-2.0292173584897752
11.000999999999342,0.6230069327823528,-2.0436085588092783
11.200999999999231,0.5590132687587761,-2.032442838513868
11.40099999999912,0.5004691793343197,-1.9976836571060377
11.60099999999901,0.4408705902180287,-1.941112701722093
11.800999999998899,0.38970758418128787,-1.874707712176535
12.000999999998788,0.3704519285441728,-1.8155316773197565
12.200999999998677,0.3857827120754642,-1.7643322344722143
12.400999999998566,0.4267511707541516,-1.7100346763232188
12.600999999998455,0.48147936209468245,-1.653892181655614
12.800999999998345,0.5495442645713461,-1.5890337291962662
13.000999999998234,0.6212083038555262,-1.5280683823969703
13.200999999998123,0.6959081035355493,-1.4728820207339577
13.400999999998012,0.7748889451269065,-1.4197710460242727
13.600999999997901,0.8482054645480006,-1.3792559353595888
13.80099999999779,0.9287075372281599,-1.3554214785376568
14.00099999999768,0.9973844074308665,-1.3556785021997582
14.200999999997569,1.0745847108750268,-1.3732982381848136
14.400999999997458,1.1590755016786183,-1.3983902950442104
14.600999999997347,1.2501175914229812,-1.4211224449699564
14.800999999997236,1.3371941835859416,-1.4634139261269363
15.000999999997125,1.411896442147059,-1.5188116054228613
15.200999999997014,1.4719783943927511,-1.5755344802889182
15.400999999996904,1.5231557133893472,-1.6315498102903458
15.600999999996793,1.54455359671558,-1.688440644798475
15.800999999996682,1.5369369942815738,-1.7426415333489165
16.000999999996573,1.516277727238658,-1.7938483973243753
16.200999999996817,1.4889750722041197,-1.8525445816013335
16.40099999999706,1.4486006812840655,-1.9046480326882729
16.600999999997306,1.3992720792783917,-1.949643094485751
16.80099999999755,1.3405988209992556,-2.00000183375843
17.000999999997795,1.2634831576522512,-2.051126899148516
17.20099999999804,1.1725346098172447,-2.1002048861646063
17.400999999998284,1.0928232704189835,-2.1421406359855477
17.60099999999853,1.0235997343253844,-2.163522673100758
17.800999999998773,0.969715369073589,-2.155250321820062
18.000999999999017,0.9287151081690012,-2.133233682632511
18.20099999999926,0.8761005828384516,-2.1078815971730185
18.400999999999506,0.8188045979007371,-2.079434975264919
18.60099999999975,0.7512304022789514,-2.053492791449325
18.799999999999994,0.6898015314845932,-2.0275033486755767
19.000000000000238,0.6321484555420037,-1.9813427630015443
19.200000000000482,0.5805234189510514,-1.9273916229229946
19.400000000000727,0.5401468659254859,-1.8799519810111427
19.60000000000097,0.5178904055750211,-1.847050284370483
19.800000000001216,0.5267776011644956,-1.808888475486428
20.00000000000146,0.5539402243905257,-1.771999823142024
