Time (s),X (m),Y (m)
0.001,-0.0005090653149319316,0.0007291460897812449
0.20000000000000015,0.0035003025106009568,-0.000626002992675513
0.4000000000000003,0.006311720852189791,0.005003843373855882
0.6000000000000004,0.0143943721453404,0.0032710801044751486
0.8000000000000006,0.030322102321409326,0.0013953222932173762
1.0000000000000007,0.04231129431627442,-0.0010423002781754383
1.2009999999999785,0.05612320988197033,-0.004828090301032321
1.4009999999999565,0.07131776552395526,0.00121595507227704
1.6009999999999345,0.07810138645819795,0.004995405785502697
1.8009999999999124,0.09045952702606887,0.015538631472975515
2.0009999999998906,0.1000117111133321,0.020598376701166213
2.2009999999998686,0.11596985298655611,0.026373828613883404
2.4009999999998466,0.13983717634098902,0.025359893114464432
2.6009999999998246,0.16177122063743699,0.023230352885127942
2.8009999999998025,0.178094967754972,0.030712900048274292
3.0009999999997805,0.19587753225479998,0.043312652499270576
3.2009999999997585,0.21926858798689391,0.04292004202507651
3.4009999999997365,0.24330844475314967,0.039760784539667464
3.6009999999997144,0.26880422009662763,0.03199200036929427
3.8009999999996924,0.30390461461397456,0.026168624965993904
4.000999999999671,0.3287263615575908,0.031231697813449043
4.200999999999738,0.3473244070717607,0.04042770500187874
4.400999999999804,0.37097754870006194,0.051312444283312525
4.600999999999871,0.3984691516220116,0.05672340441329795
4.800999999999938,0.42897305676742253,0.05312587305243872
5.000000000000004,0.4587598304781527,0.05490706684113552
5.200000000000071,0.4904304383886624,0.05168321902194494
5.400000000000138,0.5131679601203654,0.04461646924083334
5.600000000000205,0.5335382770333813,0.04393417029495633
5.800000000000272,0.5560241252657401,0.04356099098388638
6.000000000000338,0.5826802130200688,0.03939903546216391
6.200000000000405,0.6054480575738689,0.042086446983669756
6.400000000000472,0.6252806461381712,0.033973461774307184
6.600000000000539,0.6471454171161943,0.011264357392318835
6.800000000000606,0.6670063845474147,-0.007282075103169202
7.000000000000672,0.6781532954713306,-0.030961033470061024
7.200000000000739,0.687742546451869,-0.05292323575541665
7.400000000000806,0.699485205447612,-0.07646535312689218
7.600000000000873,0.7084825057848889,-0.1100548677022077
7.8000000000009395,0.7132651838512644,-0.1484557532043388
8.000000000001005,0.7170731487609165,-0.18704713988595992
8.200000000000895,0.7177467351862216,-0.22524970295546137
8.400000000000784,0.7230981118547146,-0.2569022947701693
8.600000000000673,0.7125125796370154,-0.2961821859764315
8.800000000000562,0.7124303863682867,-0.3291866810390806
9.000000000000451,0.7114801145085942,-0.3570497217719639
9.20000000000034,0.7123445197543296,-0.3758770152848824
9.40000000000023,0.7095065299519974,-0.3978826836250643
9.600000000000119,0.7010674501313652,-0.4252854520553125
9.800000000000008,0.7007617158308986,-0.4632992402271418
10.000999999999896,0.7008175663046539,-0.4944346353889477
10.200999999999786,0.7058791909762354,-0.5220908280113558
10.400999999999675,0.7069442519632575,-0.5506986559198029
10.600999999999564,0.6997832875044979,-0.5728291665153181
10.800999999999453,0.6961631738609312,-0.5971380464215895
11.000999999999342,0.6942707695443648,-0.6267240312866292
11.200999999999231,0.6782476088114654,-0.6509425198910979
11.40099999999912,0.6516136395759559,-0.6727893859075179
11.60099999999901,0.6382185161447751,-0.6936357818669198
11.800999999998899,0.6145394189234549,-0.7077150747701071
12.000999999998788,0.5837454011448531,-0.7184192236075585
12.200999999998677,0.5491945337378316,-0.734038598386715
12.400999999998566,0.5222385915140643,-0.7468517637124014
12.600999999998455,0.49372395921267437,-0.7576702910993743
12.800999999998345,0.47427213115952616,-0.768927424087125
13.000999999998234,0.4490074814590555,-0.7731769001372099
13.200999999998123,0.42013389704954984,-0.7752887049004908
13.400999999998012,0.3869039018016049,-0.780634036278364
13.600999999997901,0.3587098704838971,-0.7874132424251368
13.80099999999779,0.3293346304855365,-0.7823754634884197
14.00099999999768,0.2980377027795253,-0.7829330406640405
14.200999999997569,0.2634171669704767,-0.7914154028915411
14.400999999997458,0.22852970674281847,-0.7917218268125455
14.600999999997347,0.19248725371161388,-0.7912040158108784
14.800999999997236,0.14569520096274333,-0.7815951762106862
15.000999999997125,0.11213411391573691,-0.7699610165465662
15.200999999997014,0.07513195811444597,-0.7562081345894647
15.400999999996904,0.040405229839715,-0.7362934222124239
15.600999999996793,0.011511514344215665,-0.7294500427944908
15.800999999996682,-0.024392257485182395,-0.724471027723506
16.000999999996573,-0.06451440024325995,-0.7189178587815267
16.200999999996817,-0.10092125321639765,-0.7133274985452454
16.40099999999706,-0.13602389612379076,-0.7137588434635551
16.600999999997306,-0.17266123860485158,-0.7066607151905964
16.80099999999755,-0.2067189165071612,-0.7055271038810279
17.000999999997795,-0.23778775056467427,-0.7142064932077935
17.20099999999804,-0.2703794643516925,-0.7039287146957501
17.400999999998284,-0.3025717463691068,-0.6949213902934436
17.60099999999853,-0.3340773484701198,-0.6705246413699275
17.800999999998773,-0.35742780043562666,-0.6348234121549943
18.000999999999017,-0.3739401893759185,-0.6015172277888015
18.20099999999926,-0.3863522831711599,-0.5781010091044222
18.400999999999506,-0.3872162946041357,-0.536696453880692
18.60099999999975,-0.3909867694303634,-0.5035245083139641
18.799999999999994,-0.39108792237712736,-0.46797947256578276
19.000000000000238,-0.3885878939170253,-0.4347257915666576
19.200000000000482,-0.38665966207546415,-0.3957493334622709
19.400000000000727,-0.3854166552557289,-0.35943923967558494
19.60000000000097,-0.38518000506633887,-0.3238338877665669
19.800000000001216,-0.38895789680309606,-0.2969588178350911
20.00000000000146,-0.39420564214220993,-0.26516326219785974
