Time (s),X (m),Y (m)
0.001,0.0003099530129853942,-0.0010272443824616275
0.20000000000000015,0.001623013028118473,0.003942885101097365
0.4000000000000003,0.007407867622375266,-0.0032077689713944594
0.6000000000000004,0.015041289020204112,-0.005492682918743187
0.8000000000000006,0.028785326553850965,-0.01991719898618975
1.0000000000000007,0.0448302973667749,-0.03156036446639074
1.2009999999999785,0.05867823071638794,-0.04950006677040825
1.4009999999999565,0.07351690145537912,-0.06619636155058323
1.6009999999999345,0.0869783140970451,-0.07756805718757348
1.8009999999999124,0.11206994213641736,-0.07809840561955751
2.0009999999998906,0.13090146213056025,-0.1010315400806047
2.2009999999998686,0.14996108488305335,-0.11835613261798508
2.4009999999998466,0.17302461129565624,-0.12264110034687702
2.6009999999998246,0.1921390766114581,-0.13046203177770577
2.8009999999998025,0.21854756920514098,-0.12747968856400313
3.0009999999997805,0.2531334052089249,-0.1381764425679404
3.2009999999997585,0.2830077836232206,-0.14836869885492493
3.4009999999997365,0.3170898876923063,-0.15554162656902626
3.6009999999997144,0.34570564665723896,-0.18029304780967398
3.8009999999996924,0.3691367339137338,-0.19257874427732993
4.000999999999671,0.3874785971587556,-0.20723027325467244
4.200999999999738,0.40775315137593743,-0.22192846206913264
4.400999999999804,0.43507183090752344,-0.24284638034060568
4.600999999999871,0.45889841806780945,-0.2577133088262334
4.800999999999938,0.48471356416552774,-0.2613574473268965
5.000000000000004,0.5133192054108884,-0.2647523511069331
5.200000000000071,0.547750656702189,-0.2758117724072748
5.400000000000138,0.5767253278402912,-0.2899136011227124
5.600000000000205,0.5975467633825801,-0.3115448005463743
5.800000000000272,0.6222599201999911,-0.32944645992057986
6.000000000000338,0.6394032079241061,-0.356978892520948
6.200000000000405,0.6570293116218732,-0.37454629762018077
6.400000000000472,0.6886021976905708,-0.3858881356716786
6.600000000000539,0.725493582983237,-0.40109452844304466
6.800000000000606,0.764075244801034,-0.40940292555777047
7.000000000000672,0.798301618926704,-0.41585041346044577
7.200000000000739,0.8278722598476199,-0.42618306750266255
7.400000000000806,0.8567857507858645,-0.4481185737259519
7.600000000000873,0.8777047524024775,-0.46832747368936756
7.8000000000009395,0.9015327503390932,-0.492247028341753
8.000000000001005,0.9267339758520916,-0.5095230081219545
8.200000000000895,0.9570174654099457,-0.522159809454477
8.400000000000784,0.985488069807846,-0.547178128029179
8.600000000000673,1.0108394475367959,-0.5650951873730391
8.800000000000562,1.0400637849306058,-0.5781424401227048
9.000000000000451,1.0709969978987568,-0.6001877409635795
9.20000000000034,1.0922438162265917,-0.6280302025000268
9.40000000000023,1.1210319608079962,-0.6541499944177269
9.600000000000119,1.1459443327751615,-0.6707724291971573
9.800000000000008,1.1688082897627123,-0.6928975555235526
10.000999999999896,1.2009641566465672,-0.7133734445130476
10.200999999999786,1.2236462603731086,-0.7405075292214948
10.400999999999675,1.2429857798335795,-0.7720586218802385
10.600999999999564,1.2667475274003386,-0.7940033522677044
10.800999999999453,1.2901142967048123,-0.8090119870754507
11.000999999999342,1.305345118439704,-0.8320788476587248
11.200999999999231,1.3241120767034185,-0.8475984311273195
11.40099999999912,1.3458597801890069,-0.8654683185415106
11.60099999999901,1.3672368865671254,-0.8827374400189264
11.800999999998899,1.3806825710230943,-0.9151447270732445
12.000999999998788,1.4059850328156995,-0.9470328821293649
12.200999999998677,1.4409718222814367,-0.9660729066445246
12.400999999998566,1.4666328186572832,-0.9838985236680753
12.600999999998455,1.5011026039905606,-1.00009425270276
12.800999999998345,1.5193106863263224,-1.0239257010280798
13.000999999998234,1.535816744035102,-1.0494520490035844
13.200999999998123,1.5392720098400352,-1.0808841289830147
13.400999999998012,1.568440766201288,-1.0984247792153392
13.600999999997901,1.6033659967159488,-1.1219550134149598
13.80099999999779,1.6285288373709172,-1.1407841661301368
14.00099999999768,1.6510353324089484,-1.1636058400052252
14.200999999997569,1.672425728951462,-1.194041178899006
14.400999999997458,1.6953634186311601,-1.220877572609372
14.600999999997347,1.7240783527092702,-1.2461699568880642
14.800999999997236,1.759286943674926,-1.2549680082687218
15.000999999997125,1.7849002784089854,-1.2725951002377436
15.200999999997014,1.8129248407083958,-1.2931458014211126
15.400999999996904,1.8544533194245585,-1.2963689181514224
15.600999999996793,1.8883704734091473,-1.305010327553459
15.800999999996682,1.922702135959504,-1.324548390028372
16.000999999996573,1.9585491872027891,-1.34535660378101
16.200999999996817,1.995471354456181,-1.360098744321823
16.40099999999706,2.0199347267161785,-1.3878165330457095
16.600999999997306,2.0532826669641486,-1.3932037900531482
16.80099999999755,2.0849069543721512,-1.4107609015941256
17.000999999997795,2.1164315920126406,-1.4247816161875575
17.20099999999804,2.14336791210897,-1.4490761883116399
17.400999999998284,2.179215283620895,-1.4681971606670359
17.60099999999853,2.2122226304263424,-1.4838697927582896
17.800999999998773,2.2570497404975027,-1.4984288401095085
18.000999999999017,2.2930822067510004,-1.5010691099287152
18.20099999999926,2.326310884985475,-1.5166059020009923
18.400999999999506,2.3616629971966554,-1.5390502006298672
18.60099999999975,2.3917069195392413,-1.5681711811124732
18.799999999999994,2.4201779240468,-1.5995218773982425
19.000000000000238,2.4451161538721373,-1.6329875374812906
19.200000000000482,2.4685398841859483,-1.6671782841828535
19.400000000000727,2.496023980104129,-1.7032928160766105
19.60000000000097,2.515468932979395,-1.7354972454857647
19.800000000001216,2.5476406946905,-1.7539030250748449
20.00000000000146,2.581533809749,-1.7718923174252719
