Time (s),X (m),Y (m)
0.001,-0.00037137305770231177,-0.0008446836120385868
0.20000000000000015,0.0009528039918693551,-0.0001642957897344822
0.4000000000000003,0.0002577231785053775,-0.002708572974404848
0.6000000000000004,0.002093418632524498,-0.010513106281453617
0.8000000000000006,0.007986707849943478,-0.009340521628934935
1.0000000000000007,0.017570548122020933,-0.0028672275805188127
1.2009999999999785,0.02596881635825238,-0.0024225333434691547
1.4009999999999565,0.03808403360398169,0.002934646751451977
1.6009999999999345,0.04967704134276363,0.006498107260941247
1.8009999999999124,0.06664045746534701,0.012624698137281468
2.0009999999998906,0.0790080531808978,0.0114882516964413
2.2009999999998686,0.0895792490297782,0.017299329557094845
2.4009999999998466,0.09924423994197541,0.014631760139706062
2.6009999999998246,0.11043479659633496,0.02204845027374314
2.8009999999998025,0.1223135220808324,0.030124728599541552
3.0009999999997805,0.13382286042613487,0.03421434866444041
3.2009999999997585,0.14472750696964065,0.0388406739165827
3.4009999999997365,0.15793200001359076,0.050290531157284504
3.6009999999997144,0.17085800503902943,0.057050526715293016
3.8009999999996924,0.18265491476232054,0.0657134794814232
4.000999999999671,0.19446422005028655,0.07750534345389118
4.200999999999738,0.20395814089524003,0.08911527127983085
4.400999999999804,0.213449311119203,0.10255700070156515
4.600999999999871,0.22775391304606404,0.10735712480112049
4.800999999999938,0.23875415762600677,0.115376051232505
5.000000000000004,0.24868811216123668,0.11773993436855314
5.200000000000071,0.26001510750773466,0.11813697042457107
5.400000000000138,0.2671409763854079,0.11969530930063674
5.600000000000205,0.27530482364178727,0.12273580906796669
5.800000000000272,0.2841980814829718,0.13182702126247495
6.000000000000338,0.29646181990187376,0.13893544231615332
6.200000000000405,0.30955997277834263,0.14328657478364254
6.400000000000472,0.3206085928543201,0.154199334579927
6.600000000000539,0.32840294877014253,0.15876850648069601
6.800000000000606,0.3348738965905052,0.16939093448005363
7.000000000000672,0.3411433225672025,0.17643641423445985
7.200000000000739,0.3490435715723875,0.1863039129035057
7.400000000000806,0.3577243303634269,0.19247956020654677
7.600000000000873,0.36571131454966316,0.20277476115446544
7.8000000000009395,0.37552499364434305,0.2130609002291253
8.000000000001005,0.3801952627176269,0.2293998399146805
8.200000000000895,0.38650866509136583,0.24733673540226958
8.400000000000784,0.39440547686509103,0.2546731006022735
8.600000000000673,0.3964107561751165,0.2707922067191326
8.800000000000562,0.40333262496643435,0.27421065813725554
9.000000000000451,0.4125135684683288,0.28509703097457023
9.20000000000034,0.4190661313365427,0.2949471950977216
9.40000000000023,0.4249492379213018,0.30457577376363054
9.600000000000119,0.430552318064798,0.3179833994921561
9.800000000000008,0.43572178628037417,0.32548542797324076
10.000999999999896,0.44046923373852825,0.3348505421876872
10.200999999999786,0.4451696119138374,0.34450197777271285
10.400999999999675,0.4484750568755253,0.3555602179391907
10.600999999999564,0.45075647667485397,0.37010135182771753
10.800999999999453,0.4517896371596329,0.39063897556914506
11.000999999999342,0.4561819579934199,0.39945038172835806
11.200999999999231,0.4610389088980115,0.41334626487361115
11.40099999999912,0.45942330281843813,0.4301627817861798
11.60099999999901,0.4607346403783173,0.44570430231370983
11.800999999998899,0.46165687260474364,0.45618852484153
12.000999999998788,0.4681856896681435,0.46404525183367873
12.200999999998677,0.46683756288506517,0.48399708430722016
12.400999999998566,0.46793929735548995,0.4972452069727056
12.600999999998455,0.46201670506075604,0.5151702377823749
12.800999999998345,0.46205178264519525,0.5284856471377829
13.000999999998234,0.45425222790272546,0.5502443213033201
13.200999999998123,0.44806090347184063,0.571196675655675
13.400999999998012,0.4513293726569889,0.5847795161886717
13.600999999997901,0.4507788953895635,0.6011222543531288
13.80099999999779,0.4462565141859138,0.6187315073167363
14.00099999999768,0.4455795847814204,0.6315999907388296
14.200999999997569,0.44131207405203093,0.64390572340956
14.400999999997458,0.436381428523841,0.6577710989630304
14.600999999997347,0.4319168768322022,0.6725466188957645
14.800999999997236,0.4274378661415144,0.683918901241438
15.000999999997125,0.4132127374594536,0.6986367486394114
15.200999999997014,0.4027147780634495,0.7112631794814164
15.400999999996904,0.40038660023091477,0.7262039178637986
15.600999999996793,0.3860130273172503,0.7404510557960917
15.800999999996682,0.37228230202870116,0.7537127138591604
16.000999999996573,0.3602088458411144,0.7663546325040034
16.200999999996817,0.3497846820308485,0.7809417921834594
16.40099999999706,0.3396259803280498,0.7967028164233507
16.600999999997306,0.33115119218654837,0.8105644991440122
16.80099999999755,0.3221885748982356,0.8240772811819636
17.000999999997795,0.31514358403130993,0.8380875531177109
17.20099999999804,0.30410129322562607,0.8491433501503182
17.400999999998284,0.29607151484890065,0.8564773161952576
17.60099999999853,0.2882752170149414,0.8644432688439599
17.800999999998773,0.28306376302163194,0.8754448088387461
18.000999999999017,0.2732924609221112,0.8839745882418065
18.20099999999926,0.26427424434264746,0.8924600379236854
18.400999999999506,0.2516360602115293,0.9025218560143912
18.60099999999975,0.24141068336868485,0.9068537979040011
18.799999999999994,0.23317444141867763,0.9108455830715367
19.000000000000238,0.22617093157560508,0.9198243764671534
19.200000000000482,0.21105128053819008,0.9252669870030575
19.400000000000727,0.20516188439994562,0.9302685540670915
19.60000000000097,0.19298904167061753,0.9330155134829208
19.800000000001216,0.18336898931230586,0.9358515832242511
20.00000000000146,0.1788095069255549,0.9447746658279943
