Time (s),X (m),Y (m)
0.001,0.0010647643868879006,0.0005914538325516247
0.20000000000000015,0.0008181626595920821,-0.0002448106752907092
0.4000000000000003,0.012556530446950567,0.007539275185128884
0.6000000000000004,0.012192441697321019,0.012075955213893253
0.8000000000000006,0.014193567884982218,0.011523557385342198
1.0000000000000007,0.012616402568879108,0.006057846302776291
1.2009999999999785,0.00986421179361217,-0.00258092804535758
1.4009999999999565,0.020892887629659233,-0.025215234455862896
1.6009999999999345,0.033728575353869306,-0.05937504479022989
1.8009999999999124,0.04094174835778996,-0.09358762604581693
2.0009999999998906,0.032124016020829975,-0.12684146641781552
2.2009999999998686,0.01139706173317522,-0.15892118804878871
2.4009999999998466,-0.018136527242619743,-0.18697769810727677
2.6009999999998246,-0.058036529450084015,-0.2188694812090334
2.8009999999998025,-0.10277680593423345,-0.2503573644083621
3.0009999999997805,-0.14443842575884674,-0.27932831998149804
3.2009999999997585,-0.18114388358461056,-0.3019323845951241
3.4009999999997365,-0.21786379589522384,-0.2944636863749364
3.6009999999997144,-0.25801168375322003,-0.2630427684004347
3.8009999999996924,-0.29604064173060785,-0.22496906518533524
4.000999999999671,-0.3333831896389157,-0.1773574658748776
4.200999999999738,-0.3731797892325556,-0.12467220523222801
4.400999999999804,-0.4035739931553596,-0.08733275780528314
4.600999999999871,-0.4444041283081626,-0.04100203013436807
4.800999999999938,-0.49345836185171216,0.01000289515564312
5.000000000000004,-0.5411965656239495,0.0626370815716912
5.200000000000071,-0.5840492360405114,0.11436565642900683
5.400000000000138,-0.6282372232587209,0.16438695975331688
5.600000000000205,-0.6739980144836801,0.2190830444942147
5.800000000000272,-0.7214210923737551,0.27766297111187344
6.000000000000338,-0.7715863992410311,0.3407783375785887
6.200000000000405,-0.8260259926541633,0.4047031811574118
6.400000000000472,-0.8854455002609783,0.4610933719612343
6.600000000000539,-0.939230683734842,0.5146821288463922
6.800000000000606,-0.9964255946460634,0.576438323200979
7.000000000000672,-1.054757101273246,0.6427017009291254
7.200000000000739,-1.1075090676350734,0.7105960366704235
7.400000000000806,-1.1495408755661611,0.7866205856728022
7.600000000000873,-1.1531765181132188,0.8543091423352818
7.8000000000009395,-1.1279103483911106,0.9109461465751821
8.000000000001005,-1.0869385063089099,0.9674566722150696
8.200000000000895,-1.0341941845914508,1.0325461210348663
8.400000000000784,-0.9827081588009812,1.0998448266908727
8.600000000000673,-0.9455501054954036,1.1642767963402658
8.800000000000562,-0.9177337575328739,1.2304732059305195
9.000000000000451,-0.8813219080956244,1.2985007661527406
9.20000000000034,-0.8308207070018773,1.3647728787859814
9.40000000000023,-0.7726006070025911,1.442446251953918
9.600000000000119,-0.7202195014012879,1.5238534814830422
9.800000000000008,-0.6765615230776674,1.6056833350994975
10.000999999999896,-0.6415350810993786,1.6846322121620505
10.200999999999786,-0.6011067044321404,1.7618755249918705
10.400999999999675,-0.5473423645520452,1.8274321844804629
10.600999999999564,-0.47830042512556326,1.8982358848060206
10.800999999999453,-0.4018192795745726,1.9731634760143484
11.000999999999342,-0.32399384118973035,2.0531395200427873
11.200999999999231,-0.24276911755888958,2.127269892874017
11.40099999999912,-0.15873144924640523,2.1981445834302833
11.60099999999901,-0.07893464948704892,2.257583041317314
11.800999999998899,0.00901476908417668,2.3104376903931456
12.000999999998788,0.09542681152277682,2.360403381984134
12.200999999998677,0.17913850276823115,2.3748629533866366
12.400999999998566,0.24659118660650775,2.3535966387017244
12.600999999998455,0.30630370665354584,2.307354957878941
12.800999999998345,0.37360484495767393,2.248973453941864
13.000999999998234,0.446818215497029,2.184367853771065
13.200999999998123,0.5133766773184354,2.117432821675002
13.400999999998012,0.5804053215612359,2.0432192772661986
13.600999999997901,0.6520781850188487,1.9575990717506424
13.80099999999779,0.7203001245200026,1.864883621545805
14.00099999999768,0.7671697597957281,1.778872910964819
14.200999999997569,0.7700367412759735,1.6967891784222686
14.400999999997458,0.7452977905987431,1.6230174190577917
14.600999999997347,0.701188034393679,1.5552383581987255
14.800999999997236,0.6423343998342852,1.4951139709485544
15.000999999997125,0.5817042174838347,1.442608623467218
15.200999999997014,0.5189121861813667,1.377105454132626
15.400999999996904,0.4545706390758344,1.3105079767521242
15.600999999996793,0.39145126240040257,1.2461224501147945
15.800999999996682,0.3397018738811115,1.172781058811662
16.000999999996573,0.28582460144563865,1.1000305372931274
16.200999999996817,0.22080649808510638,1.0293726794210756
16.40099999999706,0.1530096985768186,0.9683569793151933
16.600999999997306,0.07582222539079894,0.9007754176658862
16.80099999999755,-0.01454140086107058,0.8312457502920066
17.000999999997795,-0.11076801469152638,0.7671091149389935
17.20099999999804,-0.19998163386126896,0.7260010515920509
17.400999999998284,-0.272728307883181,0.7257697316999372
17.60099999999853,-0.33090148291322474,0.7518181805768736
17.800999999998773,-0.3839929034291505,0.7960502742670149
18.000999999999017,-0.4363900835869228,0.8518182468482871
18.20099999999926,-0.49079069010279497,0.9251511002494737
18.400999999999506,-0.5469413990895345,0.9988828217306642
18.60099999999975,-0.6048770281766662,1.0717937173225858
18.799999999999994,-0.6590570436259825,1.1438424501754823
19.000000000000238,-0.71594435210662,1.2189722655851967
19.200000000000482,-0.7628697009213989,1.2835330387990578
19.400000000000727,-0.7921262524319104,1.355045926959395
19.60000000000097,-0.7964787126683838,1.4146560345152783
19.800000000001216,-0.7810383495166977,1.475351453333387
20.00000000000146,-0.7440127056220498,1.53556261588653
