Time (s),X (m),Y (m)
0.001,-0.00037137305770231177,-0.0008446836120385868
0.20000000000000015,0.005121256722031977,0.004119772851105604
0.4000000000000003,0.020264680081610094,0.006738101310632755
0.6000000000000004,0.04031065796799689,0.0033341327169046442
0.8000000000000006,0.06974912326400882,0.0038525036869216517
1.0000000000000007,0.09897122921456414,0.003760949469776592
1.2009999999999785,0.13621667139800428,-0.002497347070975995
1.4009999999999565,0.1773150982801513,-0.014542089971404746
1.6009999999999345,0.2135495171998302,-0.04066861693841984
1.8009999999999124,0.24863959334095284,-0.0778439358855857
2.0009999999998906,0.273839676911932,-0.1121323166597964
2.2009999999998686,0.2855908385903939,-0.13536350453086457
2.4009999999998466,0.2738684982029729,-0.15921163842217376
2.6009999999998246,0.2299395748302003,-0.18638364478569286
2.8009999999998025,0.17747311966205429,-0.20688286609386522
3.0009999999997805,0.11625593464600857,-0.21114932080008011
3.2009999999997585,0.05804736826746711,-0.20219934347514412
3.4009999999997365,0.008535926663125646,-0.17734898977948804
3.6009999999997144,-0.04249902034052912,-0.14261359769568255
3.8009999999996924,-0.0891397134016644,-0.09712952394816006
4.000999999999671,-0.13558546175551553,-0.05518140781581086
4.200999999999738,-0.1824310185102954,-0.01025210199704967
4.400999999999804,-0.2183418278888226,0.04217426258463058
4.600999999999871,-0.2587254255920637,0.09813514282378548
4.800999999999938,-0.30478474438578795,0.15298148431872755
5.000000000000004,-0.35159285461166767,0.21333850304673033
5.200000000000071,-0.4094431405050922,0.2805683497112193
5.400000000000138,-0.4910450410069321,0.34628736051999115
5.600000000000205,-0.5438403860951939,0.4035443288666463
5.800000000000272,-0.6002268068115132,0.4649342432819042
6.000000000000338,-0.656139664413228,0.5306596737426303
6.200000000000405,-0.7122228616891565,0.5804505638061468
6.400000000000472,-0.7765829221620697,0.6277757873713234
6.600000000000539,-0.817858211708644,0.6808485976051439
6.800000000000606,-0.8607195860040648,0.7463546972107601
7.000000000000672,-0.9059439975782839,0.8311950513718747
7.200000000000739,-0.9441427352026108,0.9100583750900093
7.400000000000806,-0.9599544618093361,0.9795415657009647
7.600000000000873,-0.9519611511842817,1.0382130376938918
7.8000000000009395,-0.9226255337579031,1.0889489297841362
8.000000000001005,-0.8748825888845392,1.1259898436953368
8.200000000000895,-0.8175178160293595,1.1566307392711697
8.400000000000784,-0.7714926369226307,1.1706570029777805
8.600000000000673,-0.7295125567711065,1.1590088942642456
8.800000000000562,-0.6868040411600209,1.129097826384951
9.000000000000451,-0.6366223229483865,1.087898135974218
9.20000000000034,-0.5778658047850221,1.0385070958726055
9.40000000000023,-0.5161283851076521,0.982030149280734
9.600000000000119,-0.44736676923857116,0.9281241525877434
9.800000000000008,-0.3619069078256944,0.8916911032478799
10.000999999999896,-0.29569979971799293,0.8547967553241598
10.200999999999786,-0.22723364044805547,0.7990961221420876
10.400999999999675,-0.16636068346950425,0.732529701111831
10.600999999999564,-0.11886168756400045,0.6508876867607661
10.800999999999453,-0.08229831857900392,0.5793430394960906
11.000999999999342,-0.06594208687533568,0.4977055174160813
11.200999999999231,-0.08755276069940182,0.42362738607966843
11.40099999999912,-0.13977095974171824,0.3515904900677329
11.60099999999901,-0.20890373710004992,0.28648665354827224
11.800999999998899,-0.28496465771878343,0.2226884161224092
12.000999999998788,-0.3693437096088631,0.16418901161570504
12.200999999998677,-0.444431643847659,0.1272673685222085
12.400999999998566,-0.5023366418225431,0.12962650180570484
12.600999999998455,-0.5478448531392082,0.15786842537961998
12.800999999998345,-0.5818588341689445,0.20406131955017387
13.000999999998234,-0.5867885927437221,0.2640853271029819
13.200999999998123,-0.5601410660452908,0.3180351830217024
13.400999999998012,-0.5175702162519005,0.37321672847135784
13.600999999997901,-0.4731159891418171,0.43119595137432126
13.80099999999779,-0.4321085358368311,0.5037766972337564
14.00099999999768,-0.38410175690557863,0.562047414155902
14.200999999997569,-0.3307062116187131,0.6108805418263478
14.400999999997458,-0.2687309434571422,0.6570640306544941
14.600999999997347,-0.20312089391287527,0.6998581340277255
14.800999999997236,-0.13372897092542996,0.7355049367354243
15.000999999997125,-0.06584954909025421,0.7492564259614388
15.200999999997014,0.0020316505870728746,0.7504233792317266
15.400999999996904,0.07915974131019632,0.7327544675767801
15.600999999996793,0.14124978184600157,0.6888070578330648
15.800999999996682,0.18775874306109194,0.6312566043799557
16.000999999996573,0.21973987072553502,0.5491093591741479
16.200999999996817,0.2232023805477578,0.47749827189575733
16.40099999999706,0.19962089540106012,0.41935191367379576
16.600999999997306,0.15659500995191517,0.367631559106494
16.80099999999755,0.0991981009105731,0.31719087198733337
17.000999999997795,0.03086024013614771,0.2700764369653367
17.20099999999804,-0.04462298071862131,0.22036710737044019
17.400999999998284,-0.1203748849158142,0.18158660128792578
17.60099999999853,-0.19493044449493185,0.154072751339975
17.800999999998773,-0.27280393531970515,0.13352346649935484
18.000999999999017,-0.37571397349623387,0.12104821375927843
18.20099999999926,-0.47142650321018303,0.12775744810610531
18.400999999999506,-0.5469796360333672,0.15362759098290182
18.60099999999975,-0.6016438047675102,0.19567465204265758
18.799999999999994,-0.6483170251716406,0.2505655312838112
19.000000000000238,-0.6959594755313357,0.31484259084359617
19.200000000000482,-0.7369517530214144,0.38345209571789407
19.400000000000727,-0.7741122332450738,0.4506066307638917
19.60000000000097,-0.7938839092941615,0.5207365566621482
19.800000000001216,-0.7870351638992951,0.5906140688846213
20.00000000000146,-0.7541604196591724,0.6494628872769559
