Time (s),X (m),Y (m)
0.001,-0.0007144750753253542,-0.00043579054991000363
0.20000000000000015,0.004736972564132981,0.0009343301577493622
0.4000000000000003,0.00978469842052467,5.406040746186137e-05
0.6000000000000004,0.023430690025177267,0.003016174413783569
0.8000000000000006,0.03686458921819047,0.004122014310588889
1.0000000000000007,0.06098215846006197,-0.0044783791125378135
1.2009999999999785,0.08679569501866402,-0.020902540243520534
1.4009999999999565,0.11721754260788762,-0.04100259939335727
1.6009999999999345,0.14740010931168052,-0.0686764895190505
1.8009999999999124,0.18552161288421803,-0.11125917522664454
2.0009999999998906,0.2190959997574163,-0.1517503162053424
2.2009999999998686,0.24003895629747315,-0.19686309131235136
2.4009999999998466,0.24155345119275498,-0.24093651606540645
2.6009999999998246,0.23350505327373722,-0.2815739942479009
2.8009999999998025,0.2159480246901234,-0.3167851622257816
3.0009999999997805,0.18961967533142743,-0.3477374874868754
3.2009999999997585,0.16359846566308867,-0.38573470849073477
3.4009999999997365,0.13772624139351508,-0.4198211146879051
3.6009999999997144,0.10941765499219093,-0.4445500089487007
3.8009999999996924,0.07608672815243493,-0.48150345153050755
4.000999999999671,0.036905452783045245,-0.5248600280471415
4.200999999999738,-0.0047820108165340346,-0.5681450496772221
4.400999999999804,-0.053736730584204064,-0.6122855598821815
4.600999999999871,-0.09848530391858538,-0.6549626073117301
4.800999999999938,-0.15697151286718655,-0.6930715462510264
5.000000000000004,-0.22626597969500856,-0.7248454848709762
5.200000000000071,-0.2858387320920721,-0.7464595744516925
5.400000000000138,-0.345269252782033,-0.737641641103399
5.600000000000205,-0.3936115532624439,-0.7116079931783861
5.800000000000272,-0.4389289020919748,-0.6763969137790123
6.000000000000338,-0.4836544526135632,-0.6341056356118513
6.200000000000405,-0.5280967983532382,-0.5846638729408851
6.400000000000472,-0.5705514943138552,-0.5346990798390523
6.600000000000539,-0.6117085300257853,-0.4869531032005979
6.800000000000606,-0.6293895228114286,-0.4470311514710008
7.000000000000672,-0.621289122996575,-0.40670254854563287
7.200000000000739,-0.598095195350498,-0.3628333845867587
7.400000000000806,-0.5663884722908594,-0.3238269811140189
7.600000000000873,-0.5235046235082318,-0.27161733991894504
7.8000000000009395,-0.47535474858982907,-0.21356419742218605
8.000000000001005,-0.4157454069133615,-0.1429798061622868
8.200000000000895,-0.3606610743014223,-0.08169828169527174
8.400000000000784,-0.31219925489841666,-0.028965361449693427
8.600000000000673,-0.26178571068594086,0.021500889319238586
8.800000000000562,-0.20213064552349988,0.07059358095208565
9.000000000000451,-0.14330288398165666,0.11129835770706778
9.20000000000034,-0.08415227447324587,0.13431342573333357
9.40000000000023,-0.03669702274610128,0.1343096291458551
9.600000000000119,0.012741210493616133,0.11029965597463746
9.800000000000008,0.06938154319424962,0.0706483201938059
10.000999999999896,0.13493349171312427,0.018893872296577865
10.200999999999786,0.19852251598083903,-0.03789045906563891
10.400999999999675,0.265624763948273,-0.09943809629215171
10.600999999999564,0.3243970311189184,-0.16436733280547286
10.800999999999453,0.3833064063239617,-0.22711991461407485
11.000999999999342,0.4451574842596349,-0.28531162270871013
11.200999999999231,0.510003042503871,-0.3447535900390605
11.40099999999912,0.5720508519951403,-0.4126478438751116
11.60099999999901,0.6396206203888218,-0.4978768691510951
11.800999999998899,0.7035151599615197,-0.5787910924832572
12.000999999998788,0.7515885443336559,-0.6522074519452228
12.200999999998677,0.7656546808003504,-0.7191282057322564
12.400999999998566,0.7490212803551798,-0.7711301547921722
12.600999999998455,0.7185663879506881,-0.798461610321828
12.800999999998345,0.6837910769349783,-0.7981699938924786
13.000999999998234,0.6462927672384612,-0.7792073274085451
13.200999999998123,0.5986609541762015,-0.7453184155651872
13.400999999998012,0.5524610085649756,-0.7109227065045746
13.600999999997901,0.5139195955640753,-0.6772563429268561
13.80099999999779,0.4991120115739183,-0.6375287559736132
14.00099999999768,0.5111600742086997,-0.5938323305296792
14.200999999997569,0.5386845178166685,-0.546644698685498
14.400999999997458,0.5732763672181173,-0.5011135637691382
14.600999999997347,0.6200158508940413,-0.442721269836148
14.800999999997236,0.674744465023268,-0.37821525901168696
15.000999999997125,0.7315613667531082,-0.31917947796472274
15.200999999997014,0.796969565555771,-0.25659668019435083
15.400999999996904,0.8517077086181687,-0.19999959811705129
15.600999999996793,0.8816773759386393,-0.16992929785157904
15.800999999996682,0.9075667032234715,-0.16932240029718984
16.000999999996573,0.942825813677285,-0.19165785789589346
16.200999999996817,0.9826865988742145,-0.2279743497403273
16.40099999999706,1.0233321455287816,-0.28611680932369843
16.600999999997306,1.0389880651176162,-0.33779490054103845
16.80099999999755,1.0380229216511745,-0.3938103710546656
17.000999999997795,1.0229980376113368,-0.44978642191415463
17.20099999999804,0.9935115031382071,-0.5157728255547539
17.400999999998284,0.955869690949599,-0.5660666073191677
17.60099999999853,0.908552166376426,-0.6039522165885914
17.800999999998773,0.8521188379442962,-0.619138536173206
18.000999999999017,0.7922029273541163,-0.6203688054065376
18.20099999999926,0.7379891773771314,-0.6115180539677082
18.400999999999506,0.679749934981589,-0.5815800057523276
18.60099999999975,0.622817956668479,-0.5397486177327357
18.799999999999994,0.5688145965674958,-0.4894061218291831
19.000000000000238,0.5154952806696549,-0.43399671042184895
19.200000000000482,0.46190475892852845,-0.3777749638689036
19.400000000000727,0.4085482506429051,-0.3114704908923428
19.60000000000097,0.36904406853406563,-0.2399819586877226
19.800000000001216,0.3430199608939033,-0.1684541630835486
20.00000000000146,0.31928300176036795,-0.1028642194536806
