Time (s),X (m),Y (m)
0.001,-0.00037137305770231177,-0.0008446836120385868
0.20000000000000015,-0.00188170549551719,-0.004080211661256151
0.4000000000000003,0.0025702412335035624,-0.002878328608546161
0.6000000000000004,0.0036185009851043668,-0.009226412428805357
0.8000000000000006,0.009830607114366698,-0.010202404657139343
1.0000000000000007,0.013452543661280514,-0.011444530403431375
1.2009999999999785,0.018361325757048814,-0.013062510896403272
1.4009999999999565,0.02340961993497194,-0.008755951950528376
1.6009999999999345,0.02936860868987448,-0.011363687084074339
1.8009999999999124,0.03746778997852849,-0.009296899250709674
2.0009999999998906,0.04608822812119329,-0.0010967269579656314
2.2009999999998686,0.0546252376356684,0.004988631565847221
2.4009999999998466,0.061594753392816046,0.006971948785458114
2.6009999999998246,0.06863139217494636,0.009478279223031991
2.8009999999998025,0.0766782400871544,0.016584082411873157
3.0009999999997805,0.08522295653835923,0.01987349764183656
3.2009999999997585,0.09144635701127633,0.021935703515432513
3.4009999999997365,0.09881468785631933,0.0295696747378669
3.6009999999997144,0.10565152562157669,0.029949430520788113
3.8009999999996924,0.10985777633399599,0.03255989171575073
4.000999999999671,0.1161046477962377,0.03773359921457621
4.200999999999738,0.12180585356064244,0.04383453750447174
4.400999999999804,0.12796391513214223,0.04987708681369597
4.600999999999871,0.13651041698472371,0.05541178189011214
4.800999999999938,0.1460918448458907,0.05824406075105947
5.000000000000004,0.1511818383795281,0.06544033260030449
5.200000000000071,0.15736916042836896,0.07620373734008082
5.400000000000138,0.16242527766361722,0.08530444760527621
5.600000000000205,0.16552956202318828,0.09553627832366934
5.800000000000272,0.16767760418645106,0.10272847383255479
6.000000000000338,0.1714623478045988,0.11021779997613708
6.200000000000405,0.17489241941017347,0.11603359763356877
6.400000000000472,0.17581018379187321,0.12358151950058026
6.600000000000539,0.17650619987660127,0.13205850093750265
6.800000000000606,0.1782608117796183,0.13869041076500527
7.000000000000672,0.17975876675530453,0.14534936978369054
7.200000000000739,0.17924461688739643,0.15501788834316724
7.400000000000806,0.17609861658937692,0.16840928994102622
7.600000000000873,0.1703855039913739,0.18118428068996248
7.8000000000009395,0.16768339343380406,0.19365488996054295
8.000000000001005,0.17063351600493432,0.19877042765313727
8.200000000000895,0.1721344161038055,0.20611217754627492
8.400000000000784,0.16726103908144227,0.21554222452361083
8.600000000000673,0.16795734079406546,0.22397814316378137
8.800000000000562,0.17116549416999466,0.2303220430339891
9.000000000000451,0.1674231419213822,0.2383024413100798
9.20000000000034,0.16680489536300128,0.24620029686165806
9.40000000000023,0.16785696652231843,0.254594420708278
9.600000000000119,0.1632441574340473,0.2644862758271474
9.800000000000008,0.15801428774909226,0.27452466087608346
10.000999999999896,0.15188756027482822,0.28190700603055474
10.200999999999786,0.1501996921982972,0.29033273503506635
10.400999999999675,0.14164221461128304,0.2993781914858652
10.600999999999564,0.1318982825983427,0.3123717992334034
10.800999999999453,0.1279637631188006,0.3226238124732123
11.000999999999342,0.12243762716495052,0.33604427278331617
11.200999999999231,0.11496019969120959,0.3477746379812319
11.40099999999912,0.10983047248374408,0.35430889157140805
11.60099999999901,0.10587281255447575,0.3617456126578969
11.800999999998899,0.10212747909825834,0.36938877202342857
12.000999999998788,0.09733521031903938,0.3743407871303149
12.200999999998677,0.09425576276408172,0.3807718505646451
12.400999999998566,0.08582804436060165,0.3862677481647076
12.600999999998455,0.07201786571919876,0.39437675769734415
12.800999999998345,0.06405889801739825,0.4013894317599386
13.000999999998234,0.057118512148176315,0.40612236807884455
13.200999999998123,0.04800144839974992,0.4107499387235703
13.400999999998012,0.04590679185460268,0.4135713694440627
13.600999999997901,0.03741362333246646,0.41938626702225146
13.80099999999779,0.02847351995317411,0.4218501518533568
14.00099999999768,0.012989932828979258,0.4274925863175123
14.200999999997569,0.00037166622389286994,0.43100470979201294
14.400999999997458,-0.00994396640371863,0.4364296193750298
14.600999999997347,-0.017490424273026373,0.4441895925452526
14.800999999997236,-0.03132548014768505,0.4471698985663835
15.000999999997125,-0.048525341180098214,0.44977639255834495
15.200999999997014,-0.05859490767059164,0.4538698492742744
15.400999999996904,-0.07086119983813245,0.4566896726822627
15.600999999996793,-0.08209450315502505,0.45541024834243743
15.800999999996682,-0.093242644603757,0.45630695646317876
16.000999999996573,-0.10752295073952002,0.4551398874465658
16.200999999996817,-0.12390912306483888,0.44900581899607656
16.40099999999706,-0.13642623335400828,0.44873112744882354
16.600999999997306,-0.14665580207247117,0.44916246645375935
16.80099999999755,-0.16001761837894501,0.4434643820406549
17.000999999997795,-0.17643084657348648,0.4348280537369677
17.20099999999804,-0.19094237694943897,0.43307117331344425
17.400999999998284,-0.20198689452279134,0.43193332474588403
17.60099999999853,-0.21081686871295982,0.42588383689205705
17.800999999998773,-0.2216802920859657,0.42387622062926394
18.000999999999017,-0.2307524525873735,0.4202825007978291
18.20099999999926,-0.23855617142305302,0.41504365348557526
18.400999999999506,-0.24846529906572024,0.4106907677597424
18.60099999999975,-0.2609437152155473,0.4033003932257588
18.799999999999994,-0.2715377850514474,0.3953601509489689
19.000000000000238,-0.28329275417298155,0.39138288378030883
19.200000000000482,-0.2969262618554472,0.38606911112836717
19.400000000000727,-0.309820462746224,0.38169360145175685
19.60000000000097,-0.32127840016422876,0.3739948589917099
19.800000000001216,-0.3293491928540779,0.3725379125410482
20.00000000000146,-0.3374467038659665,0.3743708045012191
