Time (s),X (m),Y (m)
0.001,0.0005727611008870025,0.0009689812320744445
0.20000000000000015,0.0011184608310419925,-0.0023115362438500555
0.4000000000000003,0.006586383927405283,0.003700790292621853
0.6000000000000004,0.013248152060214631,0.0003791614623141802
0.8000000000000006,0.021523201525814977,-0.00449877578321846
1.0000000000000007,0.03578957087344459,-0.015219870476527227
1.2009999999999785,0.055015497328107114,-0.009265174208663242
1.4009999999999565,0.07391828038485687,-0.010746225108230404
1.6009999999999345,0.09903188985607544,-0.004866010473839729
1.8009999999999124,0.12768242799580407,0.012572596563626979
2.0009999999998906,0.15612310387415257,0.010617324785773622
2.2009999999998686,0.18301210982694754,0.02025919950709841
2.4009999999998466,0.2019453573071815,0.0298473642092162
2.6009999999998246,0.22507351079697063,0.03772278598000568
2.8009999999998025,0.24950593918291003,0.03704496033554323
3.0009999999997805,0.27191694106011,0.03312019727907304
3.2009999999997585,0.29437348379237444,0.02825152796526891
3.4009999999997365,0.32517915390877283,0.04016133139314442
3.6009999999997144,0.3512316652520513,0.04244848938905013
3.8009999999996924,0.3769130746038478,0.03429807228388847
4.000999999999671,0.40454880103096186,0.02911969316913578
4.200999999999738,0.4381868191814528,0.031396787857598224
4.400999999999804,0.4738354763378064,0.03886791464551399
4.600999999999871,0.5117505654621171,0.056932944444087905
4.800999999999938,0.5464102946809976,0.07375327236789685
5.000000000000004,0.5823656252024924,0.0908849360675515
5.200000000000071,0.6160748685652094,0.0997948778330965
5.400000000000138,0.6459388649580625,0.10995519098191701
5.600000000000205,0.6682444479459413,0.09942002073127874
5.800000000000272,0.6966718366205424,0.10192005308951964
6.000000000000338,0.7278169741825816,0.11754863356422234
6.200000000000405,0.7573521986905528,0.1343817955043148
6.400000000000472,0.7831182636295552,0.13813245907795915
6.600000000000539,0.8166363312688444,0.14734508843442784
6.800000000000606,0.8458625817324146,0.15407460445434448
7.000000000000672,0.8787920744032114,0.15919805715044805
7.200000000000739,0.9120468179147264,0.16399396786400935
7.400000000000806,0.9459352311238155,0.1669629813845686
7.600000000000873,0.9819425017070467,0.17549681203399584
7.8000000000009395,1.0140459636256007,0.18672610686505975
8.000000000001005,1.053307588428019,0.1932789115761243
8.200000000000895,1.0887077737419177,0.20238395772598042
8.400000000000784,1.1246993177643008,0.20799492840872674
8.600000000000673,1.1601875423985109,0.2124972668130772
8.800000000000562,1.1915289152574644,0.21051313753143103
9.000000000000451,1.2174723652613335,0.21060722781230296
9.20000000000034,1.2441638467413474,0.21140487933536137
9.40000000000023,1.281230010949117,0.20500795074080666
9.600000000000119,1.3248486839162859,0.22129842933056848
9.800000000000008,1.3583354073129283,0.22675469709507068
10.000999999999896,1.3919207177321238,0.22682929221392736
10.200999999999786,1.4335978812444559,0.22883589140579547
10.400999999999675,1.4633599755963833,0.22403898586768006
10.600999999999564,1.486675841327199,0.21143824817314205
10.800999999999453,1.519410326866874,0.19515423181812078
11.000999999999342,1.53699854807876,0.17216185161828965
11.200999999999231,1.5498185200394032,0.15028426026645636
11.40099999999912,1.5662521122174133,0.12448917692769508
11.60099999999901,1.5826337686760237,0.09297604828929003
11.800999999998899,1.6026236219978494,0.05448398410536886
12.000999999998788,1.6106829698437461,0.019988825958485792
12.200999999998677,1.6260306840179852,-0.010150040108177168
12.400999999998566,1.6598387059650093,-0.03872718885115725
12.600999999998455,1.677237971411708,-0.06611702386761527
12.800999999998345,1.6864222304229968,-0.100672792940767
13.000999999998234,1.6962318795547102,-0.13835698189789813
13.200999999998123,1.714353252439463,-0.17341002806500047
13.400999999998012,1.7274451889160236,-0.20653598755424682
13.600999999997901,1.7443373282045707,-0.24301562098070087
13.80099999999779,1.7561497011354106,-0.27506733967838254
14.00099999999768,1.7660535842830034,-0.30952378416175325
14.200999999997569,1.7751225475403165,-0.34923862460828053
14.400999999997458,1.7927175543731477,-0.3852453609094317
14.600999999997347,1.819523970872334,-0.41447481433519134
14.800999999997236,1.8206012561227478,-0.44088859388835755
15.000999999997125,1.8265215333119134,-0.46641256507114665
15.200999999997014,1.8395207536752107,-0.49612168667388135
15.400999999996904,1.8543001349246238,-0.5287356941426803
15.600999999996793,1.8642373692387146,-0.5590298573891044
15.800999999996682,1.8851086538102468,-0.5880706859590956
16.000999999996573,1.898485540745276,-0.6209401276013564
16.200999999996817,1.9247958777295335,-0.6500520217103982
16.40099999999706,1.944234961390603,-0.6744223564383762
16.600999999997306,1.9582316251903684,-0.7035357493228461
16.80099999999755,1.9836526747401884,-0.7308399948876944
17.000999999997795,2.0135917431019457,-0.7613174124629691
17.20099999999804,2.0405231092600506,-0.7897286583580682
17.400999999998284,2.075638125296463,-0.8125680767078284
17.60099999999853,2.1146893339352926,-0.8335821126014563
17.800999999998773,2.1456890444023613,-0.8580884426762185
18.000999999999017,2.1625285257356888,-0.8852386209218684
18.20099999999926,2.1850547685210104,-0.9111777039289096
18.400999999999506,2.2161377127109323,-0.934765031238769
18.60099999999975,2.2500271454386,-0.9595073314553322
18.799999999999994,2.2727572915903265,-0.9865456964963922
19.000000000000238,2.3002316811394485,-1.0151746205476855
19.200000000000482,2.340161890531465,-1.0409013613709508
19.400000000000727,2.3782153318749937,-1.0614626835594774
19.60000000000097,2.4087307062363656,-1.0773176844732604
19.800000000001216,2.4363256686841477,-1.098459959224607
20.00000000000146,2.4643097238241256,-1.1193300464958196
