Time (s),X (m),Y (m)
0.001,-0.0005090653149319316,-0.0007291460897812452
0.20000000000000015,0.002723160792853243,0.001143170574752855
0.4000000000000003,0.0050354729519934095,0.0016018474258425854
0.6000000000000004,0.006933963031254379,0.0013034843689205733
0.8000000000000006,0.010446509642349742,0.0023708082940923055
1.0000000000000007,0.017904575638684198,0.00538745883224858
1.2009999999999785,0.025806888224261068,0.009719991212396258
1.4009999999999565,0.03422767464441712,0.014476272656669125
1.6009999999999345,0.04223386959567738,0.01939163786629464
1.8009999999999124,0.05058474023486748,0.02516672241147678
2.0009999999998906,0.05844571493732244,0.030456676323460587
2.2009999999998686,0.06363167065795443,0.03368173539349574
2.4009999999998466,0.06652695974959569,0.03625088678702745
2.6009999999998246,0.06925202795246027,0.03927931641380004
2.8009999999998025,0.07168364950018605,0.04187244649730974
3.0009999999997805,0.07426360859544748,0.04384820864575567
3.2009999999997585,0.07676783136724129,0.04659045098486498
3.4009999999997365,0.0792714500538105,0.04873759549325438
3.6009999999997144,0.08134484009027178,0.05153235722412447
3.8009999999996924,0.08337734053152124,0.05381299752784109
4.000999999999671,0.08556563987927507,0.05613889462661903
4.200999999999738,0.087375630876039,0.05828465265016276
4.400999999999804,0.08895731783932521,0.06041614133983393
4.600999999999871,0.09063393285060103,0.06306519075626679
4.800999999999938,0.09206560648399868,0.06570216124764353
5.000000000000004,0.09298146130569807,0.06887057941331008
5.200000000000071,0.09369281925972667,0.07135693233308281
5.400000000000138,0.09422776955536528,0.07380256044530929
5.600000000000205,0.09481006969133482,0.07610377923095354
5.800000000000272,0.09506287194146443,0.07888932711187353
6.000000000000338,0.09542146641778693,0.0811036148945508
6.200000000000405,0.09544059479653191,0.08402937762997173
6.400000000000472,0.09564143163126662,0.0868065847021195
6.600000000000539,0.09688944420735918,0.08922064397906546
6.800000000000606,0.09671024482444283,0.09254027391762787
7.000000000000672,0.09674075962588728,0.09465442783353692
7.200000000000739,0.096245809241788,0.09776243193005066
7.400000000000806,0.09667339961122681,0.10001844615403031
7.600000000000873,0.09604388834942115,0.10335540998958431
7.8000000000009395,0.09618376265719776,0.10624819349062752
8.000000000001005,0.09583830455898494,0.10905516250717383
8.200000000000895,0.09467284128207845,0.11195742077640107
8.400000000000784,0.09340926881807468,0.11513526213154326
8.600000000000673,0.09220428769098125,0.11835969784918615
8.800000000000562,0.09139302956426369,0.1211748963057432
9.000000000000451,0.09030025567529719,0.12491926105940893
9.20000000000034,0.08886930275652816,0.12853813720684698
9.40000000000023,0.08864508828664787,0.13133347928027256
9.600000000000119,0.08726183591156893,0.1344672727730919
9.800000000000008,0.08533681894016158,0.1377892645322168
10.000999999999896,0.08367254909108932,0.1410109926212169
10.200999999999786,0.08193348212864417,0.1439631213589855
10.400999999999675,0.07971132308167317,0.14665955062358274
10.600999999999564,0.07749343910209822,0.149236148504703
10.800999999999453,0.07467794641304054,0.15281093799956488
11.000999999999342,0.0716313853326577,0.15583473782629392
11.200999999999231,0.06876629261395109,0.15838151560714536
11.40099999999912,0.06579756996771642,0.16142384255391712
11.60099999999901,0.06275761837245956,0.16392660904083095
11.800999999998899,0.0586291303588562,0.16745697119760822
12.000999999998788,0.056473346218463734,0.17008134663713467
12.200999999998677,0.05246473927845568,0.17312505802771522
12.400999999998566,0.049971634856754016,0.1756222794497171
12.600999999998455,0.04572424716234171,0.17897437972593985
12.800999999998345,0.04419685750759203,0.18049388464176572
13.000999999998234,0.04004836796914386,0.18319083286593285
13.200999999998123,0.03866206211351376,0.18476098014069972
13.400999999998012,0.034471248789398154,0.18801090788822297
13.600999999997901,0.03225568488509293,0.1906018914925989
13.80099999999779,0.02846507230515648,0.19258997883254017
14.00099999999768,0.025493030155455586,0.1940872425726639
14.200999999997569,0.022886191492911913,0.19499042783125128
14.400999999997458,0.019627963779628357,0.19592455744254025
14.600999999997347,0.016751326358027133,0.19679128974788332
14.800999999997236,0.013852108906177909,0.19787705390500934
15.000999999997125,0.012158599405601052,0.19895907092216233
15.200999999997014,0.007971402463933977,0.1995483908672083
15.400999999996904,0.0056888214330974044,0.20039035392909887
15.600999999996793,0.0027243243979838683,0.20092078025170002
15.800999999996682,0.0008065329768242193,0.2017903024236045
16.000999999996573,-0.0022577290988349884,0.20198408740459414
16.200999999996817,-0.003975231050944005,0.20288174079622434
16.40099999999706,-0.006342365374980238,0.20288893840931493
16.600999999997306,-0.008623410122759358,0.2032738154796303
16.80099999999755,-0.011193804234981133,0.2032914414228786
17.000999999997795,-0.014164777567450512,0.20343493111663713
17.20099999999804,-0.01669951983958185,0.2033579028052936
17.400999999998284,-0.019368503702246406,0.2036708882071886
17.60099999999853,-0.022002472833158464,0.20313282052581214
17.800999999998773,-0.02502654708904211,0.20239603124705197
18.000999999999017,-0.028261817658257714,0.20118813199145136
18.20099999999926,-0.03166325376043082,0.1995869220970046
18.400999999999506,-0.035051456310909064,0.19827838676240148
18.60099999999975,-0.03864480683271247,0.19683442402969034
18.799999999999994,-0.04204047069304221,0.19537769981487121
19.000000000000238,-0.04496286817752475,0.19360913522219744
19.200000000000482,-0.047622733843475255,0.19223196270032242
19.400000000000727,-0.05097650798685254,0.19054964072202513
19.60000000000097,-0.054002797865569475,0.18881518185604187
19.800000000001216,-0.05744179661085008,0.18641832201752379
20.00000000000146,-0.060368492301023265,0.1835363173492157
