Time (s),X (m),Y (m)
0.001,-4.680521708071185e-05,-0.0009960320817112695
0.20000000000000015,0.0020874090510964315,-0.0002643460464099798
0.4000000000000003,0.008993482005934035,-0.011719535143305563
0.6000000000000004,0.02728336465237358,-0.015804524090295858
0.8000000000000006,0.059011237560469755,-0.016615957433140514
1.0000000000000007,0.09747960845867051,-0.026423008177874956
1.2009999999999785,0.13188921118860347,-0.04854870572134652
1.4009999999999565,0.16109371300618647,-0.076583583923768
1.6009999999999345,0.19389097237914305,-0.11920883718108598
1.8009999999999124,0.20393641139795843,-0.16447713021683663
2.0009999999998906,0.20825789782101442,-0.20091288959246664
2.2009999999998686,0.20866923543803306,-0.24430291146173028
2.4009999999998466,0.19479853555300966,-0.2868732804428136
2.6009999999998246,0.17293077055089695,-0.3136665168276612
2.8009999999998025,0.1325582596488025,-0.33832273867138973
3.0009999999997805,0.08393609980990249,-0.38832106027099805
3.2009999999997585,0.03853721250091802,-0.41572402940337994
3.4009999999997365,-0.01197731208694017,-0.4344124774692965
3.6009999999997144,-0.07006313927578652,-0.45474741693611453
3.8009999999996924,-0.12623572852036863,-0.46536611274877177
4.000999999999671,-0.19180043326852628,-0.4638244487606105
4.200999999999738,-0.2478417914983409,-0.44280356229364465
4.400999999999804,-0.28382163127919624,-0.41002952465776993
4.600999999999871,-0.3176320459591804,-0.3617658202783835
4.800999999999938,-0.3286500327000371,-0.31362548484872593
5.000000000000004,-0.34154977952208626,-0.2644289442938922
5.200000000000071,-0.34825671395485686,-0.2129993877494238
5.400000000000138,-0.3471058165519067,-0.15093465523237629
5.600000000000205,-0.3397122877709419,-0.07264639676676096
5.800000000000272,-0.3220383366023299,0.0031125195731527794
6.000000000000338,-0.2948719600758063,0.06894856582726601
6.200000000000405,-0.26239000323387135,0.1297567557845745
6.400000000000472,-0.22350147440292556,0.19500454653515817
6.600000000000539,-0.17393094762483105,0.23407719971026128
6.800000000000606,-0.11416939889911612,0.2629281154177362
7.000000000000672,-0.04498608588085142,0.2871339846634164
7.200000000000739,0.021077852803076145,0.29789364836790333
7.400000000000806,0.08647507321384523,0.2941783664419057
7.600000000000873,0.15576251166644395,0.2849991961848343
7.8000000000009395,0.21874506478614203,0.26133695024852477
8.000000000001005,0.27652980743007705,0.23768562182095906
8.200000000000895,0.3420135508220485,0.20163484973804266
8.400000000000784,0.39306111868714994,0.14567615030724426
8.600000000000673,0.4292036659815258,0.07863611277994091
8.800000000000562,0.4728674877527847,0.0025070402801607473
9.000000000000451,0.4967851055206172,-0.06589334431406814
9.20000000000034,0.5239321363600654,-0.1431909038438829
9.40000000000023,0.5517760394849278,-0.23689163207316968
9.600000000000119,0.5631754068930261,-0.3070421000703417
9.800000000000008,0.5494460592751866,-0.33812966204380196
10.000999999999896,0.5084845623524865,-0.36241899070485784
10.200999999999786,0.44592170453018337,-0.3758477748427485
10.400999999999675,0.38138400609038986,-0.37829371112513965
10.600999999999564,0.3283596730944836,-0.3635654456460129
10.800999999999453,0.2956074424000534,-0.3340794816054019
11.000999999999342,0.26784457922935373,-0.28896231898302005
11.200999999999231,0.23825551623372923,-0.23455293431203816
11.40099999999912,0.21419506741835756,-0.16873334496705714
11.60099999999901,0.1891023019049356,-0.08887048742589293
11.800999999998899,0.16945906076562864,-0.00465149673475522
12.000999999998788,0.15566518023733886,0.0838149834536295
12.200999999998677,0.1486414775630781,0.16197417843455353
12.400999999998566,0.15301449888117843,0.2293123757472453
12.600999999998455,0.18176650904032002,0.28396637260685587
12.800999999998345,0.22986706202597817,0.32250006532002534
13.000999999998234,0.2868655010556631,0.3460896503375887
13.200999999998123,0.34824834725722237,0.35996213149769635
13.400999999998012,0.40841856916622765,0.3584258176247293
13.600999999997901,0.46746962870343844,0.34870673608873204
13.80099999999779,0.5094434098323286,0.31806868765298574
14.00099999999768,0.5446637338884645,0.27289566304812934
14.200999999997569,0.5705177999211918,0.2158300741116785
14.400999999997458,0.6018989213116476,0.14825773384141466
14.600999999997347,0.6228271320259163,0.0816327515823268
14.800999999997236,0.6334942533058077,0.004423066644976637
15.000999999997125,0.6333325222169687,-0.06374817495576175
15.200999999997014,0.6390114318895751,-0.1357745602403743
15.400999999996904,0.635589980192684,-0.20048909105812898
15.600999999996793,0.6242459117465712,-0.2756889157203553
15.800999999996682,0.6002713037678553,-0.34533149159991994
16.000999999996573,0.5737174860965494,-0.4161417937940466
16.200999999996817,0.5464174382141753,-0.47303608160799504
16.40099999999706,0.5105345909400928,-0.5325184112871278
16.600999999997306,0.47143177741015885,-0.5867017090627232
16.80099999999755,0.42493952570369814,-0.6279131539103635
17.000999999997795,0.36864164363310803,-0.6598403820744114
17.20099999999804,0.3050654849623783,-0.6878854531016431
17.400999999998284,0.23900418406014715,-0.7096392378896738
17.60099999999853,0.16597414263147475,-0.7437617812116105
17.800999999998773,0.07996016571741826,-0.772732341931287
18.000999999999017,0.002084906989159841,-0.7812129727354438
18.20099999999926,-0.05583521564846838,-0.7669933834557459
18.400999999999506,-0.09689260699401077,-0.7305872890064014
18.60099999999975,-0.1303480910346576,-0.6770656243128026
18.799999999999994,-0.16611478546904812,-0.6161868169307342
19.000000000000238,-0.1854270766675239,-0.5559479740010811
19.200000000000482,-0.20394412584050448,-0.4885730403081266
19.400000000000727,-0.24243462111768097,-0.4177147470940032
19.60000000000097,-0.2932112696908614,-0.34243381739083084
19.800000000001216,-0.3319908900927827,-0.2583841142322564
20.00000000000146,-0.3627052232831146,-0.17404516381695262
