Time (s),X (m),Y (m)
0.001,4.1020280575708355e-05,0.0010155025257856582
0.20000000000000015,0.002315060636169028,0.0013252239265014556
0.4000000000000003,0.0037527107264109937,0.0005499445567612756
0.6000000000000004,0.005074779140221196,0.0008065210250276784
0.8000000000000006,0.009897980453316833,-0.0028878241754343495
1.0000000000000007,0.014020395260730298,-0.0023412459051405017
1.2009999999999785,0.014169769563779152,0.004689062202986428
1.4009999999999565,0.018063350019710257,-0.000239364172410789
1.6009999999999345,0.021351640279489315,0.004588205165927181
1.8009999999999124,0.022916242359111817,0.01259017893330954
2.0009999999998906,0.024192337613936625,0.018961251802690777
2.2009999999998686,0.025580701628776802,0.027233428820496
2.4009999999998466,0.026985065387043292,0.02195350654542694
2.6009999999998246,0.033156884396785755,0.02227391867264057
2.8009999999998025,0.03604976811604822,0.03112379126448652
3.0009999999997805,0.0398906844339585,0.03467384516386446
3.2009999999997585,0.04430436817942067,0.04346766516956712
3.4009999999997365,0.047340436745714504,0.04934719899853648
3.6009999999997144,0.050479229892985554,0.038752326486399924
3.8009999999996924,0.054008911906763095,0.04577132408546242
4.000999999999671,0.058000474468959284,0.04703361803102484
4.200999999999738,0.06133534999461022,0.03187819226769422
4.400999999999804,0.06483772644901663,0.03290154068227574
4.600999999999871,0.06751408404472313,0.03844914979886625
4.800999999999938,0.07034074551544138,0.02420442280396048
5.000000000000004,0.07511815093996312,0.03295124052421048
5.200000000000071,0.07969350981136628,0.04269501240578286
5.400000000000138,0.08630458812781956,0.05331421278369996
5.600000000000205,0.08927400477840385,0.05847906350595882
5.800000000000272,0.09080271740674892,0.049902787487566554
6.000000000000338,0.09469152790956553,0.05234226852794846
6.200000000000405,0.10000965737984603,0.054203455655567216
6.400000000000472,0.10678328316247769,0.056793325437300486
6.600000000000539,0.113160410660416,0.06422194818611486
6.800000000000606,0.11773228603944687,0.0635556060964202
7.000000000000672,0.12285986046943537,0.057363850097651464
7.200000000000739,0.12865917000349272,0.0549887624137222
7.400000000000806,0.13581156588972682,0.06404136120102852
7.600000000000873,0.14258593738623293,0.07456030057982352
7.8000000000009395,0.14895344749280365,0.08125402163476321
8.000000000001005,0.151005339503022,0.0687438001283604
8.200000000000895,0.15617773862225617,0.06553552323485207
8.400000000000784,0.16327282534075885,0.07373867264678197
8.600000000000673,0.17100946042094514,0.08316147369726708
8.800000000000562,0.17513705388360915,0.08420833073021315
9.000000000000451,0.17853222301446825,0.08779666727207293
9.20000000000034,0.17994525891712326,0.07690376915668486
9.40000000000023,0.18476563361886986,0.08012647144867274
9.600000000000119,0.18745812415647925,0.07671291271739866
9.800000000000008,0.18966640253191988,0.06997067764565608
10.000999999999896,0.19242476216216253,0.0617612971772831
10.200999999999786,0.19990090876443575,0.06901333455152263
10.400999999999675,0.20418212328805627,0.07249329700044443
10.600999999999564,0.21003656585638336,0.07797110800112556
10.800999999999453,0.21648235280113257,0.07770792077183965
11.000999999999342,0.22328321938288004,0.08630484414435305
11.200999999999231,0.22972354692644087,0.09315070030095973
11.40099999999912,0.23666316001748783,0.09971733294322971
11.60099999999901,0.24468780295767378,0.1055941700334947
11.800999999998899,0.251387432738843,0.11313999662466076
12.000999999998788,0.2539115222288335,0.10710254995541052
12.200999999998677,0.2582056641398897,0.102747054627322
12.400999999998566,0.2661226403461839,0.11127025236599002
12.600999999998455,0.27500524236031093,0.11785090245944659
12.800999999998345,0.2794857312123227,0.11944996694656454
13.000999999998234,0.2847964992420107,0.12216726655255473
13.200999999998123,0.290019187875106,0.1211187849480525
13.400999999998012,0.29046293497049885,0.11190258570879832
13.600999999997901,0.2925694382616651,0.10870232105624097
13.80099999999779,0.2994772842092224,0.1167960033857753
14.00099999999768,0.30438843533259957,0.11699545368198619
14.200999999997569,0.3065463696747677,0.10729035795080084
14.400999999997458,0.3137240280619556,0.1101961416958933
14.600999999997347,0.3212359296823293,0.11535163856727472
14.800999999997236,0.3241539179672973,0.1141551414284126
15.000999999997125,0.3297428515803251,0.11873337090248776
15.200999999997014,0.32922327985936234,0.10266661885632235
15.400999999996904,0.336861310784688,0.10557708835153132
15.600999999996793,0.33894465890006026,0.1037098365845879
15.800999999996682,0.34400521675026996,0.10716859851003877
16.000999999996573,0.34328503153723194,0.09716959850731989
16.200999999996817,0.34954959524116735,0.10300568331950048
16.40099999999706,0.3484487427256276,0.08628162546048651
16.600999999997306,0.3534235255016707,0.08483650079650691
16.80099999999755,0.3603018157493296,0.09044529788845576
17.000999999997795,0.36117694361791597,0.07929852368761915
17.20099999999804,0.3623921525714914,0.07116138500336384
17.400999999998284,0.36857252398083123,0.07525371686083192
17.60099999999853,0.369800755293948,0.06812310614437392
17.800999999998773,0.37066548497366414,0.05330541637725074
18.000999999999017,0.3770083473554343,0.05208720470162197
18.20099999999926,0.3771507519880094,0.047555226669872254
18.400999999999506,0.3814920512911837,0.044390896251873944
18.60099999999975,0.38921099727653563,0.05112999388794696
18.799999999999994,0.39504538550256324,0.056909934380029684
19.000000000000238,0.39338153523908304,0.042046217980431844
19.200000000000482,0.3992341814758037,0.03961603873114546
19.400000000000727,0.4016358961887063,0.037706166787159344
19.60000000000097,0.3993499041773429,0.02661424767016771
19.800000000001216,0.40451710488655634,0.024687569334566443
20.00000000000146,0.4114478081622593,0.029465424451907824
