Time (s),X (m),Y (m)
0.001,0.0005727611008870025,0.0009689812320744445
0.20000000000000015,0.0027557594501793265,-0.0008869643707403141
0.4000000000000003,0.018911536374218232,0.007028349050770669
0.6000000000000004,0.0455842783205035,0.019453752754307902
0.8000000000000006,0.07034690690683781,0.033827202899259765
1.0000000000000007,0.09930657025066572,0.041718183298220156
1.2009999999999785,0.12613999822975097,0.03384389984041987
1.4009999999999565,0.17744852993877475,0.02629050241019048
1.6009999999999345,0.2083224698246272,0.008444969741698722
1.8009999999999124,0.22279474792912946,-0.020629802482894668
2.0009999999998906,0.25850823090308533,-0.05462054179793721
2.2009999999998686,0.293320495051472,-0.08702007679361573
2.4009999999998466,0.32685080007513173,-0.12768640424563918
2.6009999999998246,0.3482478465489726,-0.1718791815562336
2.8009999999998025,0.3756360111041894,-0.21777862559160344
3.0009999999997805,0.4051988715227022,-0.2830115831374949
3.2009999999997585,0.436886683043769,-0.3571067953945618
3.4009999999997365,0.46393623413508717,-0.42513682670000214
3.6009999999997144,0.48934838655073737,-0.48659411438129235
3.8009999999996924,0.5103253861228435,-0.5514933694374946
4.000999999999671,0.5232638016024558,-0.624122956644349
4.200999999999738,0.5131600723293961,-0.6877447258088882
4.400999999999804,0.4851183680811473,-0.7279766227505969
4.600999999999871,0.4452641007605983,-0.7608682851155285
4.800999999999938,0.3943122138619573,-0.7845592482229314
5.000000000000004,0.3501198927055911,-0.7961927369797281
5.200000000000071,0.30584963537410603,-0.7916031062317169
5.400000000000138,0.2629327632124537,-0.7727995368670371
5.600000000000205,0.24282185291392944,-0.7355891624400556
5.800000000000272,0.2256347760668022,-0.6856486235706868
6.000000000000338,0.20691750233382278,-0.6294770462655783
6.200000000000405,0.18862751851920598,-0.5688663308081394
6.400000000000472,0.1602158238395724,-0.5008584504012146
6.600000000000539,0.13826974483620946,-0.42856067753858856
6.800000000000606,0.12863242038330297,-0.3648798279832422
7.000000000000672,0.12151560667181803,-0.30816443072855304
7.200000000000739,0.11919340646251399,-0.24695213668959137
7.400000000000806,0.13835753142444068,-0.18245110512425186
7.600000000000873,0.16755624649367165,-0.12302121250633366
7.8000000000009395,0.19379412793603906,-0.05099968429895812
8.000000000001005,0.2141746305981185,0.011526551833446365
8.200000000000895,0.24069824873728363,0.06886119457813267
8.400000000000784,0.28496395642290895,0.10413057649729425
8.600000000000673,0.3406050792642244,0.12139920633004196
8.800000000000562,0.39712239801627613,0.13299985046140309
9.000000000000451,0.45353265577810786,0.14197776848215243
9.20000000000034,0.5204845039990489,0.13954287231901363
9.40000000000023,0.5877721431777656,0.12025706987578078
9.600000000000119,0.6535084375818326,0.09405465533178034
9.800000000000008,0.7068530696816212,0.06952011873812086
10.000999999999896,0.7628237658569926,0.03526043048073856
10.200999999999786,0.8138393323044623,0.0006211566881394326
10.400999999999675,0.858123746973834,-0.04035000856752261
10.600999999999564,0.8900319555223798,-0.0852829174982988
10.800999999999453,0.9173104306475263,-0.140448603163194
11.000999999999342,0.9390031910227167,-0.20080765751952587
11.200999999999231,0.9648371962837407,-0.27628309939005957
11.40099999999912,1.005717373002477,-0.3610073230981247
11.60099999999901,1.0456322280649109,-0.4564085512091791
11.800999999998899,1.0989112034949602,-0.5506222705872347
12.000999999998788,1.1603533232289311,-0.6404735993006904
12.200999999998677,1.2320881890977826,-0.7271128292525075
12.400999999998566,1.2941053740740336,-0.8104953849115624
12.600999999998455,1.3473527959618776,-0.8958602930717283
12.800999999998345,1.3900450042211934,-0.9852676358025707
13.000999999998234,1.4372118203360476,-1.0863922219467173
13.200999999998123,1.4736811715318603,-1.185357504745881
13.400999999998012,1.4971993378083708,-1.2726961361392524
13.600999999997901,1.5030650204907732,-1.3549622962784194
13.80099999999779,1.507129481606267,-1.4235419258000714
14.00099999999768,1.5147224471792198,-1.4955272049586006
14.200999999997569,1.5035413163746574,-1.5460482984705335
14.400999999997458,1.4696020347776724,-1.587350475323027
14.600999999997347,1.427202314242767,-1.6282205270861538
14.800999999997236,1.3736845907087427,-1.6625720519577099
15.000999999997125,1.313350877232702,-1.695116896029057
15.200999999997014,1.238576383172231,-1.7402434459167784
15.400999999996904,1.1592046400045033,-1.7922223156221908
15.600999999996793,1.0921793829928912,-1.8346171288415747
15.800999999996682,1.0343211102345669,-1.8931081879427099
16.000999999996573,0.9919411466550853,-1.9650855642103577
16.200999999996817,0.9692357674260835,-2.0483801489900535
16.40099999999706,0.9530615459909302,-2.1188352436277547
16.600999999997306,0.9187686245913712,-2.1675737047130372
16.80099999999755,0.8702869242785238,-2.221321704265974
17.000999999997795,0.8156946745912386,-2.260881479132539
17.20099999999804,0.7493085045661664,-2.2956281538531846
17.400999999998284,0.6667804114362565,-2.322514445432988
17.60099999999853,0.5876323781675717,-2.336725396634815
17.800999999998773,0.512592605649153,-2.3447282206053752
18.000999999999017,0.4394353445347735,-2.3366822942876913
18.20099999999926,0.36790382004025757,-2.3244562737891763
18.400999999999506,0.29942218028347345,-2.312774243982419
18.60099999999975,0.22439409407098734,-2.3039739697245727
18.799999999999994,0.12616368068644104,-2.29417342113224
19.000000000000238,0.027341826893616215,-2.285044338001523
19.200000000000482,-0.05941841009272059,-2.26917832218566
19.400000000000727,-0.15210916846600112,-2.2470758458954765
19.60000000000097,-0.23654775294068023,-2.2201003522989566
19.800000000001216,-0.29309949883556263,-2.181667798226812
20.00000000000146,-0.3352592640645144,-2.125024619870692
