Time (s),X (m),Y (m)
0.001,-4.680521708071185e-05,-0.0009960320817112695
0.20000000000000015,-0.0005950078044868637,-0.0038190538213550376
0.4000000000000003,0.00036132638920541847,-0.005378457914159044
0.6000000000000004,0.0020489438986322855,-0.004881751529444639
0.8000000000000006,0.005939572494384428,0.00473522657467082
1.0000000000000007,0.01056829647737188,0.00286032744219314
1.2009999999999785,0.014863173145516316,0.0031798530273812417
1.4009999999999565,0.020057685598027272,0.0064392902597297215
1.6009999999999345,0.024290920172044376,0.010842445199920355
1.8009999999999124,0.030158582088629635,0.013082355395042426
2.0009999999998906,0.034278696470650884,0.013781391946710705
2.2009999999998686,0.037251031689491385,0.013711646080044153
2.4009999999998466,0.040318673259255144,0.01650651370727155
2.6009999999998246,0.045012184019687256,0.019611802529080343
2.8009999999998025,0.0506945537350946,0.019817203602709898
3.0009999999997805,0.05498272116764497,0.021272633828126525
3.2009999999997585,0.05917389237751435,0.024699939995348027
3.4009999999997365,0.062413549771034846,0.0267654777875446
3.6009999999997144,0.06743720532648184,0.02683466821677758
3.8009999999996924,0.06950495161143118,0.03103249239782401
4.000999999999671,0.07298321499491622,0.03130569249722353
4.200999999999738,0.07840322745373603,0.0329684429041041
4.400999999999804,0.0832118156927401,0.03627627196749931
4.600999999999871,0.0868666698755114,0.03900677873380336
4.800999999999938,0.08975709469986841,0.04087748471871936
5.000000000000004,0.09285901113348041,0.045872156223722
5.200000000000071,0.09428369748632927,0.05174367280910978
5.400000000000138,0.09617354216851072,0.05500448883698494
5.600000000000205,0.0983445073438961,0.05971493191385271
5.800000000000272,0.10117373798369768,0.06021089671146355
6.000000000000338,0.10454318269394046,0.06267795014304246
6.200000000000405,0.10559483045501955,0.06671699617816891
6.400000000000472,0.1072803029954692,0.07172849917235971
6.600000000000539,0.10962086990526039,0.07612484820767532
6.800000000000606,0.11153221863569548,0.08267505779122888
7.000000000000672,0.11297478465689732,0.09049496478466085
7.200000000000739,0.11709898612921722,0.09482937004324889
7.400000000000806,0.11545101799727112,0.10047773354192212
7.600000000000873,0.11656114546910849,0.10639600409297564
7.8000000000009395,0.11820534997210039,0.11050965090983231
8.000000000001005,0.11948754187127712,0.11626005856608194
8.200000000000895,0.11956526898708957,0.12209066567105266
8.400000000000784,0.11815888115578928,0.1293118074287631
8.600000000000673,0.12091340783660333,0.13532533958797588
8.800000000000562,0.12136212791899317,0.14058062889083012
9.000000000000451,0.11982906134049592,0.1459194720183415
9.20000000000034,0.12203568800130589,0.15227464968548995
9.40000000000023,0.12195985837583151,0.15876265704544618
9.600000000000119,0.11873053527425745,0.1654123445069019
9.800000000000008,0.11876927829019332,0.17279158935887207
10.000999999999896,0.1128132187229162,0.17808402230036924
10.200999999999786,0.11252153330213155,0.1843816609333349
10.400999999999675,0.10951422875843683,0.18962190137486562
10.600999999999564,0.11036904003572033,0.1948670573950679
10.800999999999453,0.10786319610162914,0.20054927730742778
11.000999999999342,0.10439695669935424,0.20582674581045135
11.200999999999231,0.10005704842880647,0.21006779278848725
11.40099999999912,0.09900872842325835,0.21533362734723333
11.60099999999901,0.09759191599024229,0.2220388589190251
11.800999999998899,0.09630977728738536,0.22704858093736516
12.000999999998788,0.0927384096919523,0.23034253500004626
12.200999999998677,0.08876870982219408,0.2344259930754128
12.400999999998566,0.08447216483410543,0.23843203675487415
12.600999999998455,0.08003531430370522,0.2421226069253814
12.800999999998345,0.07667507804071001,0.2444629428002162
13.000999999998234,0.07461509643543458,0.24720411873353046
13.200999999998123,0.07039758532652515,0.25094478539293064
13.400999999998012,0.06741278083077473,0.2551191112242514
13.600999999997901,0.06312831670283565,0.25932904366042514
13.80099999999779,0.06082420710298013,0.2636986769361977
14.00099999999768,0.055707569499026145,0.26713909937683933
14.200999999997569,0.051257485596215305,0.2685560365477772
14.400999999997458,0.051872252650668485,0.2755605160809787
14.600999999997347,0.04635473319895201,0.280159881670555
14.800999999997236,0.037143425756257675,0.2816244235359861
15.000999999997125,0.03198870244625598,0.28241729934180243
15.200999999997014,0.029547398991033872,0.28484855170462275
15.400999999996904,0.02711599197072103,0.2872465973807131
15.600999999996793,0.026164150240460305,0.2925355149721186
15.800999999996682,0.021283781505565792,0.29501648389075563
16.000999999996573,0.01779434282161968,0.29701822848079745
16.200999999996817,0.012377009537080702,0.2975081539221755
16.40099999999706,0.00725260739295544,0.3000705524143611
16.600999999997306,0.001155905017556755,0.2990866672988271
16.80099999999755,-0.005043536916414483,0.2991985851339842
17.000999999997795,-0.010102938263267535,0.2999149345607732
17.20099999999804,-0.014751905268706473,0.3027585527389898
17.400999999998284,-0.019242552848382465,0.304932430136159
17.60099999999853,-0.025135543495018436,0.30758101193913784
17.800999999998773,-0.0307811860158182,0.30604810620699374
18.000999999999017,-0.03665146774022042,0.30808594785531
18.20099999999926,-0.04291870291684644,0.30524605458774584
18.400999999999506,-0.04866554586931774,0.3043675770686973
18.60099999999975,-0.05484564656539847,0.3031647911108987
18.799999999999994,-0.061298211084410484,0.3041093804742891
19.000000000000238,-0.06727340702014149,0.3021562104256309
19.200000000000482,-0.0742206225785407,0.29910962637582067
19.400000000000727,-0.07994911395058384,0.29906699508559714
19.60000000000097,-0.08497823303159611,0.29684775227045085
19.800000000001216,-0.09031568564207434,0.29840376195366075
20.00000000000146,-0.0952908474476458,0.30028417124151097
