Time (s),X (m),Y (m)
0.001,-0.0007759513068619564,0.00026688599193002506
0.20000000000000015,0.002359852526008385,-0.0009488397417265395
0.4000000000000003,0.004999189220901524,0.001412246026729337
0.6000000000000004,0.011217660764577345,0.009546785340508632
0.8000000000000006,0.01975609294678954,0.013143662075926267
1.0000000000000007,0.035861476382890146,0.009423522038471127
1.2009999999999785,0.043161998325407305,0.015906620356862744
1.4009999999999565,0.0639199472947103,0.011793488584612469
1.6009999999999345,0.09568781671005414,0.002021579335599809
1.8009999999999124,0.13356522144775151,-0.017576436872779964
2.0009999999998906,0.15992221763596665,-0.03905867329587758
2.2009999999998686,0.1902490782265008,-0.07187226473755313
2.4009999999998466,0.22177988540450783,-0.0834442313639165
2.6009999999998246,0.26993277923668196,-0.1078732111226372
2.8009999999998025,0.31765567506412884,-0.14065425166434356
3.0009999999997805,0.3641552174682346,-0.16669470745118953
3.2009999999997585,0.4146651022049514,-0.19110249060433238
3.4009999999997365,0.4613277218286798,-0.2149690648119957
3.6009999999997144,0.4988547162706637,-0.23619073641083846
3.8009999999996924,0.5403371517643896,-0.260486023929833
4.000999999999671,0.5783850205946393,-0.27797478740618975
4.200999999999738,0.6069052233538575,-0.29928390042347214
4.400999999999804,0.6157932525219422,-0.3414204616842665
4.600999999999871,0.6053729136111908,-0.39018325177241625
4.800999999999938,0.5764532700082403,-0.44630693517432607
5.000000000000004,0.5484554973499248,-0.5008510950749644
5.200000000000071,0.5156986330864772,-0.5589234445217078
5.400000000000138,0.4877989414769722,-0.6093517644806743
5.600000000000205,0.4530858352315356,-0.6333984329312001
5.800000000000272,0.40743623453908534,-0.6348701181750358
6.000000000000338,0.352224059986603,-0.624214374397234
6.200000000000405,0.2978989273754084,-0.6052303644382303
6.400000000000472,0.24236895387667495,-0.5676931857022737
6.600000000000539,0.19031618085716917,-0.5241345401361368
6.800000000000606,0.1514710341159646,-0.48459492570246315
7.000000000000672,0.13342401420090116,-0.44423097260197625
7.200000000000739,0.1345458551475803,-0.38956196712412433
7.400000000000806,0.1470991912925012,-0.33535526827283785
7.600000000000873,0.17425495136432265,-0.2841907183198256
7.8000000000009395,0.20346742908644805,-0.2489766991156873
8.000000000001005,0.2423610549829859,-0.23598985324576927
8.200000000000895,0.301732351714025,-0.2429826709227123
8.400000000000784,0.3651541922727388,-0.2644288828339501
8.600000000000673,0.42381239712586216,-0.2874653258349983
8.800000000000562,0.4872548478948617,-0.32208727825160466
9.000000000000451,0.5433972717052887,-0.3598287788112684
9.20000000000034,0.5721264530503897,-0.41687311236249497
9.40000000000023,0.5804709062355002,-0.46690782774045264
9.600000000000119,0.5766864339934382,-0.4999865075652896
9.800000000000008,0.5705940044607841,-0.5298449558767703
10.000999999999896,0.5582019807004485,-0.5532639789709154
10.200999999999786,0.5520064204502128,-0.586366112820705
10.400999999999675,0.5326343707807804,-0.6394255753415559
10.600999999999564,0.512806332106928,-0.7016026363196686
10.800999999999453,0.4845596072831709,-0.7728553421102031
11.000999999999342,0.44801601516706785,-0.8400381187335796
11.200999999999231,0.41767879092160365,-0.8849682577675004
11.40099999999912,0.3814953790788756,-0.9037637182446605
11.60099999999901,0.3453210396912835,-0.8838817137307706
11.800999999998899,0.3224686949603022,-0.8533752699405207
12.000999999998788,0.3171385614963409,-0.8062493531580626
12.200999999998677,0.32493585463629965,-0.752024998852354
12.400999999998566,0.33879303493173,-0.6972247101509464
12.600999999998455,0.35462655116582603,-0.6445049407919599
12.800999999998345,0.3775641404267314,-0.588054204024427
13.000999999998234,0.41675750942671924,-0.5327587204258311
13.200999999998123,0.4683065335718295,-0.4920233171512065
13.400999999998012,0.5268840810722558,-0.47396286458182724
13.600999999997901,0.5795784053916163,-0.470960391948101
13.80099999999779,0.634877772295271,-0.4840991206851621
14.00099999999768,0.6847245889013304,-0.510713510317306
14.200999999997569,0.7175054153569287,-0.5328583298527285
14.400999999997458,0.7293734951205934,-0.5808089709158921
14.600999999997347,0.7298881611180011,-0.6425933012977636
14.800999999997236,0.7227398891253135,-0.7048606496047508
15.000999999997125,0.7064647649929976,-0.7627466934690367
15.200999999997014,0.6712940358001553,-0.823672046643023
15.400999999996904,0.6371721601573265,-0.8687613863336929
15.600999999996793,0.5816150090937228,-0.885783131857044
15.800999999996682,0.5269630407601062,-0.8858453503143514
16.000999999996573,0.4672830077572827,-0.875570392032897
16.200999999996817,0.4052212708472113,-0.8587743126112226
16.40099999999706,0.33901313277154266,-0.8346292672388114
16.600999999997306,0.27403721660328106,-0.8045991684937371
16.80099999999755,0.21389964570187128,-0.771879895798743
17.000999999997795,0.16778803371795742,-0.7290692984798719
17.20099999999804,0.14256860374560004,-0.6796846528334439
17.400999999998284,0.13629320816484458,-0.62886259201912
17.60099999999853,0.14852364586007766,-0.5755357786361005
17.800999999998773,0.16828654914282165,-0.5391009577075391
18.000999999999017,0.20012312523719025,-0.5282364689595077
18.20099999999926,0.24205320151885298,-0.5310362887505709
18.400999999999506,0.29651856336728516,-0.542412487811929
18.60099999999975,0.3509787964733895,-0.556976412550952
18.799999999999994,0.41228162574161725,-0.5747890586783494
19.000000000000238,0.47772661840273595,-0.6010892959918668
19.200000000000482,0.540355203687504,-0.6454412052166009
19.400000000000727,0.5996927365251871,-0.6803353883749996
19.60000000000097,0.6413810272734836,-0.7139208644079095
19.800000000001216,0.66200787133454,-0.7674102541812212
20.00000000000146,0.6650324995293906,-0.8259963809021622
