Time (s),X (m),Y (m)
0.001,-4.680521708071185e-05,-0.0009960320817112695
0.20000000000000015,-0.00043271148516713245,-0.004535549731451224
0.4000000000000003,0.003978686975427831,-9.690765846817223e-05
0.6000000000000004,0.008922052816573113,0.00949120082964986
0.8000000000000006,0.015630979170467164,0.011398375435902518
1.0000000000000007,0.021726028821350853,0.017691061403834876
1.2009999999999785,0.029889355224075452,0.018760573377905532
1.4009999999999565,0.040204210241665636,0.018588519107689397
1.6009999999999345,0.04874120964674921,0.02108308179980521
1.8009999999999124,0.058394011078356005,0.01768941701938693
2.0009999999998906,0.06587676019349094,0.01770572151743225
2.2009999999998686,0.07693189398134266,0.020365559801225626
2.4009999999998466,0.0884670713651814,0.02366676428482632
2.6009999999998246,0.09394776373918554,0.02757666261582105
2.8009999999998025,0.10312784562641479,0.02733998916355932
3.0009999999997805,0.11183754424362638,0.029013780245719482
3.2009999999997585,0.12139240656709377,0.03491374337431905
3.4009999999997365,0.1320174423104692,0.038572853651821344
3.6009999999997144,0.14275057793486476,0.03452296032100196
3.8009999999996924,0.1498709441023557,0.03750547569035183
4.000999999999671,0.16332952777436877,0.042618858979263624
4.200999999999738,0.17600442896525054,0.052273770720742053
4.400999999999804,0.18646009944769193,0.05053943627354429
4.600999999999871,0.19697285502621345,0.05590424500665508
4.800999999999938,0.2054404569671618,0.057874592996526704
5.000000000000004,0.21329278306855473,0.054275136903624864
5.200000000000071,0.2193954497515246,0.05460391291240468
5.400000000000138,0.22592064858470615,0.05708332845029817
5.600000000000205,0.23676497005479466,0.0685558176696954
5.800000000000272,0.2469020554894413,0.06614522745063561
6.000000000000338,0.25510029874996554,0.06977417860702714
6.200000000000405,0.26478050238831197,0.08109953367871232
6.400000000000472,0.2773151373132082,0.08368026048557665
6.600000000000539,0.2875579216881435,0.08685432595538117
6.800000000000606,0.29151818092402043,0.08667388366962613
7.000000000000672,0.30103283951315374,0.09192104889700442
7.200000000000739,0.3097359727644895,0.09966666018886595
7.400000000000806,0.32286398786779474,0.10866466335007259
7.600000000000873,0.33545935860403,0.11148507834226933
7.8000000000009395,0.34567292394287413,0.11746314272177374
8.000000000001005,0.35665736506772533,0.12359486445321698
8.200000000000895,0.36485909000380307,0.12522642994015876
8.400000000000784,0.3723838069669983,0.1275834333371407
8.600000000000673,0.3806133371972309,0.1336540217600575
8.800000000000562,0.39311944101943563,0.13748898955254474
9.000000000000451,0.39950124974708684,0.1372604184902669
9.20000000000034,0.4082865742231917,0.14241221412500213
9.40000000000023,0.42042400921666473,0.15303026215084783
9.600000000000119,0.4311951724195683,0.15640889413359818
9.800000000000008,0.44158370868057195,0.16206846061406588
10.000999999999896,0.452844879702097,0.16597737526204653
10.200999999999786,0.4661348201083286,0.17724395303912788
10.400999999999675,0.4752437830995275,0.18233961450649064
10.600999999999564,0.4877313719538649,0.19323730538073713
10.800999999999453,0.5004017558198715,0.201269105340262
11.000999999999342,0.5109199478488423,0.20820906621475246
11.200999999999231,0.5236478047426847,0.21212808567341276
11.40099999999912,0.5342636857498642,0.21512700094010961
11.60099999999901,0.5441384964353396,0.2189305679345841
11.800999999998899,0.5537790094302035,0.22190213525512917
12.000999999998788,0.5635426942647804,0.22685473553890068
12.200999999998677,0.5745831801220678,0.23193351746468327
12.400999999998566,0.580318408893409,0.2332485385968837
12.600999999998455,0.5906470826884304,0.2393075958954424
12.800999999998345,0.5989911475692555,0.24812309000525426
13.000999999998234,0.6049359882243351,0.25863610561695705
13.200999999998123,0.6136402597092385,0.26451790315527424
13.400999999998012,0.622560958971586,0.26949261622295945
13.600999999997901,0.6311132035019354,0.27912850680562235
13.80099999999779,0.6384948904957818,0.2874818976038394
14.00099999999768,0.6446409438298725,0.3022170267510261
14.200999999997569,0.6543157586268121,0.30877368447505077
14.400999999997458,0.665288345675399,0.319800198288881
14.600999999997347,0.6754209819976392,0.3311499875269114
14.800999999997236,0.6842052252941646,0.34185632103113184
15.000999999997125,0.6938144394616876,0.3546999941562164
15.200999999997014,0.70374710642485,0.3514540340737398
15.400999999996904,0.7125757379684166,0.3578449327629917
15.600999999996793,0.7193062136265768,0.36009675256753265
15.800999999996682,0.729021792950686,0.3699651003689544
16.000999999996573,0.738195031815696,0.37536083538151527
16.200999999996817,0.7484513873939261,0.3793312022279419
16.40099999999706,0.7568071522736094,0.38264509346335535
16.600999999997306,0.7649248178912635,0.38594164370813
16.80099999999755,0.7737275825528493,0.387567523203852
17.000999999997795,0.7829027146289924,0.396644169316861
17.20099999999804,0.79088430111784,0.39197439894671776
17.400999999998284,0.7967966220881263,0.39556181403846685
17.60099999999853,0.8040299362856437,0.4032373641310216
17.800999999998773,0.81084402526216,0.41813864966919
18.000999999999017,0.8185761969276052,0.4245174838039611
18.20099999999926,0.8268567831936621,0.42597375429350176
18.400999999999506,0.8343614802019896,0.42959068978654563
18.60099999999975,0.8397003480752031,0.4391626663785639
18.799999999999994,0.848402757871361,0.4469532352725347
19.000000000000238,0.8574519432575674,0.45229075862291745
19.200000000000482,0.865270351096854,0.4549164773719016
19.400000000000727,0.8773138402753982,0.4519874273645896
19.60000000000097,0.8828125604774957,0.4534299550726244
19.800000000001216,0.8884732665562118,0.462154539402321
20.00000000000146,0.8943393145225684,0.4720878136692119
