Time (s),X (m),Y (m)
0.001,0.0011890620069237587,0.00035268032603768894
0.20000000000000015,0.00034341518218756914,0.0002962179530433699
0.4000000000000003,0.011427804769508469,0.006375619647278715
0.6000000000000004,0.021236167257067628,0.011955996396190303
0.8000000000000006,0.04399945693347529,0.017284482691194227
1.0000000000000007,0.0664301398359417,0.01830814051119586
1.2009999999999785,0.08139570714458351,0.016853142735027134
1.4009999999999565,0.11230213915515724,0.012701871170254928
1.6009999999999345,0.13991750477518192,0.00012768723116281813
1.8009999999999124,0.1725122574880291,-0.019437639068169484
2.0009999999998906,0.20713684233122515,-0.0458033441195975
2.2009999999998686,0.24122356943299197,-0.07286331804755308
2.4009999999998466,0.27865719839507275,-0.10342527440198845
2.6009999999998246,0.3182484600137821,-0.13628874731738408
2.8009999999998025,0.3654104523027954,-0.17024617862436622
3.0009999999997805,0.41284434118356556,-0.20259294143706919
3.2009999999997585,0.4565476024768026,-0.2429364563069952
3.4009999999997365,0.48345946127957634,-0.2902576468414169
3.6009999999997144,0.48571316836717293,-0.33692310868477887
3.8009999999996924,0.4701632316629636,-0.3753295592296189
4.000999999999671,0.4492090346420726,-0.4162478193988623
4.200999999999738,0.4173177825547826,-0.45664584222743215
4.400999999999804,0.37004218398018884,-0.49595990361687764
4.600999999999871,0.32275992719010066,-0.5312205836961831
4.800999999999938,0.2751152505936533,-0.5556346259297906
5.000000000000004,0.23067819094601455,-0.5577110534064401
5.200000000000071,0.18495235185786366,-0.5477325025408083
5.400000000000138,0.1325818556846441,-0.5280010276850543
5.600000000000205,0.07687120058773825,-0.49644480853295553
5.800000000000272,0.023879610001661188,-0.46171508787149756
6.000000000000338,-0.022723386534706836,-0.42570667854120897
6.200000000000405,-0.05584114462189017,-0.3762847239766479
6.400000000000472,-0.0730789270889704,-0.3463358726107335
6.600000000000539,-0.07212623546427303,-0.3118950104097007
6.800000000000606,-0.05371110606940161,-0.27477257961949453
7.000000000000672,-0.02778152317631306,-0.2348708216862449
7.200000000000739,0.014816503389974067,-0.18690061268168956
7.400000000000806,0.06289579766998148,-0.14655348999424836
7.600000000000873,0.11253186741527252,-0.13265149270932594
7.8000000000009395,0.15833473350798138,-0.14232600444572685
8.000000000001005,0.19667536688614407,-0.16521539832541998
8.200000000000895,0.23780287448538698,-0.20365605068277018
8.400000000000784,0.27620923199200126,-0.2582120645369316
8.600000000000673,0.2958657778919487,-0.3151537554732225
8.800000000000562,0.2893836572455191,-0.3640464073305632
9.000000000000451,0.26691146347751316,-0.42066570052336116
9.20000000000034,0.2349941104613453,-0.47128627718895255
9.40000000000023,0.1925744672629875,-0.5268394171800791
9.600000000000119,0.14472679349039808,-0.5880124969153157
9.800000000000008,0.08537468693756489,-0.6554050811202686
10.000999999999896,0.025647285776826727,-0.7218686818187992
10.200999999999786,-0.03205658309913922,-0.783979535945148
10.400999999999675,-0.094657382181154,-0.8275642460862745
10.600999999999564,-0.1341942341013202,-0.848413079479532
10.800999999999453,-0.17683598440958845,-0.8462028074941149
11.000999999999342,-0.22407735837440365,-0.8247143313420054
11.200999999999231,-0.27120726692292285,-0.7898617898982414
11.40099999999912,-0.31814440215851636,-0.7472292507730749
11.60099999999901,-0.36905517231005247,-0.7003728003166851
11.800999999998899,-0.42075284977777344,-0.641570926354618
12.000999999998788,-0.47081503562988314,-0.5749597579840212
12.200999999998677,-0.495071489491669,-0.5092165405485367
12.400999999998566,-0.4918243417739733,-0.453474182821695
12.600999999998455,-0.46941773548822346,-0.4046786116459089
12.800999999998345,-0.4404526604905782,-0.3575534908797783
13.000999999998234,-0.4122979248823549,-0.3227527529197366
13.200999999998123,-0.3723205712467251,-0.30992517046261714
13.400999999998012,-0.3155582487656866,-0.31695746791646573
13.600999999997901,-0.2551454587380244,-0.3409246894846996
13.80099999999779,-0.1909755609856229,-0.3811965690571241
14.00099999999768,-0.12655101260590615,-0.430592563644344
14.200999999997569,-0.05944635577541109,-0.48960974830267473
14.400999999997458,0.0031855563070727396,-0.5470021275487951
14.600999999997347,0.054701425047939574,-0.6124489297217828
14.800999999997236,0.0824531348241042,-0.6780455423555789
15.000999999997125,0.07555360458936725,-0.7409395855909894
15.200999999997014,0.0466197389262516,-0.8048642572257471
15.400999999996904,0.015383746460084877,-0.8611703581360098
15.600999999996793,-0.0378279850042962,-0.9103390688041231
15.800999999996682,-0.09330224062110516,-0.9483372315671247
16.000999999996573,-0.14728464741535455,-0.9684952427224656
16.200999999996817,-0.2010631699648729,-0.9644292171808378
16.40099999999706,-0.2591296465792776,-0.9353523220719099
16.600999999997306,-0.32151268170126734,-0.8848836480130184
16.80099999999755,-0.3866600981106949,-0.8307675179687863
17.000999999997795,-0.44491533018010027,-0.7830656903461318
17.20099999999804,-0.4981704593157621,-0.7307200972610141
17.400999999998284,-0.5364354845973711,-0.6814994635952293
17.60099999999853,-0.5523732449760183,-0.620497548410588
17.800999999998773,-0.5461942062371595,-0.56969575750097
18.000999999999017,-0.5205180545786888,-0.520837853110589
18.20099999999926,-0.4729708550172084,-0.471938388682967
18.400999999999506,-0.42006632688086076,-0.42304098859844624
18.60099999999975,-0.36060443780614426,-0.378028380608864
18.799999999999994,-0.3030740312850515,-0.34590641590498944
19.000000000000238,-0.23578969078960843,-0.33971403507217796
19.200000000000482,-0.17830960084975608,-0.3486735896011195
19.400000000000727,-0.1264999285260585,-0.36547988485843164
19.60000000000097,-0.07596222215155696,-0.3924184155432329
19.800000000001216,-0.018641393368669098,-0.4290860370376927
20.00000000000146,0.04580147846135572,-0.47390736467598826
