Time (s),X (m),Y (m)
0.001,0.0010647643868879006,-0.0005914538325516239
0.20000000000000015,-0.0005853648538193119,0.001926062869344265
0.4000000000000003,-0.0012429890398121502,0.00890660865236067
0.6000000000000004,0.007169295777567617,0.011833500263479403
0.8000000000000006,0.027715953854922627,0.008999247592804427
1.0000000000000007,0.046062954302813826,0.0034911167635496014
1.2009999999999785,0.06622199926855465,-0.004010196447660847
1.4009999999999565,0.08446734631771863,-0.00539382633549892
1.6009999999999345,0.0965770692746279,-0.004774599138602907
1.8009999999999124,0.1191769599536116,-0.010486009759555801
2.0009999999998906,0.14021624439707936,-0.012990098353126988
2.2009999999998686,0.15964420452309003,-0.012879812388398857
2.4009999999998466,0.18239448542305128,-0.007795750504085258
2.6009999999998246,0.19483834392253258,0.002341232866337222
2.8009999999998025,0.21605720287605126,0.011761064655526092
3.0009999999997805,0.23720004183488452,0.010005399975903386
3.2009999999997585,0.26458178836161034,-0.002320409817098037
3.4009999999997365,0.2868040151368356,-0.005868931657042106
3.6009999999997144,0.31161174990683926,-0.011601155940056824
3.8009999999996924,0.33672558814557024,-0.011788055519109233
4.000999999999671,0.35658819210965903,-0.016493005100102577
4.200999999999738,0.36918497083815627,-0.013418802820248547
4.400999999999804,0.39253046890596127,-0.019351655959520608
4.600999999999871,0.41208268025732187,-0.0353247273366968
4.800999999999938,0.4376237788119459,-0.05767493092413988
5.000000000000004,0.4674600116101489,-0.06931341944227576
5.200000000000071,0.49445982765906776,-0.07316921817733958
5.400000000000138,0.5159143380135736,-0.08307969405614958
5.600000000000205,0.5411221157323093,-0.09390031418540817
5.800000000000272,0.5615465182824435,-0.10474879343027717
6.000000000000338,0.5788143204519959,-0.12867415291717835
6.200000000000405,0.6005933187922293,-0.15424499579267278
6.400000000000472,0.6217530591930506,-0.1762280396468204
6.600000000000539,0.6334955864254844,-0.19146647302455896
6.800000000000606,0.636824718802887,-0.21001490894057664
7.000000000000672,0.6428873010234201,-0.23321099867214806
7.200000000000739,0.6523987725527493,-0.2562038713795989
7.400000000000806,0.6603749638184291,-0.2873161852154402
7.600000000000873,0.6689311713374528,-0.3152618726400689
7.8000000000009395,0.6711029920759647,-0.33553623454050874
8.000000000001005,0.6714611484695409,-0.35695951725509595
8.200000000000895,0.6740916440194715,-0.3843088130970539
8.400000000000784,0.6757849859858064,-0.4197285203311829
8.600000000000673,0.679565642685353,-0.45136896256086534
8.800000000000562,0.6794817448292576,-0.4761126547499373
9.000000000000451,0.6662746423782152,-0.5049743076296297
9.20000000000034,0.6668794692371826,-0.5312768847172732
9.40000000000023,0.6610899068503675,-0.5552899627900983
9.600000000000119,0.6452452066810784,-0.5823461598431283
9.800000000000008,0.6358780800022897,-0.6135159400801683
10.000999999999896,0.6262295717438459,-0.6411743683582888
10.200999999999786,0.5999697177158138,-0.660991297096004
10.400999999999675,0.5653097696910646,-0.6742668525921806
10.600999999999564,0.5333715900792919,-0.6839681847309397
10.800999999999453,0.5089485440070438,-0.694639731593188
11.000999999999342,0.4774130026504117,-0.6981313109891077
11.200999999999231,0.4419854578865151,-0.6948720659725781
11.40099999999912,0.41053221529411926,-0.6879089421774843
11.60099999999901,0.3776887636492117,-0.6698644768191909
11.800999999998899,0.34348306742470563,-0.6420582246458325
12.000999999998788,0.3117348463973999,-0.617048751300362
12.200999999998677,0.2874522579427774,-0.5968330901654636
12.400999999998566,0.25955556343098385,-0.5812588081316051
12.600999999998455,0.23444910847566172,-0.5521021178202911
12.800999999998345,0.22052556593209455,-0.5270050003008003
13.000999999998234,0.217823684596765,-0.4870876166687237
13.200999999998123,0.21769783293914713,-0.44762868795082417
13.400999999998012,0.20947878675106527,-0.40784272139259004
13.600999999997901,0.20890622243714527,-0.37206128202644206
13.80099999999779,0.21140895068723867,-0.3369930590154946
14.00099999999768,0.21408561546625635,-0.298456849556166
14.200999999997569,0.21603965929581562,-0.262236522423324
14.400999999997458,0.21506851205536648,-0.22611037963956968
14.600999999997347,0.22041298708161863,-0.18808091780966205
14.800999999997236,0.22926007342786678,-0.15193852030988686
15.000999999997125,0.23678461602193837,-0.11786043033710979
15.200999999997014,0.24587745568969907,-0.08302166731941898
15.400999999996904,0.27381927488842434,-0.059328962029417634
15.600999999996793,0.3034347610519841,-0.049216753091410485
15.800999999996682,0.3455501060846742,-0.04570929102069654
16.000999999996573,0.37679539035969084,-0.04399005726905434
16.200999999996817,0.41153746575521755,-0.0488869951364653
16.40099999999706,0.44891204272794333,-0.054447950233260614
16.600999999997306,0.4692808392629268,-0.04352687390245204
16.80099999999755,0.48698096115679423,-0.03469243192908085
17.000999999997795,0.5257670522928733,-0.044403222511115475
17.20099999999804,0.5610975278892463,-0.04778201180305954
17.400999999998284,0.5910122423183276,-0.05491919980558515
17.60099999999853,0.6211083858178533,-0.06327712686763177
17.800999999998773,0.6517641401113203,-0.07078376407132667
18.000999999999017,0.68736159410214,-0.08051967229495048
18.20099999999926,0.7227735256332815,-0.08940445934244452
18.400999999999506,0.760374287791117,-0.09771909394950502
18.60099999999975,0.7876709294626101,-0.11125116695303477
18.799999999999994,0.8116461551336156,-0.1303563124091411
19.000000000000238,0.8363229302282673,-0.1589248235598719
19.200000000000482,0.8521149610920091,-0.1812396381460925
19.400000000000727,0.8592767292231658,-0.20039880930543866
19.60000000000097,0.858274256014449,-0.22116072662179867
19.800000000001216,0.8628276803846121,-0.24568949753879923
20.00000000000146,0.8683054629647311,-0.2700512921693865
