Time (s),X (m),Y (m)
0.001,-0.0004427414248986554,-0.0007899207378008392
0.20000000000000015,0.004192407083123897,0.003418901268218744
0.4000000000000003,0.005958396952057529,-0.001102204349676845
0.6000000000000004,0.01122128969031967,-0.006965502624663576
0.8000000000000006,0.02316958407454512,-0.008699758789033384
1.0000000000000007,0.03193489960641038,-0.006496905321018941
1.2009999999999785,0.04599640296608855,-0.009682238237639031
1.4009999999999565,0.06315433163111425,-0.015067870473466216
1.6009999999999345,0.08573699204233566,-0.007962925106442685
1.8009999999999124,0.11051445266014276,0.011107331750681716
2.0009999999998906,0.13585210621154467,0.021591159934525105
2.2009999999998686,0.1602308392760648,0.032728393162337076
2.4009999999998466,0.18085206298295486,0.044414361294977195
2.6009999999998246,0.20348924833322213,0.04916031563679376
2.8009999999998025,0.22966346432560647,0.06576996752975976
3.0009999999997805,0.25744388929289325,0.08067356050373767
3.2009999999997585,0.28050567268382376,0.08036198073246559
3.4009999999997365,0.30365017588214865,0.08522430804964057
3.6009999999997144,0.3281383652737862,0.10223997439912101
3.8009999999996924,0.3551116463835601,0.11866219447193467
4.000999999999671,0.3790430134419641,0.13102429056210035
4.200999999999738,0.40507786460992506,0.14132080901301017
4.400999999999804,0.42742607963775064,0.15441804285639624
4.600999999999871,0.4505360837561767,0.15871718724107234
4.800999999999938,0.4698885437547544,0.16556719549209542
5.000000000000004,0.49485242010849556,0.1892376990094947
5.200000000000071,0.5192383974598493,0.2063534099049678
5.400000000000138,0.5423157901174566,0.22674282293655398
5.600000000000205,0.5645072032941841,0.2339584345295137
5.800000000000272,0.5912439574200524,0.24324284029287555
6.000000000000338,0.6198728855632718,0.25349682598776685
6.200000000000405,0.6486478959934614,0.27315808076382264
6.400000000000472,0.6755209421814863,0.291214350281448
6.600000000000539,0.7030775478539504,0.30622173770419436
6.800000000000606,0.7296830830383435,0.3250956989338833
7.000000000000672,0.7512157083058849,0.33257902074942697
7.200000000000739,0.7716477798448322,0.34640481400267303
7.400000000000806,0.7933860258148694,0.363770634863168
7.600000000000873,0.8163366448954946,0.37447238008575806
7.8000000000009395,0.8412663977290608,0.39408115679687167
8.000000000001005,0.8627802719123175,0.40834881878679136
8.200000000000895,0.883999188574005,0.4209905073328272
8.400000000000784,0.9080940690523499,0.43309676140287545
8.600000000000673,0.9351257373634717,0.4402177172204195
8.800000000000562,0.9623644294787902,0.45594851473544645
9.000000000000451,0.982108426446425,0.4762584030909459
9.20000000000034,0.9984247191084463,0.4953040614211549
9.40000000000023,1.0165333619096872,0.5092103963527543
9.600000000000119,1.0381492574546638,0.5297673580359661
9.800000000000008,1.069705627455067,0.5538216936191032
10.000999999999896,1.096017579449583,0.5729804740168809
10.200999999999786,1.1205310157084147,0.5895546750806919
10.400999999999675,1.1427299538631086,0.6077127921729288
10.600999999999564,1.1585077631244713,0.6245032800465984
10.800999999999453,1.1735192556007012,0.6526855618303643
11.000999999999342,1.1908427225437324,0.6756486413566699
11.200999999999231,1.2043243876697838,0.6947333025515438
11.40099999999912,1.2239625182877738,0.7069776419931659
11.60099999999901,1.2467921544776874,0.7224443928137008
11.800999999998899,1.2637835573344758,0.7467038691841972
12.000999999998788,1.2815014276589412,0.7616279636938909
12.200999999998677,1.2978027442162412,0.7957683330132374
12.400999999998566,1.3191798982272134,0.8228603889834939
12.600999999998455,1.3361354585187553,0.8533327338970353
12.800999999998345,1.3550740223385502,0.8740316349611134
13.000999999998234,1.3749255922894623,0.9002250237118679
13.200999999998123,1.3880421247634895,0.9264137225696683
13.400999999998012,1.3975080889683378,0.9578691848064528
13.600999999997901,1.4127138107823534,0.9844084532588222
13.80099999999779,1.424101259370393,1.0171071423351872
14.00099999999768,1.43786616291977,1.0382011945971725
14.200999999997569,1.455069140141818,1.0711840899456468
14.400999999997458,1.474852745558628,1.1104244678586501
14.600999999997347,1.4921480575931498,1.148015726287107
14.800999999997236,1.5073321045425658,1.17247452509174
15.000999999997125,1.5215919231875843,1.1928523365877706
15.200999999997014,1.5398113247957634,1.2022020014758348
15.400999999996904,1.5573955944550304,1.2176058448697737
15.600999999996793,1.5777601975530087,1.2265078425646996
15.800999999996682,1.599472141683392,1.2543484449225661
16.000999999996573,1.6271420301622852,1.2861149883143241
16.200999999996817,1.649119876778202,1.3220335277280613
16.40099999999706,1.6599552876680994,1.3505292996985154
16.600999999997306,1.671092499751771,1.3866285386225956
16.80099999999755,1.6745716742858034,1.4256058850244147
17.000999999997795,1.678136025022973,1.4639993568753344
17.20099999999804,1.6861449880705646,1.4949282500163468
17.400999999998284,1.6977101038428353,1.5097851762417565
17.60099999999853,1.703020126900976,1.5300760206451665
17.800999999998773,1.7087822844899165,1.560388134323289
18.000999999999017,1.7115232140832728,1.5899731172753533
18.20099999999926,1.7198451646195745,1.6069386890288277
18.400999999999506,1.73319041425862,1.6324128021520898
18.60099999999975,1.744570724652519,1.6659134830114781
18.799999999999994,1.7591374956457326,1.6831112153808883
19.000000000000238,1.7728556716250239,1.7071712787374729
19.200000000000482,1.786140006328987,1.7367051732138339
19.400000000000727,1.8002630864633469,1.7675960873123657
19.60000000000097,1.8125541862394363,1.795110995646985
19.800000000001216,1.825845605738141,1.8245235971178357
20.00000000000146,1.8298185344946807,1.8615730432985165
