Time (s),X (m),Y (m)
0.001,0.0008115346074009382,-0.0008446836120385868
0.20000000000000015,-0.000756147313019371,0.0021111092193743485
0.4000000000000003,-0.0004693814513961012,0.016743694923262355
0.6000000000000004,0.003003223982085928,0.033996933211502864
0.8000000000000006,0.014114507684172013,0.03047141871971937
1.0000000000000007,0.03568705973558387,0.010650134320385432
1.2009999999999785,0.06138341725505051,-0.03192458079086227
1.4009999999999565,0.08353666327184556,-0.1034149590427517
1.6009999999999345,0.10541986763847272,-0.1883537410463609
1.8009999999999124,0.12428674808317844,-0.2740012387387822
2.0009999999998906,0.13593026440427705,-0.34929762732694747
2.2009999999998686,0.13937712004913677,-0.41612456233932266
2.4009999999998466,0.1447227773818616,-0.4797332953132166
2.6009999999998246,0.15285893924747876,-0.543339729497108
2.8009999999998025,0.14553931668457418,-0.6022825836443171
3.0009999999997805,0.10417385838469662,-0.6483714284580638
3.2009999999997585,0.048868329408859726,-0.6783157748214809
3.4009999999997365,-0.015594628451007725,-0.6786456490257312
3.6009999999997144,-0.08011723328941944,-0.6699720189401203
3.8009999999996924,-0.13464847118766718,-0.6505270970565104
4.000999999999671,-0.17477880509356924,-0.6061426926012972
4.200999999999738,-0.2129629033247267,-0.5513796720917352
4.400999999999804,-0.24362410898109024,-0.4939962588663094
4.600999999999871,-0.2836144510340703,-0.4420278254920187
4.800999999999938,-0.29149872480404176,-0.39193286149768886
5.000000000000004,-0.2693567642766287,-0.3384553999459446
5.200000000000071,-0.23366965927848388,-0.2861665848649879
5.400000000000138,-0.18543100843034757,-0.25460076307413404
5.600000000000205,-0.13392430903856004,-0.23826960523521032
5.800000000000272,-0.07631263035203491,-0.24774840197919137
6.000000000000338,-0.021195080839400606,-0.2755780175265033
6.200000000000405,0.015347637887302496,-0.3240528190940276
6.400000000000472,0.016530179806336937,-0.3848508126035204
6.600000000000539,-0.0028962910402578353,-0.4440218325987417
6.800000000000606,-0.05645657235397085,-0.4903994567303995
7.000000000000672,-0.11252240827183699,-0.5152069232930515
7.200000000000739,-0.16977766006068667,-0.5292314871138755
7.400000000000806,-0.21859771908655734,-0.5176643828108799
7.600000000000873,-0.2469937758030973,-0.4825243394599439
7.8000000000009395,-0.25746551702597803,-0.4309382018344253
8.000000000001005,-0.2496068923367105,-0.3689164694657825
8.200000000000895,-0.24654433851670682,-0.3002481102937217
8.400000000000784,-0.2416410263303265,-0.22202281216718436
8.600000000000673,-0.24365738275871904,-0.1461816696424399
8.800000000000562,-0.23353797908563512,-0.07192255691458015
9.000000000000451,-0.20266884143558078,-0.004246274164362753
9.20000000000034,-0.15952272222492475,0.050466416100147175
9.40000000000023,-0.10088539468285342,0.06347161445294268
9.600000000000119,-0.042083319180876835,0.04352552897611814
9.800000000000008,0.00944488430391246,0.012953642334866955
10.000999999999896,0.05072068932616553,-0.028789960327635408
10.200999999999786,0.07186668893152841,-0.08898680894268192
10.400999999999675,0.08399931033281331,-0.16153652080165032
10.600999999999564,0.09097386711173605,-0.22926327213015377
10.800999999999453,0.07585603140831121,-0.2929677432400231
11.000999999999342,0.021076131595852386,-0.3398973948215711
11.200999999999231,-0.03707184882703622,-0.37078022041800907
11.40099999999912,-0.09993365277728374,-0.38018620534579195
11.60099999999901,-0.16590856027830359,-0.3766458993524266
11.800999999998899,-0.23298863570484837,-0.3586253134452652
12.000999999998788,-0.27340948307823326,-0.3110423808741599
12.200999999998677,-0.28474569780236436,-0.2587606341186439
12.400999999998566,-0.26997838478655856,-0.20646469252544764
12.600999999998455,-0.24218529100312172,-0.15986337484733004
12.800999999998345,-0.20911072579845807,-0.12392467150938802
13.000999999998234,-0.16334779766887336,-0.1036633556007952
13.200999999998123,-0.10811291236139743,-0.08613381722593152
13.400999999998012,-0.04451670237747707,-0.07826740861727131
13.600999999997901,0.024293756608251196,-0.09300880130920962
13.80099999999779,0.09405943043341243,-0.12523961584241672
14.00099999999768,0.15971322180275274,-0.16676131692241172
14.200999999997569,0.2121500053891751,-0.22049879204818826
14.400999999997458,0.2498134467980322,-0.2873952577722213
14.600999999997347,0.26784776548908207,-0.3625638151557955
14.800999999997236,0.285276044648067,-0.4353760294796738
15.000999999997125,0.29601551214024696,-0.5058740081503804
15.200999999997014,0.296835226146816,-0.5797254741659553
15.400999999996904,0.26924722320335864,-0.652967778640444
15.600999999996793,0.21275443903644387,-0.7125076015230478
15.800999999996682,0.14333879154216295,-0.7556327341827755
16.000999999996573,0.06655258506309858,-0.7772884625483947
16.200999999996817,-0.007342456691813829,-0.7943722227464828
16.40099999999706,-0.06391543401653434,-0.782451555127268
16.600999999997306,-0.08083705069128705,-0.747599226876294
16.80099999999755,-0.07604597030326414,-0.7089945949988414
17.000999999997795,-0.05517280195844265,-0.6704397154049905
17.20099999999804,-0.010957030526427375,-0.6401217799465745
17.400999999998284,0.03851520912307665,-0.6242591206271484
17.60099999999853,0.08897346747623004,-0.6411266573134026
17.800999999998773,0.13593794442222648,-0.6796548219629107
18.000999999999017,0.17402539522826582,-0.7357518768657939
18.20099999999926,0.20806172730501796,-0.7919165104852024
18.400999999999506,0.22187636274840739,-0.8428915243239556
18.60099999999975,0.20785094157988176,-0.8905691559608252
18.799999999999994,0.17272055728668104,-0.9322489525495459
19.000000000000238,0.12391410916491799,-0.9465088263025545
19.200000000000482,0.07124151605594296,-0.9266647045591256
19.400000000000727,0.03034474071752696,-0.8792222408841758
19.60000000000097,-0.005162124423615884,-0.8199098648604967
19.800000000001216,-0.04251008509785206,-0.7657418912240036
20.00000000000146,-0.07302965420536477,-0.7083949617217862
