Time (s),X (m),Y (m)
0.001,-0.0007489004572251305,0.00035268032603768894
0.20000000000000015,0.005350281029392595,-0.0016327143725970521
0.4000000000000003,0.006157737255906361,0.0020154303617006134
0.6000000000000004,0.012194377453594989,0.001510281869153678
0.8000000000000006,0.03290635578929408,-0.0005702762217559501
1.0000000000000007,0.059514765775190256,-0.0022461024047815757
1.2009999999999785,0.08362865923942936,-0.00011820844771437843
1.4009999999999565,0.11166766829352993,-0.0018654335071094058
1.6009999999999345,0.1456417404486414,-0.007860317704960868
1.8009999999999124,0.1820470717002949,-0.019793398506488483
2.0009999999998906,0.21995235437105237,-0.03649262039208965
2.2009999999998686,0.24016199958639586,-0.06715771429218438
2.4009999999998466,0.24495891592079067,-0.10180111219959642
2.6009999999998246,0.24277589176540632,-0.14055049567817068
2.8009999999998025,0.23841866877614512,-0.1730514363111878
3.0009999999997805,0.22932747030207348,-0.20889826604682982
3.2009999999997585,0.21140048954979243,-0.24680786325548437
3.4009999999997365,0.1916892919317694,-0.29116738471506726
3.6009999999997144,0.16342944981176288,-0.33630395676689717
3.8009999999996924,0.1169643279431427,-0.35679543140421255
4.000999999999671,0.07238901637014897,-0.3603393798677273
4.200999999999738,0.03370299888449738,-0.3539651866410281
4.400999999999804,-0.008737780450718945,-0.3353168258828211
4.600999999999871,-0.05443595763595166,-0.3153043536477197
4.800999999999938,-0.09495595199688722,-0.29126121317765874
5.000000000000004,-0.11491277383889835,-0.2582504029316614
5.200000000000071,-0.10872302322230691,-0.22178306214501015
5.400000000000138,-0.07856579848625873,-0.19856390978763883
5.600000000000205,-0.032120430240658936,-0.19722632610092253
5.800000000000272,0.021684185188958763,-0.2076088364508279
6.000000000000338,0.08277709724889666,-0.22251932145326794
6.200000000000405,0.13674625257735035,-0.23460992537573075
6.400000000000472,0.19005567875758675,-0.25874360008771485
6.600000000000539,0.2256470465335035,-0.30718807226398454
6.800000000000606,0.2414963620519202,-0.3523638613312331
7.000000000000672,0.2444986535189609,-0.39915927460489453
7.200000000000739,0.23161115666304666,-0.45768226675608026
7.400000000000806,0.20313099449581204,-0.5217540716258751
7.600000000000873,0.1604466444878612,-0.5905318659430884
7.8000000000009395,0.09972612159088284,-0.6647586388717261
8.000000000001005,0.04014700165539156,-0.7360492973871003
8.200000000000895,-0.015959191625066902,-0.7820937242530527
8.400000000000784,-0.0808982683170821,-0.7926101187200802
8.600000000000673,-0.13919657106585057,-0.7919528216694621
8.800000000000562,-0.19781507267696344,-0.7729219594196002
9.000000000000451,-0.25804014430483346,-0.7356847048977607
9.20000000000034,-0.31412539998045785,-0.6892314147836256
9.40000000000023,-0.36260589511285546,-0.6250146903448716
9.600000000000119,-0.3935040707518956,-0.5521029286039678
9.800000000000008,-0.3888254894982879,-0.4723985515031943
10.000999999999896,-0.366474632006467,-0.4002593606421157
10.200999999999786,-0.32653693424457236,-0.33534882221012374
10.400999999999675,-0.2691040647589762,-0.2968167795769307
10.600999999999564,-0.2130593641123525,-0.28750991806289233
10.800999999999453,-0.16593030288634858,-0.28701250384331667
11.000999999999342,-0.1130132299687066,-0.3040761090046311
11.200999999999231,-0.056046649055009265,-0.32586949772037294
11.40099999999912,-0.015023158562055371,-0.3626407218448106
11.60099999999901,0.00222238814898418,-0.407393559007577
11.800999999998899,0.0023710422379140854,-0.4515491415713738
12.000999999998788,-0.02098240847775107,-0.5053090519599955
12.200999999998677,-0.046408136749464646,-0.5633810348658238
12.400999999998566,-0.0780988225129607,-0.6112506657682356
12.600999999998455,-0.11756005067897818,-0.6402237981669239
12.800999999998345,-0.15482911682753275,-0.6522059803545504
13.000999999998234,-0.20351823175030395,-0.6426996898458192
13.200999999998123,-0.2556762177351997,-0.6202356938021555
13.400999999998012,-0.31835129276716706,-0.5951983841219873
13.600999999997901,-0.3865986124061677,-0.5617948791669432
13.80099999999779,-0.4544222628868381,-0.5280318558403707
14.00099999999768,-0.5149672912311125,-0.49296321608521165
14.200999999997569,-0.5479187334610478,-0.4447601570307481
14.400999999997458,-0.5624578817484017,-0.3966563166467086
14.600999999997347,-0.5616560004347635,-0.340634017033957
14.800999999997236,-0.5521044710453843,-0.28985890425647376
15.000999999997125,-0.5228947697909858,-0.23879822504592432
15.200999999997014,-0.4726867484880128,-0.2047575918500535
15.400999999996904,-0.40412007974542424,-0.1909673549648052
15.600999999996793,-0.33648576374337924,-0.19465002053347377
15.800999999996682,-0.28004482064336617,-0.2020595983012941
16.000999999996573,-0.22442533371439474,-0.2117039261991537
16.200999999996817,-0.1690762701035891,-0.23160962736490395
16.40099999999706,-0.11548458843205359,-0.2572529616966908
16.600999999997306,-0.07613312486770987,-0.29085612003121697
16.80099999999755,-0.05043272495912033,-0.33332430809252866
17.000999999997795,-0.042395683353309045,-0.3948096998050709
17.20099999999804,-0.04474827022318534,-0.45672356414498644
17.400999999998284,-0.059037433315806964,-0.5245406705234409
17.60099999999853,-0.08406027334504255,-0.5999309607087115
17.800999999998773,-0.1264635359946358,-0.6766900191161482
18.000999999999017,-0.17589409296238742,-0.7428673455619711
18.20099999999926,-0.2327658210223127,-0.7805995468018097
18.400999999999506,-0.28967442306777763,-0.7926785944450334
18.60099999999975,-0.3629193265299308,-0.7701883479867947
18.799999999999994,-0.43143764566012677,-0.7263405162633696
19.000000000000238,-0.4852609665427638,-0.67733204766859
19.200000000000482,-0.5141496434618642,-0.6296288397683206
19.400000000000727,-0.5136221954710888,-0.5722834787731811
19.60000000000097,-0.48642236277871936,-0.49983023062323106
19.800000000001216,-0.4584943544781185,-0.4333005088719773
20.00000000000146,-0.4220019197339796,-0.3689979586681092
