Time (s),X (m),Y (m)
0.001,0.0008829029745972832,0.0007899207378008392
0.20000000000000015,-2.9078196874929382e-05,-0.005020988938666915
0.4000000000000003,0.010183948446216918,-0.005000778196584975
0.6000000000000004,0.02445450595621156,-0.00753857334532567
0.8000000000000006,0.03686784728666483,-0.01417782604200552
1.0000000000000007,0.05163152576283026,-0.017655376159037853
1.2009999999999785,0.07544540372525432,-0.01465286624856057
1.4009999999999565,0.10874159104864442,-0.011246115705651044
1.6009999999999345,0.14112868820604216,-0.008007784571440283
1.8009999999999124,0.18873626542678706,-0.006376516650478467
2.0009999999998906,0.2382634864145333,-0.0117852811254619
2.2009999999998686,0.281528000272397,-0.02979021927290033
2.4009999999998466,0.3170734278981777,-0.05798927836501764
2.6009999999998246,0.3501918910485109,-0.09347929734432456
2.8009999999998025,0.39206138448414735,-0.13759184507103406
3.0009999999997805,0.4405313841193412,-0.18813408621988073
3.2009999999997585,0.48417473576465486,-0.23097893721706436
3.4009999999997365,0.5456798339569481,-0.2732333113489159
3.6009999999997144,0.6071047924667916,-0.32213254917734746
3.8009999999996924,0.6569911016815605,-0.37501746346639486
4.000999999999671,0.7157355229636477,-0.43082287260446234
4.200999999999738,0.7552986217512985,-0.4877356614556009
4.400999999999804,0.7890170165912321,-0.5421638008310942
4.600999999999871,0.8146415451992172,-0.5972800202756483
4.800999999999938,0.8093844307764503,-0.6461828232573239
5.000000000000004,0.7676922611998988,-0.6919262957935445
5.200000000000071,0.725032446866669,-0.7293076650379031
5.400000000000138,0.6717547729459985,-0.7453632226126468
5.600000000000205,0.6277045780580649,-0.735861996449555
5.800000000000272,0.5987719097567751,-0.7066936893543971
6.000000000000338,0.5718101068086204,-0.669752801137683
6.200000000000405,0.5677933728641256,-0.6365244605950596
6.400000000000472,0.5853404177982046,-0.6119409418440164
6.600000000000539,0.6232202065450123,-0.5810364422033375
6.800000000000606,0.673628805956243,-0.5487273956241252
7.000000000000672,0.7323114177764485,-0.5158237268691129
7.200000000000739,0.7829056032429685,-0.493955389952208
7.400000000000806,0.8288298478038437,-0.4960458330103052
7.600000000000873,0.8751464107365652,-0.5190931363739975
7.8000000000009395,0.9233258087618148,-0.5660364858336996
8.000000000001005,0.9578348292662214,-0.6215349876915996
8.200000000000895,0.9893107723616851,-0.6773692538229
8.400000000000784,1.0008706157913203,-0.7367019483117232
8.600000000000673,0.9913033724076941,-0.7902409337572986
8.800000000000562,0.9640708844273222,-0.8311901270832843
9.000000000000451,0.924546481095564,-0.8668479833798604
9.20000000000034,0.8774756409254,-0.8956777728034464
9.40000000000023,0.8040657107771573,-0.9144811469062001
9.600000000000119,0.7287786039032924,-0.9318100544273105
9.800000000000008,0.6511429438429867,-0.9456239574493958
10.000999999999896,0.5740731548733151,-0.9457147244846744
10.200999999999786,0.5150218482991721,-0.9251370443694851
10.400999999999675,0.45308147153152517,-0.8900750141429123
10.600999999999564,0.38170404102619787,-0.8421922514856144
10.800999999999453,0.30936913749683337,-0.7850076310276995
11.000999999999342,0.23617428427945722,-0.7338342693802775
11.200999999999231,0.17041680007509563,-0.691763210834591
11.40099999999912,0.09482426034506047,-0.6552300809491941
11.60099999999901,0.02544325984941861,-0.606923899290846
11.800999999998899,-0.035640996431333734,-0.547121778597773
12.000999999998788,-0.08739362239399528,-0.479459328563006
12.200999999998677,-0.13203618703394582,-0.40691907889580503
12.400999999998566,-0.15440089415977973,-0.33944025493450974
12.600999999998455,-0.14422025123451682,-0.2793376977666272
12.800999999998345,-0.11558612006396005,-0.22748591361231654
13.000999999998234,-0.07738117206316063,-0.1779399770370956
13.200999999998123,-0.02947262903817584,-0.12124270515522804
13.400999999998012,0.017700268574901222,-0.05030251235118428
13.600999999997901,0.0552910320083959,0.022507401975330518
13.80099999999779,0.08308163526235043,0.08865611525493826
14.00099999999768,0.11246248977908593,0.1668413912322946
14.200999999997569,0.14002365672215114,0.246607373442924
14.400999999997458,0.16639164456978286,0.322444983994602
14.600999999997347,0.21791040792050456,0.4009410919069917
14.800999999997236,0.28137773082757944,0.4671642800722039
15.000999999997125,0.355714565411221,0.5229466953977265
15.200999999997014,0.42550453883008565,0.5484183098212667
15.400999999996904,0.47869560248035087,0.5431002089343836
15.600999999996793,0.5109902868943266,0.5263644007885804
15.800999999996682,0.5130066327902958,0.4972695148685427
16.000999999996573,0.49921610904753183,0.45443920098835183
16.200999999996817,0.4759244429297789,0.4056586626261338
16.40099999999706,0.44474958262930153,0.3536200098274497
16.600999999997306,0.4029531247965224,0.29940447094691797
16.80099999999755,0.3578131912878601,0.2491149663167767
17.000999999997795,0.3038266818614004,0.20555619818566306
17.20099999999804,0.24303101648011602,0.1651180307313716
17.400999999998284,0.17038002199872632,0.12845650575030876
17.60099999999853,0.1003420500379669,0.11906970005753824
17.800999999998773,0.04442409574081267,0.13591377870866544
18.000999999999017,-0.015722874436964254,0.15795325920662096
18.20099999999926,-0.07187576644709695,0.1834639460563818
18.400999999999506,-0.12298266085959646,0.22316899444411237
18.60099999999975,-0.1748223417154004,0.2803505279968775
18.799999999999994,-0.2227425454325348,0.3556462225570296
19.000000000000238,-0.26185605834949327,0.4306696850371124
19.200000000000482,-0.28997330707247376,0.5045231404218244
19.400000000000727,-0.3049800521681774,0.5825491288268647
19.60000000000097,-0.30822865755470275,0.6530899382334361
19.800000000001216,-0.2905630957820911,0.7211907582674714
20.00000000000146,-0.2548051065699488,0.7864179927438452
