Time (s),X (m),Y (m)
0.001,-0.0004427414248986554,-0.0007899207378008392
0.20000000000000015,0.004724169073086479,0.004789552697460663
0.4000000000000003,0.015433978348098839,0.004652844275078927
0.6000000000000004,0.033948371332401715,0.005868708778669243
0.8000000000000006,0.052540568440418524,0.010954225410730382
1.0000000000000007,0.07231667207521363,0.010969948103154256
1.2009999999999785,0.10328763921727208,-0.012561456269603415
1.4009999999999565,0.12729862690595886,-0.04531419188588587
1.6009999999999345,0.15776674992630121,-0.08358231046944391
1.8009999999999124,0.18006829487451628,-0.11943715141593537
2.0009999999998906,0.2156733074602526,-0.1543579651187831
2.2009999999998686,0.2634588818718927,-0.19174939455606432
2.4009999999998466,0.31610319726961267,-0.23539797847085359
2.6009999999998246,0.36286190288416753,-0.2856991002450367
2.8009999999998025,0.39934868195536205,-0.3411931427904243
3.0009999999997805,0.41941973521292863,-0.4029686293994577
3.2009999999997585,0.4136095285170131,-0.4582203874099593
3.4009999999997365,0.39402787533458195,-0.49074823996416195
3.6009999999997144,0.36785508229306263,-0.5408680559883391
3.8009999999996924,0.33814189760101093,-0.5931408097853064
4.000999999999671,0.3126722788267998,-0.6542274986357562
4.200999999999738,0.282968389000419,-0.6936283138030984
4.400999999999804,0.24777259962511777,-0.7071970929925309
4.600999999999871,0.215417220787703,-0.7384537177793655
4.800999999999938,0.17889175913932628,-0.7885867623593186
5.000000000000004,0.13875181137034107,-0.8487957082592644
5.200000000000071,0.09731589687528719,-0.9054654863609705
5.400000000000138,0.05715765070834593,-0.9683857149384412
5.600000000000205,0.011713607514349125,-1.0217807362260274
5.800000000000272,-0.0395069738852461,-1.0639777249033635
6.000000000000338,-0.09532379379547865,-1.0961499551221778
6.200000000000405,-0.15788555472518193,-1.1276153907796582
6.400000000000472,-0.21992513682596748,-1.1535640822506676
6.600000000000539,-0.2835683798204558,-1.150530651830465
6.800000000000606,-0.33044937547109937,-1.1239996685638698
7.000000000000672,-0.37306556223443427,-1.080231911555108
7.200000000000739,-0.4178495965805404,-1.023695615290394
7.400000000000806,-0.45027087182204206,-0.9627769514939509
7.600000000000873,-0.4852822057028371,-0.8989158292096611
7.8000000000009395,-0.5251417965238953,-0.8339485375944513
8.000000000001005,-0.5556983327541994,-0.7785279301166103
8.200000000000895,-0.5451416882592095,-0.7173881760481164
8.400000000000784,-0.5110693642484582,-0.6562184285239844
8.600000000000673,-0.45955692478296123,-0.6044142382881722
8.800000000000562,-0.39532206391732433,-0.5536371846740287
9.000000000000451,-0.32627591737165407,-0.5103608709766451
9.20000000000034,-0.2531361806123809,-0.4544460314035721
9.40000000000023,-0.18198706010018814,-0.3985341907676047
9.600000000000119,-0.11267346443952694,-0.3526501538028308
9.800000000000008,-0.04754483977424724,-0.29716139426185717
10.000999999999896,0.0035281252452371,-0.23188052767295672
10.200999999999786,0.046958328225805326,-0.15351827579744493
10.400999999999675,0.07581682464823791,-0.08123431386331476
10.600999999999564,0.09044178983570014,-0.011139478708933823
10.800999999999453,0.0990763654231458,0.08048808519752117
11.000999999999342,0.11896102100814158,0.16311002675075606
11.200999999999231,0.16542264171536086,0.235260051531046
11.40099999999912,0.23457012077190298,0.3110943270965708
11.60099999999901,0.31351456406273953,0.37710643427133084
11.800999999998899,0.3906002753994175,0.43302944170925817
12.000999999998788,0.48002917675674484,0.4883556646855888
12.200999999998677,0.56727970288397,0.5354533565142967
12.400999999998566,0.6554552708056606,0.5728884175706201
12.600999999998455,0.727322261092878,0.5939341267158352
12.800999999998345,0.7947142388266937,0.5893599250314201
13.000999999998234,0.8648312613596028,0.5652693869788495
13.200999999998123,0.9286441798105427,0.5255189936154468
13.400999999998012,0.9868473953429399,0.4621334155484252
13.600999999997901,1.0343059527041405,0.38821540081934675
13.80099999999779,1.0770329194648367,0.30463051374250666
14.00099999999768,1.118498249102248,0.2095688772819873
14.200999999997569,1.1599078706743702,0.10660349961416937
14.400999999997458,1.1997603298545605,0.004026271884952138
14.600999999997347,1.2408224212783576,-0.08933293463588046
14.800999999997236,1.275558976033463,-0.1758047296129551
15.000999999997125,1.295986821230898,-0.2426750524309419
15.200999999997014,1.2962719664074556,-0.3048476630834785
15.400999999996904,1.2671661350302192,-0.3567515068118417
15.600999999996793,1.2180539958964174,-0.4022985229035117
15.800999999996682,1.1665518081437989,-0.41779664104085673
16.000999999996573,1.128290935530066,-0.4018141053640833
16.200999999996817,1.0926738684353494,-0.354080872497641
16.40099999999706,1.0529418823516976,-0.28054016881478433
16.600999999997306,1.018141473963569,-0.21338834500068088
16.80099999999755,1.0042873805572063,-0.16455989094980414
17.000999999997795,1.024051136133138,-0.11305861444937675
17.20099999999804,1.0651577942806252,-0.04429592267838132
17.400999999998284,1.1060700653339626,0.021063785051839992
17.60099999999853,1.1462008341118215,0.07567428255355486
17.800999999998773,1.1873182168180227,0.12700569438117357
18.000999999999017,1.2335959470777489,0.2016831489112876
18.20099999999926,1.2770481243053322,0.28263878846981
18.400999999999506,1.320903089132176,0.34333901773385067
18.60099999999975,1.3629507216534489,0.4025013213452957
18.799999999999994,1.3979239895532531,0.47716417927837906
19.000000000000238,1.4373383915085902,0.5580848921431296
19.200000000000482,1.4986175788993175,0.6302310086275936
19.400000000000727,1.5733136843063336,0.6921969413983085
19.60000000000097,1.6564721063735692,0.7479076003751968
19.800000000001216,1.7375641583418853,0.7914783182469806
20.00000000000146,1.8152851886809704,0.8295897816656669
