Time (s),X (m),Y (m)
0.001,-4.680521708071185e-05,0.00099603208171127
0.20000000000000015,0.00158181458220991,-0.0019677617237475065
0.4000000000000003,0.0033659592307658365,-0.00127434882153165
0.6000000000000004,0.01123692483859737,-0.011548727806559118
0.8000000000000006,0.022189420126853942,-0.010066275630363188
1.0000000000000007,0.02645484447062322,-0.010257728145227046
1.2009999999999785,0.030035540268376383,-0.007584389261714634
1.4009999999999565,0.04029726811895235,0.0012306812415822336
1.6009999999999345,0.05185857291846123,0.004070155311731149
1.8009999999999124,0.05938339384955425,-0.011284695481254397
2.0009999999998906,0.06258545808724027,-0.01575577675181434
2.2009999999998686,0.0681016513540011,-0.03089622873738799
2.4009999999998466,0.0850434656158225,-0.040051180184609465
2.6009999999998246,0.10447714143016863,-0.04898540622046986
2.8009999999998025,0.11776970162976248,-0.05410090561409819
3.0009999999997805,0.13379961684594838,-0.0617704495012037
3.2009999999997585,0.14714317134198587,-0.07252025272447338
3.4009999999997365,0.16617523807207446,-0.08249564114316311
3.6009999999997144,0.18214832669652767,-0.09328085940053263
3.8009999999996924,0.20619603971404266,-0.09234219340751561
4.000999999999671,0.22330890564379083,-0.10218616967248793
4.200999999999738,0.23787144307854563,-0.11428158132457922
4.400999999999804,0.24346348403038448,-0.1400798180589009
4.600999999999871,0.25290928490245823,-0.15292854613091408
4.800999999999938,0.2650995019918752,-0.1621510090383087
5.000000000000004,0.2826957407590189,-0.16671281324992474
5.200000000000071,0.2866187265154943,-0.1806423059023606
5.400000000000138,0.290629755513869,-0.19353804159891635
5.600000000000205,0.2950320059077432,-0.2174171797462112
5.800000000000272,0.3001145410478012,-0.24080896344453748
6.000000000000338,0.31484343899933953,-0.25622752567698204
6.200000000000405,0.33005439341497755,-0.2674524460937839
6.400000000000472,0.34512727523238323,-0.28631421984956473
6.600000000000539,0.36240676549702666,-0.29864922758901746
6.800000000000606,0.3705089499484108,-0.31786152381886285
7.000000000000672,0.3763733789286593,-0.33744232841353455
7.200000000000739,0.39259796674246167,-0.3481349730367131
7.400000000000806,0.40908328158513513,-0.3603874569870296
7.600000000000873,0.41974242786138266,-0.3823675602089717
7.8000000000009395,0.4352602098249187,-0.3990778399320986
8.000000000001005,0.441826348235388,-0.418596022315249
8.200000000000895,0.4524475787776411,-0.43686754571622666
8.400000000000784,0.4570595787245398,-0.45129788270661814
8.600000000000673,0.47453715881227865,-0.45334826599588696
8.800000000000562,0.48608214160258967,-0.4634368895557441
9.000000000000451,0.5019371944861651,-0.4784075618886953
9.20000000000034,0.5234478470497268,-0.48733663932699045
9.40000000000023,0.5340078348829509,-0.49318878415744277
9.600000000000119,0.5451204875968281,-0.5002064216993862
9.800000000000008,0.563001139730238,-0.5048601989872578
10.000999999999896,0.571744151908121,-0.5167821204515541
10.200999999999786,0.5908923365952855,-0.5123320430603473
10.400999999999675,0.6092963532665056,-0.5226452396517837
10.600999999999564,0.6211488179047986,-0.5370311962227629
10.800999999999453,0.6380537959972561,-0.5530176304452641
11.000999999999342,0.6508000233482524,-0.5631768860699996
11.200999999999231,0.660346473034655,-0.5793119012298352
11.40099999999912,0.6674564173737889,-0.6029955560370027
11.60099999999901,0.6859726543959416,-0.6139289120583574
11.800999999998899,0.7098169577974525,-0.618237692968698
12.000999999998788,0.7210673161153975,-0.6306492289545701
12.200999999998677,0.7243429476428436,-0.6494779431505628
12.400999999998566,0.7329694847424022,-0.6637479749849661
12.600999999998455,0.7384333023325989,-0.6774593071902969
12.800999999998345,0.7507881350917903,-0.6901586174929463
13.000999999998234,0.7555006775603098,-0.7156563534902243
13.200999999998123,0.7668529834795517,-0.7309439105906345
13.400999999998012,0.7852414750872831,-0.7454917605572116
13.600999999997901,0.7979176588207973,-0.7660288932300037
13.80099999999779,0.8004434741340363,-0.794382753476615
14.00099999999768,0.8102353578817678,-0.8136530907167873
14.200999999997569,0.8176636875390294,-0.8288508532303559
14.400999999997458,0.831720005639757,-0.8440831095864851
14.600999999997347,0.8502437688818751,-0.8602652047062964
14.800999999997236,0.8636496580116245,-0.8840815418475211
15.000999999997125,0.8698840850478758,-0.9040740130720553
15.200999999997014,0.880070404152309,-0.9199391520226557
15.400999999996904,0.8874607377294952,-0.9431374807459451
15.600999999996793,0.8910410379678999,-0.962675398050618
15.800999999996682,0.9005554606433612,-0.9800322568436655
16.000999999996573,0.9158837543554322,-0.9804613954615622
16.200999999996817,0.9321249928591693,-0.988322102342515
16.40099999999706,0.9495139961709516,-0.9982262993300339
16.600999999997306,0.9690449026497305,-0.9985428687555339
16.80099999999755,0.9875730105968246,-1.003448703866759
17.000999999997795,1.0040177537274162,-1.0151927670611571
17.20099999999804,1.028117161851525,-1.019455096684139
17.400999999998284,1.0431046002812443,-1.0337231083950922
17.60099999999853,1.0577249728064628,-1.050188259938325
17.800999999998773,1.077377680891862,-1.0644195049597012
18.000999999999017,1.091655498725083,-1.0749208367063725
18.20099999999926,1.1039551401082515,-1.086531551533635
18.400999999999506,1.1195550604778415,-1.0963828020008812
18.60099999999975,1.1401446940299678,-1.1021400355163233
18.799999999999994,1.155233473592522,-1.1178500531322224
19.000000000000238,1.1609619629456875,-1.1359734504132377
19.200000000000482,1.172827983245263,-1.1436084441208707
19.400000000000727,1.1796498131334574,-1.1583273801068592
19.60000000000097,1.1886028186835207,-1.1729610211431278
19.800000000001216,1.2076439683392868,-1.188677602339955
20.00000000000146,1.2297150027504038,-1.198912152588486
