Time (s),X (m),Y (m)
0.001,-0.0004427414248986554,-0.0007899207378008392
0.20000000000000015,0.00464211643764629,0.0037093303437203814
0.4000000000000003,0.006488690968877418,0.002065985069055233
0.6000000000000004,0.017318369406169955,0.0009179002033842065
0.8000000000000006,0.028545290027310797,-0.001390995388216656
1.0000000000000007,0.04280135307019161,-0.005355027170167298
1.2009999999999785,0.0547704852919418,-0.00928147674321426
1.4009999999999565,0.07687295817282147,-0.009598649088483341
1.6009999999999345,0.1084852059617108,0.0012688217606091337
1.8009999999999124,0.13535580053684407,0.003699398301654911
2.0009999999998906,0.14749512915830815,0.008197743579333942
2.2009999999998686,0.17701241693573777,0.007357283831929107
2.4009999999998466,0.20651081794766443,0.011367327582691034
2.6009999999998246,0.23701240084884428,0.026705184195782685
2.8009999999998025,0.26352892134671013,0.03740619345262637
3.0009999999997805,0.2850701305787982,0.04483275780026637
3.2009999999997585,0.30556174860862967,0.0619489072135849
3.4009999999997365,0.32999560210956314,0.07639656088201265
3.6009999999997144,0.3586835549012503,0.09311996670736632
3.8009999999996924,0.3895039490711007,0.11344852858656428
4.000999999999671,0.41677508548498904,0.11554401251778319
4.200999999999738,0.4375272128664086,0.11939159365320413
4.400999999999804,0.45944097307819165,0.12729492578267487
4.600999999999871,0.4851738168650814,0.13768331922196356
4.800999999999938,0.5145004007930148,0.14330130222486287
5.000000000000004,0.5419526547218241,0.15722031163382147
5.200000000000071,0.569169059562198,0.17271504633468918
5.400000000000138,0.5908046168528923,0.1930338702276442
5.600000000000205,0.6170484110340609,0.21888188189599145
5.800000000000272,0.6438906935756615,0.2428269260009421
6.000000000000338,0.6675962209725972,0.2646419148543963
6.200000000000405,0.6948678799648813,0.283366365291137
6.400000000000472,0.7268258028107909,0.2907160959900942
6.600000000000539,0.7559441016400611,0.30592919310891686
6.800000000000606,0.7838712433815206,0.325730808489021
7.000000000000672,0.8092575587212721,0.33505679350632306
7.200000000000739,0.8347264014799054,0.3480341577999109
7.400000000000806,0.8621355745492378,0.3596628800752862
7.600000000000873,0.8915966174763713,0.3659843522834809
7.8000000000009395,0.9184004576490361,0.3913084797586925
8.000000000001005,0.9376931577850461,0.4110700707590768
8.200000000000895,0.9594640646600383,0.4236305148828326
8.400000000000784,0.9836545858650737,0.45206993517478705
8.600000000000673,1.0047627118592193,0.4758920750568566
8.800000000000562,1.027095539265798,0.5051899399607661
9.000000000000451,1.0440091146988286,0.5383012101976833
9.20000000000034,1.0607405985975853,0.5693380480459728
9.40000000000023,1.0828945328444377,0.5988501166868151
9.600000000000119,1.1105486760507606,0.6199832195229268
9.800000000000008,1.1382913629147278,0.6325711666988088
10.000999999999896,1.1601843831477459,0.6590369273991102
10.200999999999786,1.1793482664907924,0.6788028189121555
10.400999999999675,1.2010483188706642,0.6933019875695254
10.600999999999564,1.2254952957019944,0.7077932252144039
10.800999999999453,1.2480114672020686,0.7421820152168328
11.000999999999342,1.272432142933739,0.7751146400908152
11.200999999999231,1.2971392469326557,0.815878351723305
11.40099999999912,1.3240155936129328,0.8501309467617175
11.60099999999901,1.3501333732016607,0.8782570653134084
11.800999999998899,1.37153520449355,0.904705902269163
12.000999999998788,1.3873046039811143,0.9342996583426609
12.200999999998677,1.4037657930091567,0.9688009996550078
12.400999999998566,1.416846364000257,1.0051382817625079
12.600999999998455,1.4336775386911231,1.0415327254514817
12.800999999998345,1.447909424722801,1.0817078815251155
13.000999999998234,1.4654873993508555,1.1088780423387918
13.200999999998123,1.4805860524574679,1.1369340680082862
13.400999999998012,1.4951214996987905,1.1686386686189032
13.600999999997901,1.5153709351410163,1.1973163701711835
13.80099999999779,1.5284790458987436,1.2208153929648564
14.00099999999768,1.540499472752227,1.2560484970338923
14.200999999997569,1.5611856612535415,1.2882470775403492
14.400999999997458,1.5736661206162565,1.3199781301975462
14.600999999997347,1.5894954873471265,1.3446899207171576
14.800999999997236,1.6057002875340023,1.383066235733577
15.000999999997125,1.6219728459480764,1.4219348015391051
15.200999999997014,1.6408799339326103,1.4465610373883337
15.400999999996904,1.6655595923678095,1.4632663619968007
15.600999999996793,1.6923926011715447,1.4795556764746087
15.800999999996682,1.7172478306731762,1.509274016172042
16.000999999996573,1.7437370377913686,1.5464042379957876
16.200999999996817,1.77045842812867,1.5730210165626244
16.40099999999706,1.7967715663173431,1.606117277805369
16.600999999997306,1.8244583185497936,1.6385634933879278
16.80099999999755,1.8479917359621096,1.6643176740321068
17.000999999997795,1.8685837049791114,1.6883953246720673
17.20099999999804,1.8878781278228038,1.7167343058398963
17.400999999998284,1.9083130681532412,1.7431283866780212
17.60099999999853,1.9359204803032874,1.7646299992174797
17.800999999998773,1.9628030099970537,1.7839432137306306
18.000999999999017,1.9904339949152936,1.8134224664280543
18.20099999999926,2.0163898829052274,1.8311908918978899
18.400999999999506,2.0455201817690893,1.8425438653645236
18.60099999999975,2.067334309475184,1.8536421113383648
18.799999999999994,2.0852144859554413,1.8663292406338439
19.000000000000238,2.105700125793013,1.893540570633249
19.200000000000482,2.1292180280645643,1.931113531391035
19.400000000000727,2.1533686350716392,1.965787500646992
19.60000000000097,2.176055208686389,1.9982651362622326
19.800000000001216,2.197806756783916,2.0308032210669626
20.00000000000146,2.223961253427154,2.0589055546024584
