Time (s),X (m),Y (m)
0.001,0.0002200807748493132,0.0010311682891199472
0.20000000000000015,0.002509505524354422,0.0058560918508189525
0.4000000000000003,0.005148870161095587,0.003712384910141535
0.6000000000000004,0.005334460371534503,0.013914136598641753
0.8000000000000006,0.009613542649113066,0.010507600569938012
1.0000000000000007,0.013854811969884894,0.007933539616532079
1.2009999999999785,0.018411783079700966,0.01109965880968468
1.4009999999999565,0.02674793513277683,0.01796198576161068
1.6009999999999345,0.0331213115709525,0.018491837789505316
1.8009999999999124,0.04097185825964806,0.017425233979621223
2.0009999999998906,0.04771809478646702,0.022922878372747254
2.2009999999998686,0.05384501270458082,0.019799939743950487
2.4009999999998466,0.058040611494956186,0.01736428820289739
2.6009999999998246,0.06430766646126851,0.01924973842595794
2.8009999999998025,0.07213794888188513,0.015237180865705025
3.0009999999997805,0.07922553560168993,0.012112222038349031
3.2009999999997585,0.0864470285913862,0.010227038125322819
3.4009999999997365,0.09217335045619213,0.014795409860880246
3.6009999999997144,0.09794036006851176,0.016704185324565506
3.8009999999996924,0.10228492529635208,0.016241290897692273
4.000999999999671,0.10751522313409406,0.017055154381240323
4.200999999999738,0.11749380827705992,0.01706899977708005
4.400999999999804,0.11954483479773917,0.023421520334227362
4.600999999999871,0.12294044812513379,0.02849599975503888
4.800999999999938,0.13030540023499076,0.03162024428989645
5.000000000000004,0.13595613974919865,0.037982536617533355
5.200000000000071,0.1426484251363791,0.04036210173523621
5.400000000000138,0.13634060473047546,0.05012603365622511
5.600000000000205,0.13900745520118873,0.05683136654119847
5.800000000000272,0.14053918674002738,0.062078165839343204
6.000000000000338,0.1419565619512642,0.06757902412059442
6.200000000000405,0.1450787343029019,0.07494826172892768
6.400000000000472,0.14252508571073472,0.08237797860316831
6.600000000000539,0.14942941752503192,0.08697151635270618
6.800000000000606,0.15078520570012593,0.09222894405782604
7.000000000000672,0.15466966760178386,0.09800914073488633
7.200000000000739,0.15524368068104222,0.10563103330671235
7.400000000000806,0.15688077865830374,0.11270766934134545
7.600000000000873,0.15194901477484551,0.12108501683032734
7.8000000000009395,0.15562293888248657,0.12777162001196918
8.000000000001005,0.15575663995131853,0.13453434804117212
8.200000000000895,0.15300672572764903,0.14211213247452667
8.400000000000784,0.1539545201746729,0.14939308039487934
8.600000000000673,0.15273212076155868,0.1560878709918347
8.800000000000562,0.15249919579496313,0.1634528852902531
9.000000000000451,0.1525047631901532,0.16971150278359162
9.20000000000034,0.145568871296793,0.1767655581859777
9.40000000000023,0.14508892695820755,0.18336595545771664
9.600000000000119,0.14105448281455982,0.19054461108420664
9.800000000000008,0.1344055494712681,0.19579918835328408
10.000999999999896,0.12986012645113945,0.19909485699808033
10.200999999999786,0.12796135875509929,0.20538390783039073
10.400999999999675,0.12517087939682742,0.21164637619336485
10.600999999999564,0.11922690839544074,0.21823465017739643
10.800999999999453,0.11574292105409414,0.22432625979951926
11.000999999999342,0.10973001260262058,0.2305000504541645
11.200999999999231,0.10659699043599083,0.2365673274439783
11.40099999999912,0.10537309504169258,0.24498359331435088
11.60099999999901,0.10174565315982131,0.25232512091382
11.800999999998899,0.09421968437705219,0.25218378470598246
12.000999999998788,0.08925309770361706,0.258475508139469
12.200999999998677,0.08382442385395188,0.26500825145812107
12.400999999998566,0.07761033852354304,0.2724723313253986
12.600999999998455,0.07220400630892033,0.27837593670429656
12.800999999998345,0.06399653992347373,0.2787117809372264
13.000999999998234,0.054777858109284545,0.28001634681552917
13.200999999998123,0.04664308339585953,0.27920608871438923
13.400999999998012,0.03873355581544463,0.28005077887410373
13.600999999997901,0.0317058706518504,0.2813278268215254
13.80099999999779,0.023559038491144175,0.2854330874316908
14.00099999999768,0.016345621333233386,0.28068023888641175
14.200999999997569,0.008269286475657202,0.2759425328194551
14.400999999997458,0.001489991793642261,0.274916405592811
14.600999999997347,-0.006222380128237937,0.27412451588807324
14.800999999997236,-0.01273880117278606,0.2743941853179192
15.000999999997125,-0.01984536588455067,0.27358890346568876
15.200999999997014,-0.025735145369004113,0.2695979755890855
15.400999999996904,-0.032531796490572855,0.2734796732020273
15.600999999996793,-0.039179863474345586,0.26968256353478554
15.800999999996682,-0.04536859346554166,0.26611281450276303
16.000999999996573,-0.05267769304335037,0.2645920553127127
16.200999999996817,-0.05696810851449979,0.25939586552568905
16.40099999999706,-0.059932979251340474,0.25310685239380254
16.600999999997306,-0.06581296401524296,0.24740427933971051
16.80099999999755,-0.07124934609241729,0.24384074238113718
17.000999999997795,-0.07840786708756109,0.2396118040435912
17.20099999999804,-0.08500340887278399,0.23260785508834714
17.400999999998284,-0.09097060348770439,0.2260428695849092
17.60099999999853,-0.10320432006232866,0.22548025765410856
17.800999999998773,-0.11132669370058802,0.22120545469364614
18.000999999999017,-0.11558006052896924,0.21327844084628836
18.20099999999926,-0.12107629437688562,0.2082420417056827
18.400999999999506,-0.12758018614825523,0.20355880510119184
18.60099999999975,-0.13389746787342666,0.19779950215414352
18.799999999999994,-0.13217366585095575,0.18914080672052916
19.000000000000238,-0.13225143801363254,0.18096853589233142
19.200000000000482,-0.12899445479686056,0.1717312507796839
19.400000000000727,-0.13244559589595256,0.1646600202245604
19.60000000000097,-0.13534671876088453,0.15811279063763137
19.800000000001216,-0.13892331132428185,0.15041203237756975
20.00000000000146,-0.1430379875462784,0.14296412284468255
