Time (s),X (m),Y (m)
0.001,0.0008829029745972832,0.0007899207378008392
0.20000000000000015,0.00010846642348792775,-0.002362215586322765
0.4000000000000003,0.0056317095564682685,-0.004279825904272711
0.6000000000000004,0.009703762543795638,-0.0032622621019273296
0.8000000000000006,0.021276312629228848,-0.006313003236902131
1.0000000000000007,0.02963677326044324,-0.003625839777846337
1.2009999999999785,0.049273835328265035,0.0068567075198225445
1.4009999999999565,0.07290852265369771,0.010261224487225686
1.6009999999999345,0.095300390659056,0.025457284288334946
1.8009999999999124,0.11167012282425466,0.04091368076850714
2.0009999999998906,0.12585583140426201,0.05117839710780276
2.2009999999998686,0.14467824646081892,0.05158770638096836
2.4009999999998466,0.1664856716796651,0.052032734280651916
2.6009999999998246,0.18612565901005498,0.06902048912768706
2.8009999999998025,0.21031094739482709,0.08193953306207265
3.0009999999997805,0.2337528216750795,0.08431780028889312
3.2009999999997585,0.2574619538517477,0.09342184213526704
3.4009999999997365,0.27973043973489303,0.10740473040778133
3.6009999999997144,0.30379608266769365,0.11494935004970773
3.8009999999996924,0.3296590186918787,0.13818707005812608
4.000999999999671,0.3537697440609022,0.15034972341748945
4.200999999999738,0.38291933265877953,0.15780783919715738
4.400999999999804,0.40829808278335017,0.16867097869894737
4.600999999999871,0.4363665927705905,0.1813385420960082
4.800999999999938,0.4681593204179271,0.1967988349897778
5.000000000000004,0.49110511359098663,0.2095270260418968
5.200000000000071,0.5145323855035085,0.21969215909756482
5.400000000000138,0.5351839364508599,0.23351133273448865
5.600000000000205,0.5595331852315535,0.25789260250673063
5.800000000000272,0.5830416994917168,0.26808378257904564
6.000000000000338,0.6066276770572392,0.264778880617916
6.200000000000405,0.6267985820390435,0.27825257598472897
6.400000000000472,0.6495095082595006,0.28302669479059356
6.600000000000539,0.6696532581432778,0.28674011384812037
6.800000000000606,0.6895581267758469,0.3119949384491541
7.000000000000672,0.7125360792004625,0.32782649480634707
7.200000000000739,0.7367600427472554,0.35045401493080075
7.400000000000806,0.7558018836734477,0.38662853564114386
7.600000000000873,0.769860332755906,0.405421793814838
7.8000000000009395,0.7860779412504698,0.4221663519584682
8.000000000001005,0.8029422093996718,0.44405208103101274
8.200000000000895,0.8290961327869646,0.46076743827474953
8.400000000000784,0.8590973934619796,0.4769335875748853
8.600000000000673,0.8828382699819111,0.4961272081382459
8.800000000000562,0.8975455192742691,0.5169594305823962
9.000000000000451,0.9096149122641521,0.5332973399885635
9.20000000000034,0.9259244212771817,0.5515401803799551
9.40000000000023,0.9459807130350479,0.576034308726129
9.600000000000119,0.9628737738515828,0.5973878011312395
9.800000000000008,0.9776636486033989,0.6168905670220483
10.000999999999896,0.9905873403382163,0.640967115978362
10.200999999999786,0.9990708775719882,0.6703510804232611
10.400999999999675,1.0066552386408607,0.7018644269892655
10.600999999999564,1.0108335747354429,0.7322491256952535
10.800999999999453,1.0155295346486237,0.7652485573652935
11.000999999999342,1.023500912000643,0.7885846732681239
11.200999999999231,1.0339426568485162,0.8186353325881777
11.40099999999912,1.0476212955221367,0.8603722725421125
11.60099999999901,1.0603629568578516,0.8950502880110226
11.800999999998899,1.070290903437084,0.9290091309337447
12.000999999998788,1.0880304680799502,0.9539067468854716
12.200999999998677,1.101559129733301,0.9812763954912799
12.400999999998566,1.1091952872105293,1.015253071274729
12.600999999998455,1.1173661013641236,1.0496740649669392
12.800999999998345,1.1310836212858093,1.0796104407459877
13.000999999998234,1.1428126893366741,1.107672419805412
13.200999999998123,1.1480581426182421,1.1326502820975266
13.400999999998012,1.140486597505794,1.1733459544508171
13.600999999997901,1.1333935833280817,1.2109550580160664
13.80099999999779,1.1215133121515584,1.2483974552151935
14.00099999999768,1.1124001256334621,1.2698521201207185
14.200999999997569,1.1030848819268115,1.2940908234895117
14.400999999997458,1.1019945135221392,1.3203368493379677
14.600999999997347,1.0999629889881513,1.35601426429291
14.800999999997236,1.0968062347625314,1.3932838251280488
15.000999999997125,1.09346371104751,1.4303499309959995
15.200999999997014,1.0933345421623892,1.4639043630774802
15.400999999996904,1.098611371422521,1.4882532727683047
15.600999999996793,1.1026513248794485,1.5204471115660503
15.800999999996682,1.1072262516585352,1.5552496906414612
16.000999999996573,1.1014742422895663,1.5993711224828415
16.200999999996817,1.1039724704638396,1.6304426233720288
16.40099999999706,1.106873759136701,1.6590627606269814
16.600999999997306,1.1152140092826526,1.6814894000472866
16.80099999999755,1.1248388300711043,1.7116028153736398
17.000999999997795,1.1248790019379407,1.7549542566363763
17.20099999999804,1.1246679018223098,1.7908735458555902
17.400999999998284,1.122865546189693,1.8299204361868668
17.60099999999853,1.1239303457704735,1.8670323186827256
17.800999999998773,1.1267075700187414,1.898916948995145
18.000999999999017,1.1223750228146432,1.9379640388754875
18.20099999999926,1.1201725658055055,1.976676714579108
18.400999999999506,1.1103033251757894,2.013848424221095
18.60099999999975,1.1012127458626901,2.0449508825394753
18.799999999999994,1.092520682258415,2.0888579517529977
19.000000000000238,1.0840086268247167,2.1301804665822206
19.200000000000482,1.065631032934,2.168354319402115
19.400000000000727,1.0538962863257693,2.203046313214069
19.60000000000097,1.0380242163904712,2.2323001537220297
19.800000000001216,1.0148624758395162,2.26782900828482
20.00000000000146,1.0074234956996873,2.3024901391921415
