Time (s),X (m),Y (m)
0.001,-0.00021570977506068912,-0.0009345558501746678
0.20000000000000015,0.003147058815031162,0.0038955245819650604
0.4000000000000003,0.00633900550928723,0.002428123145645171
0.6000000000000004,0.0166654320253239,0.0021527597829262956
0.8000000000000006,0.029105933777176605,-0.007239145117803797
1.0000000000000007,0.04875828492886716,-0.004524929485562726
1.2009999999999785,0.06899035933661345,0.0026636343125184445
1.4009999999999565,0.0873525294052134,0.0026406452004445347
1.6009999999999345,0.10861349726530287,0.011479818128257137
1.8009999999999124,0.12764928607265336,0.010938329788463983
2.0009999999998906,0.15389725794201398,0.011785702300926949
2.2009999999998686,0.17880707496510972,0.011638901711841428
2.4009999999998466,0.19373352371241995,0.014883145757188363
2.6009999999998246,0.21283395506210023,0.01063433287349918
2.8009999999998025,0.22810903330750124,-0.011081271700969616
3.0009999999997805,0.24420668390402042,-0.013543025915103944
3.2009999999997585,0.2683400786020126,-0.009243010297283047
3.4009999999997365,0.2893431972456059,-0.006990785745548497
3.6009999999997144,0.31339434493911655,0.004265787563591389
3.8009999999996924,0.3404630550032279,0.024590246276483596
4.000999999999671,0.3655472417574106,0.03671432601906606
4.200999999999738,0.38943895062356254,0.050743253974961725
4.400999999999804,0.41744427426543884,0.06692869443965759
4.600999999999871,0.44767170887380037,0.08974519720507362
4.800999999999938,0.4792852624745247,0.10873066869963546
5.000000000000004,0.5060441936674881,0.11983672714344493
5.200000000000071,0.5275993179445485,0.12896397362384135
5.400000000000138,0.5578016909472695,0.1287346863969895
5.600000000000205,0.5841749300479367,0.13070039897158722
5.800000000000272,0.6106084109721269,0.14209553912587466
6.000000000000338,0.6378202264929593,0.1515261001110123
6.200000000000405,0.6615614389692093,0.16151096425056416
6.400000000000472,0.681270491773249,0.17142834200084758
6.600000000000539,0.7025591041294015,0.1938147139656496
6.800000000000606,0.7297311384977598,0.19754286139297736
7.000000000000672,0.7549812504093399,0.20633670748393385
7.200000000000739,0.7839214237813961,0.20349454052352456
7.400000000000806,0.8141017248799073,0.2038952853424217
7.600000000000873,0.8421846402304103,0.2130319699667585
7.8000000000009395,0.8730361415944389,0.2298085174202619
8.000000000001005,0.9054151057657668,0.24065266200557547
8.200000000000895,0.9364393437870341,0.26750866626753
8.400000000000784,0.9669483829740365,0.29966678534213603
8.600000000000673,0.9951246666767386,0.31730898826059745
8.800000000000562,1.0211988066064508,0.3377355755729853
9.000000000000451,1.04856238426287,0.3540041270857247
9.20000000000034,1.074444169011482,0.3758337670651078
9.40000000000023,1.1012648390974153,0.3840148838511832
9.600000000000119,1.1266121785062535,0.4047564704665303
9.800000000000008,1.1512336105579732,0.4245031993815342
10.000999999999896,1.1768203100498829,0.43513882657799063
10.200999999999786,1.2007815705912435,0.4552527994489278
10.400999999999675,1.2261778917329798,0.4833239940663842
10.600999999999564,1.2519128981442231,0.503600633098055
10.800999999999453,1.2817029251572771,0.5375486257299724
11.000999999999342,1.3115479713456102,0.562529969408931
11.200999999999231,1.338167767892349,0.5799600933497637
11.40099999999912,1.3668494999984393,0.5958293973738792
11.60099999999901,1.3908350897114774,0.627204215258689
11.800999999998899,1.4206906486606503,0.6470812208214436
12.000999999998788,1.4477852740323618,0.6603470631480531
12.200999999998677,1.4770610106233932,0.6882453925255019
12.400999999998566,1.5063885496161802,0.7023295380010783
12.600999999998455,1.5397317795171022,0.7029471527425101
12.800999999998345,1.5739047547537377,0.7172588803724327
13.000999999998234,1.6049151558572292,0.7455142574171589
13.200999999998123,1.6368765075341125,0.7696652129558929
13.400999999998012,1.6612243770436024,0.7992194327687553
13.600999999997901,1.6875474473443026,0.8154097959394307
13.80099999999779,1.7137011491281966,0.8230789627719635
14.00099999999768,1.7438281017059567,0.8425697492086079
14.200999999997569,1.7763476329681815,0.8717116959359539
14.400999999997458,1.8083065250539063,0.8749920164313761
14.600999999997347,1.839831068485586,0.88277036926243
14.800999999997236,1.8684343919218092,0.9048352110607061
15.000999999997125,1.8972290857661247,0.9238813627261139
15.200999999997014,1.9289567629996496,0.9442980099950964
15.400999999996904,1.9661571301808587,0.962709261245392
15.600999999996793,1.995366442303151,0.9880145434733063
15.800999999996682,2.024368707306786,0.9955018136818603
16.000999999996573,2.0539553978260314,1.0108046322817723
16.200999999996817,2.0780572148087035,1.0305030185775916
16.40099999999706,2.1007779150048562,1.0529803946251743
16.600999999997306,2.1239264027787645,1.0568672114260298
16.80099999999755,2.142058815313724,1.0759157196848717
17.000999999997795,2.164258638125466,1.090651978092215
17.20099999999804,2.189906074944153,1.1079429380036454
17.400999999998284,2.2140257267606933,1.1200708579845542
17.60099999999853,2.239244173599553,1.1406459681097052
17.800999999998773,2.270279588223393,1.1575800023531435
18.000999999999017,2.298450744435051,1.175211493591607
18.20099999999926,2.3322442636933736,1.1916954051314337
18.400999999999506,2.3658051917751095,1.2037885747701413
18.60099999999975,2.3921836297332537,1.2285913984953318
18.799999999999994,2.4158384941746736,1.2497826733582837
19.000000000000238,2.4428495075515047,1.2671772518287288
19.200000000000482,2.4720459775667365,1.2912653835624068
19.400000000000727,2.502196356625975,1.3212812616353946
19.60000000000097,2.5315906177382486,1.3353778916531127
19.800000000001216,2.560911024265561,1.357394483984891
20.00000000000146,2.5891248131129183,1.380588772911002
