Time (s),X (m),Y (m)
0.001,0.0007356649194092869,0.0008930179339548111
0.20000000000000015,0.002173149902407555,-0.002022859086225719
0.4000000000000003,0.016025911688540395,-0.0034816778945989976
0.6000000000000004,0.029344817447578865,-0.015475768322744674
0.8000000000000006,0.050101762591023155,-0.025730438802929433
1.0000000000000007,0.07424519181462427,-0.035121430455851144
1.2009999999999785,0.1100517425351847,-0.05302751316206353
1.4009999999999565,0.145154454864662,-0.08017475406108579
1.6009999999999345,0.1929054042819326,-0.11545877012683829
1.8009999999999124,0.22889558903067891,-0.15424588742727732
2.0009999999998906,0.2634077238163015,-0.19156722782017196
2.2009999999998686,0.30574943139565386,-0.22334269418868394
2.4009999999998466,0.3380187374034429,-0.2569897855902492
2.6009999999998246,0.35561648029445414,-0.2933678976210848
2.8009999999998025,0.3942621784440226,-0.3343233172213227
3.0009999999997805,0.42809338369866007,-0.38123046905415814
3.2009999999997585,0.464568994319384,-0.4333788560842596
3.4009999999997365,0.4962498933639064,-0.48677333863273203
3.6009999999997144,0.5184912055007557,-0.5472206455001711
3.8009999999996924,0.5265708618603084,-0.604008026682157
4.000999999999671,0.5114225494955211,-0.6476983317164274
4.200999999999738,0.4782826518616841,-0.6866152264483257
4.400999999999804,0.43967032453746113,-0.7074315595946575
4.600999999999871,0.3926317043456032,-0.7271060619054005
4.800999999999938,0.33204418124298274,-0.7671862320439731
5.000000000000004,0.2588395066996689,-0.8060423458450036
5.200000000000071,0.176925611234601,-0.8343308298362742
5.400000000000138,0.099861333824123,-0.8435649122078356
5.600000000000205,0.02805777331364852,-0.830310123435376
5.800000000000272,-0.04894041235997506,-0.818705354868435
6.000000000000338,-0.1348720043253684,-0.8188505472155433
6.200000000000405,-0.20969338525095987,-0.828807329209362
6.400000000000472,-0.29168747153262087,-0.8221534820134444
6.600000000000539,-0.3550684690148914,-0.792052644279321
6.800000000000606,-0.38932791437843234,-0.7625606902968387
7.000000000000672,-0.40150313968897705,-0.7311547537649457
7.200000000000739,-0.39022293097596134,-0.686174378150479
7.400000000000806,-0.3626331956197729,-0.6417110773486886
7.600000000000873,-0.3161590364772417,-0.6052457821179283
7.8000000000009395,-0.2523722144427891,-0.5758960291445914
8.000000000001005,-0.19586834852279933,-0.5590283638785656
8.200000000000895,-0.1448607369248072,-0.5682496735363182
8.400000000000784,-0.09117973458455622,-0.6047261407616711
8.600000000000673,-0.050716268241813335,-0.6530420203809648
8.800000000000562,-0.027131116771678877,-0.7076797279066572
9.000000000000451,0.006703986709630452,-0.7635992098956559
9.20000000000034,0.05273949518008222,-0.8195727666333384
9.40000000000023,0.09521149880267106,-0.8831368980771237
9.600000000000119,0.1375659867981574,-0.9535412086620337
9.800000000000008,0.17917287144246463,-1.0288844082152573
10.000999999999896,0.22944900926122488,-1.1069428580670302
10.200999999999786,0.25296080367286816,-1.1626115084431357
10.400999999999675,0.2372255128861064,-1.2167113195773094
10.600999999999564,0.20491015617532424,-1.2619218642340986
10.800999999999453,0.1507746664664376,-1.3079394652297063
11.000999999999342,0.09464704230201909,-1.3435210873188306
11.200999999999231,0.03915965284847919,-1.3697456365227512
11.40099999999912,-0.027422463486784343,-1.4028963345200045
11.60099999999901,-0.08851376432954375,-1.429649668387436
11.800999999998899,-0.15462454126382277,-1.4364748945471633
12.000999999998788,-0.20949689547776834,-1.4057160537921904
12.200999999998677,-0.2515792496435094,-1.351468210369869
12.400999999998566,-0.26263826062797724,-1.3036836481788456
12.600999999998455,-0.24175993599672418,-1.2630852206284573
12.800999999998345,-0.20669944575431198,-1.2272223733818308
13.000999999998234,-0.15233325605769638,-1.200927286508021
13.200999999998123,-0.10063970562060309,-1.1878798640968216
13.400999999998012,-0.05264865649128542,-1.1982029569641868
13.600999999997901,-0.010652509914560536,-1.223617402451478
13.80099999999779,0.025084890441251714,-1.259559311899609
14.00099999999768,0.04636234932741368,-1.303398884677992
14.200999999997569,0.04122098049580575,-1.3381792453001011
14.400999999997458,0.028112963382658878,-1.3598834726536237
14.600999999997347,0.0009506173610841645,-1.3728485539650153
14.800999999997236,-0.020802348824202427,-1.3647263182115796
15.000999999997125,-0.04805958970549651,-1.336350689821215
15.200999999997014,-0.07885109489452634,-1.2882114149792432
15.400999999996904,-0.10086700953021235,-1.2371470235684265
15.600999999996793,-0.1229898666982724,-1.1825045124438105
15.800999999996682,-0.16545075313538413,-1.1094346459688438
16.000999999996573,-0.20310546806479687,-1.0359964834907842
16.200999999996817,-0.23137072600242928,-0.9607090537013399
16.40099999999706,-0.25514767863700155,-0.8925209202305896
16.600999999997306,-0.2641316708753303,-0.8333094328955517
16.80099999999755,-0.2596263121773276,-0.7806301905358639
17.000999999997795,-0.2458006728710716,-0.7196094981247843
17.20099999999804,-0.22223415615496644,-0.6665691696957786
17.400999999998284,-0.17919779132132227,-0.6213364361554998
17.60099999999853,-0.11573626003468514,-0.5767754470045229
17.800999999998773,-0.047118694492580805,-0.5366755408720797
18.000999999999017,0.023474617900882917,-0.48772467061306396
18.20099999999926,0.09477632173907592,-0.4299366967528052
18.400999999999506,0.1739934342174398,-0.35426366511475643
18.60099999999975,0.2548953791596281,-0.2860835829860278
18.799999999999994,0.33662785793818095,-0.23607134504432464
19.000000000000238,0.4232130975985189,-0.1940434521203598
19.200000000000482,0.5003484132782829,-0.15557360471634188
19.400000000000727,0.5782705228334727,-0.1287206069020023
19.60000000000097,0.6728813775657099,-0.10954029184178649
19.800000000001216,0.7864104754888622,-0.09394530460912476
20.00000000000146,0.8938293356227155,-0.10627396561498084
