Time (s),X (m),Y (m)
0.001,-0.00021570977506068912,-0.0009345558501746678
0.20000000000000015,-0.0017681640994739818,-0.004721935599064763
0.4000000000000003,-0.0005348875190914692,-0.0023209678213968027
0.6000000000000004,0.0013276655689082473,-0.003917634145781857
0.8000000000000006,0.0067222088009211735,-0.0010547936077153054
1.0000000000000007,0.011264199980160134,0.003484772263347689
1.2009999999999785,0.017844330042151576,0.009785640075860639
1.4009999999999565,0.023518654189088335,0.006887912122419492
1.6009999999999345,0.030829582921847083,0.010374253434787437
1.8009999999999124,0.037300481496463214,0.016841031932190623
2.0009999999998906,0.04481797956760703,0.01987217577695844
2.2009999999998686,0.05247174816909186,0.0247736017363243
2.4009999999998466,0.05994371480660915,0.02902264405655999
2.6009999999998246,0.06720219739408921,0.03313704275327573
2.8009999999998025,0.07427208377659981,0.03802386324371406
3.0009999999997805,0.08135380831737596,0.04253580224760119
3.2009999999997585,0.08728097540444703,0.0513579214556606
3.4009999999997365,0.09283707615849497,0.05261961871930126
3.6009999999997144,0.09735816156129755,0.051055387608382685
3.8009999999996924,0.10080667528830276,0.05776515639282423
4.000999999999671,0.10413082376168736,0.06668476141389898
4.200999999999738,0.10704061657092527,0.0731641879940291
4.400999999999804,0.1077134831868837,0.08043835164718863
4.600999999999871,0.1082243873894712,0.08809618589506188
4.800999999999938,0.1135620025461343,0.09550819575184363
5.000000000000004,0.11778152272322019,0.10238641535498207
5.200000000000071,0.11831363958491199,0.11071494124668996
5.400000000000138,0.1198175440883874,0.11604232355324852
5.600000000000205,0.11750993706453285,0.12357118566046679
5.800000000000272,0.11980121521793231,0.129238420213326
6.000000000000338,0.11911654843484262,0.13529217269987384
6.200000000000405,0.11762673647149612,0.14378191198824855
6.400000000000472,0.11759404655350757,0.1516719365068412
6.600000000000539,0.11792891775783824,0.16035542276853149
6.800000000000606,0.11433955965053522,0.16855814478654277
7.000000000000672,0.1110754630895898,0.17572298651825702
7.200000000000739,0.1073601998951457,0.1839996191682141
7.400000000000806,0.10728524538667165,0.1903625063739186
7.600000000000873,0.10134112917605562,0.19850668545472996
7.8000000000009395,0.09615469908691499,0.2067206435848523
8.000000000001005,0.09211546163870667,0.2141728064977385
8.200000000000895,0.08547344722645249,0.22198645652460056
8.400000000000784,0.08664822194551978,0.22986482928997995
8.600000000000673,0.08249880145697377,0.23592675876481556
8.800000000000562,0.08234501467593643,0.24286607619260583
9.000000000000451,0.07538392998888455,0.24761062110972704
9.20000000000034,0.06469171961309844,0.2526792752444878
9.40000000000023,0.05785712442559023,0.256340366908987
9.600000000000119,0.05350239795410006,0.25793706134841093
9.800000000000008,0.04793299265884729,0.26160579193337424
10.000999999999896,0.03427077145788535,0.26380758984770947
10.200999999999786,0.028592341717139064,0.26543507588195747
10.400999999999675,0.0228189425171752,0.26771886300662967
10.600999999999564,0.016962113175821605,0.2695583545054718
10.800999999999453,0.009714577856462726,0.27065956961629917
11.000999999999342,0.004269869695749646,0.27289710604377765
11.200999999999231,-0.0035558217186877016,0.2714688360692754
11.40099999999912,-0.01276577244577666,0.2707316605567621
11.60099999999901,-0.022957057016911055,0.26797096766564793
11.800999999998899,-0.03399190371496306,0.26681155716669575
12.000999999998788,-0.04155350897235671,0.26904432037453707
12.200999999998677,-0.05063482366762507,0.26692946805740286
12.400999999998566,-0.05690574590949879,0.26804703717283807
12.600999999998455,-0.06336463472005092,0.268246870795466
12.800999999998345,-0.07168710517899804,0.2658225836891811
13.000999999998234,-0.08050004697659398,0.25974781515396317
13.200999999998123,-0.08889207016976905,0.2503762106239196
13.400999999998012,-0.09705971038977078,0.24375568011748963
13.600999999997901,-0.10344221599373626,0.23996509979948524
13.80099999999779,-0.10993840887361021,0.2346867363624463
14.00099999999768,-0.11636981137654731,0.2294092810626108
14.200999999997569,-0.12342243987776602,0.2254268942446253
14.400999999997458,-0.12926002209752313,0.21997540414076341
14.600999999997347,-0.13580204607287816,0.22082965500606752
14.800999999997236,-0.14223170403620447,0.2204545157450729
15.000999999997125,-0.14516420602379138,0.2109457282182499
15.200999999997014,-0.14789758692470986,0.204140290825004
15.400999999996904,-0.14953746913234087,0.1981485788481644
15.600999999996793,-0.15106567791933856,0.19130504908063767
15.800999999996682,-0.15163004883463396,0.18167867524671824
16.000999999996573,-0.15603902258765365,0.17247732756161058
16.200999999996817,-0.1559638657616461,0.163504316855324
16.40099999999706,-0.1558216773907723,0.15477618622518644
16.600999999997306,-0.15499605617487833,0.14390481665886573
16.80099999999755,-0.15598154543891032,0.1363874843018213
17.000999999997795,-0.15685065891130273,0.12975711959631753
17.20099999999804,-0.1545542519196363,0.1204083900353634
17.400999999998284,-0.1497068449246866,0.10925192822289387
17.60099999999853,-0.14585940004628606,0.10033392546706754
17.800999999998773,-0.14460777888082904,0.09069302896463204
18.000999999999017,-0.14623209025474876,0.08377989373609811
18.20099999999926,-0.1442047723079743,0.07596977820074147
18.400999999999506,-0.13844673747770309,0.06901547482220612
18.60099999999975,-0.1346898980763707,0.06295758254913551
18.799999999999994,-0.13402856845145267,0.05505762587489218
19.000000000000238,-0.13277691624442337,0.04682697891218276
19.200000000000482,-0.12914946055488888,0.039095610311664995
19.400000000000727,-0.12655947161919545,0.0305364866414299
19.60000000000097,-0.12021747524464442,0.024453005867074343
19.800000000001216,-0.11613563614621167,0.02044366032012495
20.00000000000146,-0.11014186222015121,0.016806804789686915
