Time (s),X (m),Y (m)
0.001,0.0010647643868879006,0.0005914538325516247
0.20000000000000015,0.006239043385290918,0.0032268485813562913
0.4000000000000003,0.005951783104483759,0.003053586407241189
0.6000000000000004,0.010111614741152176,0.005577606587286848
0.8000000000000006,0.010771583910408547,0.00513244296315228
1.0000000000000007,0.016619305236661813,0.007461103680789854
1.2009999999999785,0.020272928896992393,0.0067320607850910215
1.4009999999999565,0.02368880051102848,0.005665953117946501
1.6009999999999345,0.02820363822584002,0.005468087576535692
1.8009999999999124,0.035206989290129206,0.009446140365191395
2.0009999999998906,0.040096160018895974,0.009382294443019292
2.2009999999998686,0.04664416267380791,0.013982331614274174
2.4009999999998466,0.05460568783870949,0.017703637979745748
2.6009999999998246,0.059887242042088416,0.018445801813386217
2.8009999999998025,0.06453243759469839,0.01846744778115505
3.0009999999997805,0.0696829695778959,0.01881430743532986
3.2009999999997585,0.07552060751756456,0.019680195748214575
3.4009999999997365,0.08127594908011225,0.0223173692344566
3.6009999999997144,0.08635572716139087,0.023819129601046523
3.8009999999996924,0.0902247648972725,0.026337467693779842
4.000999999999671,0.09506562047202895,0.02838375268184093
4.200999999999738,0.10024383632582311,0.029591853286598892
4.400999999999804,0.10482471938575293,0.031151363027622645
4.600999999999871,0.10997990659028369,0.03612488200509758
4.800999999999938,0.11499760740216758,0.04133125995536937
5.000000000000004,0.12001519811184125,0.04336232319446778
5.200000000000071,0.12445680834192782,0.05008274946079627
5.400000000000138,0.12867169090021013,0.05223105440484603
5.600000000000205,0.13356817630997572,0.05718881017724304
5.800000000000272,0.13800142144584507,0.06109891187117101
6.000000000000338,0.14124536111905586,0.06773923573406139
6.200000000000405,0.14393499783034758,0.07273008331866358
6.400000000000472,0.1465152669209671,0.07920241171087375
6.600000000000539,0.14992563206055579,0.0839987364066128
6.800000000000606,0.15155034318139116,0.0905002505580684
7.000000000000672,0.15489311201144143,0.09280587452224595
7.200000000000739,0.1566734069526071,0.09976701279493294
7.400000000000806,0.15846387552566513,0.10393743712634577
7.600000000000873,0.1586867812253238,0.10704083277949838
7.8000000000009395,0.16082004229416916,0.11161732269117025
8.000000000001005,0.16299814562528017,0.11271703980638056
8.200000000000895,0.16481693323990124,0.11476850758433656
8.400000000000784,0.16567263839924298,0.117113162053061
8.600000000000673,0.16643017002875155,0.12164459254163378
8.800000000000562,0.1681449545013821,0.1256705706227976
9.000000000000451,0.16974765870628847,0.1303066278889331
9.20000000000034,0.1706405775628853,0.13621143616368558
9.40000000000023,0.1719924917397122,0.1402347417070095
9.600000000000119,0.1724666498707374,0.14560556475685976
9.800000000000008,0.1737673260058662,0.14813573237357944
10.000999999999896,0.17538682322072882,0.14894585077740033
10.200999999999786,0.1751360151299611,0.15342703963519191
10.400999999999675,0.17635690538578783,0.15630393698277364
10.600999999999564,0.17826166630381188,0.1574814841682511
10.800999999999453,0.1792546893394896,0.16241197212841435
11.000999999999342,0.17993580361365105,0.16752226193589498
11.200999999999231,0.1793285011227883,0.17449955436285156
11.40099999999912,0.17959989230354448,0.17865673999385762
11.60099999999901,0.179101637453795,0.1850332881709062
11.800999999998899,0.18036076303374002,0.18805176806015814
12.000999999998788,0.18088974607374084,0.1935697220926714
12.200999999998677,0.1812577381307092,0.19936247591376818
12.400999999998566,0.18160281740295373,0.20411154881599972
12.600999999998455,0.18278282277207816,0.20706111742613997
12.800999999998345,0.1841370595623169,0.2126055639336045
13.000999999998234,0.18417357510316243,0.21546250323459698
13.200999999998123,0.18348955748168322,0.2202163791505342
13.400999999998012,0.18410789808631906,0.22367016206701584
13.600999999997901,0.1845179149770466,0.2265026869373172
13.80099999999779,0.1846847013015758,0.2321500876046545
14.00099999999768,0.1862793015484029,0.23680275201388848
14.200999999997569,0.18695043665839509,0.24200619273784796
14.400999999997458,0.18818323033914425,0.24528363097836492
14.600999999997347,0.18746148008457625,0.24992056482978733
14.800999999997236,0.18974308399145076,0.2528112880662785
15.000999999997125,0.18913726967132255,0.2591621634731698
15.200999999997014,0.19088485091257013,0.262762197657206
15.400999999996904,0.19071736049539112,0.2682600822269387
15.600999999996793,0.19170392278664616,0.27236421825623264
15.800999999996682,0.1929244231585138,0.27617545020236745
16.000999999996573,0.19287135295705715,0.280346388053935
16.200999999996817,0.1929206494970856,0.2849761433663214
16.40099999999706,0.1937922850285261,0.2901893325923581
16.600999999997306,0.19216052446517962,0.2955486260562861
16.80099999999755,0.19258086068134667,0.30023660209437647
17.000999999997795,0.19356425574235941,0.3031722474445936
17.20099999999804,0.1937147669217322,0.3094247435342455
17.400999999998284,0.1933132502669417,0.31562289712529157
17.60099999999853,0.19436326548457694,0.3191953968784889
17.800999999998773,0.19280259603899416,0.32423216793339366
18.000999999999017,0.19205988887092765,0.3308377523221309
18.20099999999926,0.19002773034985004,0.33722010312103584
18.400999999999506,0.19077895206136877,0.34252172723104074
18.60099999999975,0.19030470302131358,0.34741640440812926
18.799999999999994,0.18939048921282264,0.35318357252277965
19.000000000000238,0.18522596330304186,0.3608092170602812
19.200000000000482,0.184786049732769,0.36575517057094076
19.400000000000727,0.18394739456998166,0.37167139791927617
19.60000000000097,0.18095786015058526,0.37791164295122764
19.800000000001216,0.17835655514570567,0.38449892996160007
20.00000000000146,0.1776992446735893,0.39175417039188204
