Time (s),X (m),Y (m)
0.001,-0.00037137305770231177,-0.0008446836120385868
0.20000000000000015,0.0035011405235350103,0.002855284339734786
0.4000000000000003,0.006262844990480418,-0.0020279839579036294
0.6000000000000004,0.01522962223007245,-0.0019687989918383227
0.8000000000000006,0.019784322665552606,-0.004985491895969114
1.0000000000000007,0.02718515185926641,-0.013194364057028831
1.2009999999999785,0.047859526231140134,-0.004641075172699904
1.4009999999999565,0.06693834916128909,0.00027674662101460294
1.6009999999999345,0.07656677847990487,0.003330883643395648
1.8009999999999124,0.09138239698834763,0.0038260302739180903
2.0009999999998906,0.10989564488248585,0.0005474122126818263
2.2009999999998686,0.12290950905876476,-0.008914327126478229
2.4009999999998466,0.14130978251605888,-0.008706728539176456
2.6009999999998246,0.16305217867883814,-0.0018698677115929466
2.8009999999998025,0.18929874882218206,0.005550264514452682
3.0009999999997805,0.21382307217062785,0.020261657764907407
3.2009999999997585,0.2369657652850275,0.0358171105603833
3.4009999999997365,0.2635508436742008,0.048924340751873574
3.6009999999997144,0.2803490462805227,0.06297444634601508
3.8009999999996924,0.298990741741908,0.07474404487608803
4.000999999999671,0.31570509256970786,0.07738723940643573
4.200999999999738,0.33344535797995756,0.09274724139566964
4.400999999999804,0.3521042257381605,0.09948571030215629
4.600999999999871,0.36503519531472695,0.11472887866630639
4.800999999999938,0.3860878221484983,0.12962527404531077
5.000000000000004,0.40777622859731416,0.1447708509954169
5.200000000000071,0.4254714265736094,0.16047671208176675
5.400000000000138,0.4427925847104218,0.17291579921018208
5.600000000000205,0.46629638080730934,0.1806593209689801
5.800000000000272,0.493006323673099,0.18073422395101899
6.000000000000338,0.5165642920184051,0.18334272444226943
6.200000000000405,0.530309332266324,0.1991637150324286
6.400000000000472,0.5543825358997763,0.20725213337970697
6.600000000000539,0.5758101317870564,0.2223624068200692
6.800000000000606,0.5946832735622138,0.23799799993379678
7.000000000000672,0.6166825055699153,0.25735865227476795
7.200000000000739,0.6383857371007796,0.27548912989240143
7.400000000000806,0.6583854220404252,0.28756463632532075
7.600000000000873,0.6839740064385085,0.30154296107461936
7.8000000000009395,0.7071544509915222,0.30932984883502634
8.000000000001005,0.7238883531135516,0.31253072512371566
8.200000000000895,0.7397810487478755,0.3267109604966772
8.400000000000784,0.7627205661730347,0.3482006420596111
8.600000000000673,0.7841375524408456,0.3660114296277943
8.800000000000562,0.8022048957255201,0.38428164223364775
9.000000000000451,0.8217552949774771,0.4056295034617813
9.20000000000034,0.8366066939081438,0.42811047187426143
9.40000000000023,0.8545577909477863,0.44672132894765554
9.600000000000119,0.8765637232396929,0.47951589108512255
9.800000000000008,0.899510993795484,0.5119955649694993
10.000999999999896,0.9228297120209691,0.5347151682096108
10.200999999999786,0.9432201149882299,0.5537367466382234
10.400999999999675,0.9639253544638106,0.5729844941209012
10.600999999999564,0.9841742160338218,0.5916135763436795
10.800999999999453,1.0061027696825924,0.6017045891113874
11.000999999999342,1.0270928941673574,0.6170089466111025
11.200999999999231,1.0461733572779843,0.622291897517757
11.40099999999912,1.0644513275125818,0.6413610350163756
11.60099999999901,1.0828614219969905,0.6582932402993955
11.800999999998899,1.101337715547053,0.6707200590776136
12.000999999998788,1.1172647841347458,0.6811308960243633
12.200999999998677,1.135484695180041,0.6992654249053166
12.400999999998566,1.1550583946931319,0.7152573182537665
12.600999999998455,1.1819566656038492,0.7352715437073731
12.800999999998345,1.2048109214656229,0.7596228347977433
13.000999999998234,1.2282751491455814,0.7817401570088255
13.200999999998123,1.250471695175511,0.7912476560054592
13.400999999998012,1.2786992827557095,0.8052050761285375
13.600999999997901,1.3004435518793513,0.8212028381426025
13.80099999999779,1.317734149979771,0.8492037743024156
14.00099999999768,1.3368421166573845,0.8807402775224948
14.200999999997569,1.3538750960606245,0.9028223440865708
14.400999999997458,1.3735277950394766,0.9199227163565645
14.600999999997347,1.3950174307760688,0.9475965682317127
14.800999999997236,1.4148602947973037,0.9644445499594159
15.000999999997125,1.4276942724075272,0.9945708741368745
15.200999999997014,1.4394141920260974,1.0171438095854763
15.400999999996904,1.4547382794522783,1.0297587276088986
15.600999999996793,1.4722657888564963,1.0532161639699844
15.800999999996682,1.4925776411949236,1.074753373652864
16.000999999996573,1.5104032617303855,1.0952629406527437
16.200999999996817,1.5277652097649115,1.116699663327203
16.40099999999706,1.5397813769238302,1.1394915989464491
16.600999999997306,1.551914087510971,1.1611200794655316
16.80099999999755,1.5646409265264634,1.1898319993704416
17.000999999997795,1.5742224799360356,1.2135422781904153
17.20099999999804,1.5804224765158554,1.2435319100383253
17.400999999998284,1.5920732872866228,1.2683621399811995
17.60099999999853,1.5963848131502372,1.301701381945331
17.800999999998773,1.5994836567720527,1.3427996897012477
18.000999999999017,1.6022755192103828,1.378046287237451
18.20099999999926,1.6080214679698326,1.40565306971463
18.400999999999506,1.6116833039863687,1.4254113716564878
18.60099999999975,1.6150528455860615,1.447883205174641
18.799999999999994,1.6239336933892807,1.4634461232659348
19.000000000000238,1.6347274272534513,1.495165385086442
19.200000000000482,1.6443564127493706,1.5300677477677058
19.400000000000727,1.6557094950716573,1.552872261771854
19.60000000000097,1.6717666972333187,1.5763547108244755
19.800000000001216,1.6850918981309893,1.5991666368175845
20.00000000000146,1.6987132312982443,1.6230805041027023
