Time (s),X (m),Y (m)
0.001,0.0012473251573109415,8.987223813608099e-05
0.20000000000000015,0.006158210523949347,0.0007472642709393053
0.4000000000000003,0.009334223343412988,0.001071572595435432
0.6000000000000004,0.008938986179321371,0.0006366393357696452
0.8000000000000006,0.009012686596695092,-0.0035264417146012896
1.0000000000000007,0.013469234297771384,-0.0024272607289703204
1.2009999999999785,0.017893322875730186,-0.0023414862267231527
1.4009999999999565,0.023247173256509986,-0.0024410365520640097
1.6009999999999345,0.027585873676966143,-0.0027716355836157245
1.8009999999999124,0.03122724486149423,-0.002968176146602985
2.0009999999998906,0.03148420297626336,-0.0022254402518934813
2.2009999999998686,0.03514163675309742,7.22694960382952e-05
2.4009999999998466,0.03931346529816958,0.00045949328156860616
2.6009999999998246,0.04405782187179609,0.00010467539626596825
2.8009999999998025,0.05105622346509786,0.0005667928767536639
3.0009999999997805,0.05722694655170314,0.00019911907786114637
3.2009999999997585,0.0646467437406978,0.00044717978618256487
3.4009999999997365,0.06639239583226789,0.0019132775400909643
3.6009999999997144,0.06968295375055283,0.0034086664380364165
3.8009999999996924,0.07597951791603434,0.003775611609406535
4.000999999999671,0.0803744709320741,0.003852299148404471
4.200999999999738,0.08665594120520376,0.005479028796641777
4.400999999999804,0.0905107281631938,0.005843286435415717
4.600999999999871,0.09702512314899546,0.004829627790885767
4.800999999999938,0.104010964875217,0.004999490438448192
5.000000000000004,0.11015109303525515,0.005138824285255168
5.200000000000071,0.11558465077394554,0.0057291913618607825
5.400000000000138,0.11982840396164228,0.005374452828392476
5.600000000000205,0.12743382419928886,0.0043203512008218896
5.800000000000272,0.13358576312614362,0.002789684023441956
6.000000000000338,0.13936886436694781,0.0021940796262842387
6.200000000000405,0.1453143998622672,0.0008931225954743136
6.400000000000472,0.1484748024899831,0.0009516576311436304
6.600000000000539,0.15783111283686826,-0.001308330048286802
6.800000000000606,0.15993758762788204,-0.0024463011854845068
7.000000000000672,0.16557998856669612,-0.005257262574440705
7.200000000000739,0.16963053291883984,-0.00815369055902861
7.400000000000806,0.17598792688590928,-0.009359596076447417
7.600000000000873,0.18104549312668874,-0.011781945497888803
7.8000000000009395,0.1880965503410485,-0.013749654268838663
8.000000000001005,0.19340824468045348,-0.01566387488061858
8.200000000000895,0.1986638398411013,-0.01860873011503384
8.400000000000784,0.20301073130158287,-0.021578794264541335
8.600000000000673,0.20871240583805076,-0.02529976305735828
8.800000000000562,0.21248933609143614,-0.027710852338203484
9.000000000000451,0.22092504356653875,-0.030436219079749832
9.20000000000034,0.22535876777433392,-0.031574693442458834
9.40000000000023,0.23126823634136698,-0.03307048751868015
9.600000000000119,0.2381249346849346,-0.03415943574450779
9.800000000000008,0.24244969881688058,-0.03608068705011433
10.000999999999896,0.2453945205383838,-0.03751650607352462
10.200999999999786,0.2509885561200651,-0.039748838398372885
10.400999999999675,0.2524319795086596,-0.04070106511137165
10.600999999999564,0.25904596284272785,-0.04196001988685128
10.800999999999453,0.26675684641809033,-0.04660043441144287
11.000999999999342,0.2732042261741253,-0.05064862658821695
11.200999999999231,0.28060812797771134,-0.052865839937691096
11.40099999999912,0.283508867828387,-0.05794752486385974
11.60099999999901,0.2913060518269129,-0.060285272835107685
11.800999999998899,0.29687398668060144,-0.06398712495650494
12.000999999998788,0.30311865794239673,-0.066657739861367
12.200999999998677,0.3116162054440812,-0.06998177841013951
12.400999999998566,0.31796631958052024,-0.07380412925075733
12.600999999998455,0.32497427143267865,-0.07841577580409051
12.800999999998345,0.3298073926915765,-0.0825855626466167
13.000999999998234,0.33592686840492597,-0.08478128223570779
13.200999999998123,0.3425860399587963,-0.08835580040064636
13.400999999998012,0.34821894323368285,-0.09100310591606275
13.600999999997901,0.35203622288877173,-0.09418528153948776
13.80099999999779,0.3585203175312087,-0.09889388006802856
14.00099999999768,0.3647084852804494,-0.10327690092407814
14.200999999997569,0.37137598291799195,-0.10622860825641377
14.400999999997458,0.3787123028023869,-0.11063176866439733
14.600999999997347,0.3818423686647191,-0.11410128428037425
14.800999999997236,0.38798977604413176,-0.11791772513123447
15.000999999997125,0.39470928360145,-0.12297596117947013
15.200999999997014,0.40209864204376,-0.1268783872080482
15.400999999996904,0.40634677795460966,-0.12971964823543206
15.600999999996793,0.41377719470912333,-0.13335966576312816
15.800999999996682,0.41863801046036775,-0.13678584674389682
16.000999999996573,0.4234600258988777,-0.14037485037423167
16.200999999996817,0.4287515883204043,-0.14430939313716581
16.40099999999706,0.43519220812541887,-0.1465646685908157
16.600999999997306,0.44119505328924075,-0.1505221926399075
16.80099999999755,0.4481422011347784,-0.1535698282688873
17.000999999997795,0.4546429340501395,-0.15823519272355127
17.20099999999804,0.463457615312116,-0.16452373348462473
17.400999999998284,0.470753216110011,-0.16873967379251745
17.60099999999853,0.47740139940245485,-0.1738899324981089
17.800999999998773,0.48486228991611974,-0.17754101289781332
18.000999999999017,0.4922257983797492,-0.18229084583699637
18.20099999999926,0.5005349080092373,-0.18708248446029785
18.400999999999506,0.5059056056612229,-0.19024654882524503
18.60099999999975,0.5138597440437009,-0.19538062687387184
18.799999999999994,0.5193266771858644,-0.200130805278392
19.000000000000238,0.5258186879074134,-0.20394216345205898
19.200000000000482,0.5316450593672556,-0.20696269023860328
19.400000000000727,0.5380299357504398,-0.2119623138793574
19.60000000000097,0.5475515280273847,-0.21664003299547163
19.800000000001216,0.5552906515548137,-0.22188628261234916
20.00000000000146,0.5612766284012463,-0.2248666320987897
