Time (s),X (m),Y (m)
0.001,4.1020280575708355e-05,0.0010155025257856582
0.20000000000000015,0.0019877184372765824,-0.003663146677616449
0.4000000000000003,0.00578064404581125,-0.004718691549984456
0.6000000000000004,0.0062109589684226675,-0.014620647009585945
0.8000000000000006,0.01010579687659207,-0.02795224705691016
1.0000000000000007,0.021783739446255362,-0.035676164625805674
1.2009999999999785,0.04297402087676609,-0.034213208626761096
1.4009999999999565,0.06653963588352754,-0.0392908594797432
1.6009999999999345,0.08989508277637824,-0.04245628763202345
1.8009999999999124,0.11005191491492608,-0.059682447972748874
2.0009999999998906,0.13193852184918875,-0.06300287444451172
2.2009999999998686,0.14846971818441626,-0.06888256247915261
2.4009999999998466,0.1709030284295812,-0.07253269903965029
2.6009999999998246,0.1985161862755601,-0.07915615168671115
2.8009999999998025,0.21661953732614886,-0.09363483492108167
3.0009999999997805,0.23852552027317284,-0.09754443257193032
3.2009999999997585,0.26121686073403266,-0.11143647041236084
3.4009999999997365,0.2815363527258626,-0.13229378425219007
3.6009999999997144,0.3015672997294347,-0.1478137344280192
3.8009999999996924,0.31652605069088713,-0.17065002241918156
4.000999999999671,0.3337467222287513,-0.1775653222855495
4.200999999999738,0.3574629037337999,-0.18789234105144098
4.400999999999804,0.372443081173157,-0.2017304651216774
4.600999999999871,0.3885085100805997,-0.21649705364123087
4.800999999999938,0.41635134068920965,-0.22663148324966348
5.000000000000004,0.448693399939932,-0.23418857885023603
5.200000000000071,0.4727603298850126,-0.2465772893594176
5.400000000000138,0.4949545484851664,-0.2585149233284649
5.600000000000205,0.51972227905827,-0.2618328160558798
5.800000000000272,0.5400106359015944,-0.2804302770175333
6.000000000000338,0.5615788962107986,-0.2973041415151218
6.200000000000405,0.5802080120998582,-0.3120780906045073
6.400000000000472,0.5956937912546778,-0.33417717149093845
6.600000000000539,0.624885161080178,-0.3424228760955732
6.800000000000606,0.6490235149434699,-0.36053702197221504
7.000000000000672,0.6811435938192621,-0.3770882498389027
7.200000000000739,0.7132093556299686,-0.383842901444282
7.400000000000806,0.7359589920207416,-0.38526247752514947
7.600000000000873,0.7609841343714627,-0.38874605742629037
7.8000000000009395,0.7891120043353536,-0.4044448249787143
8.000000000001005,0.8121355499180075,-0.4230308360131834
8.200000000000895,0.8349899332549878,-0.43186299201532063
8.400000000000784,0.8529161180009589,-0.4534211865517021
8.600000000000673,0.86516206159982,-0.4788279947616979
8.800000000000562,0.8827954939402688,-0.4888482490086886
9.000000000000451,0.8926266604993489,-0.5030733419304599
9.20000000000034,0.9085393066163902,-0.5171381159374216
9.40000000000023,0.9281772427586741,-0.5284428280507236
9.600000000000119,0.9498928803677552,-0.5404448319072604
9.800000000000008,0.97979527083225,-0.5427291008451978
10.000999999999896,0.9993561635285697,-0.5563570896016755
10.200999999999786,1.0220878132924711,-0.5711058306006311
10.400999999999675,1.0527534118841457,-0.5739473997423261
10.600999999999564,1.0822266409790557,-0.5756622554860275
10.800999999999453,1.1066776764613306,-0.5961447929320973
11.000999999999342,1.1203310908869786,-0.6169926250313101
11.200999999999231,1.1399763852643727,-0.6277263267925199
11.40099999999912,1.1646368394475504,-0.6392129466670878
11.60099999999901,1.1827337628650723,-0.6560078267236804
11.800999999998899,1.2054120966455697,-0.6821752224256192
12.000999999998788,1.2275770192878235,-0.7016211167011976
12.200999999998677,1.2500532180121395,-0.7225537700578427
12.400999999998566,1.2762213489962302,-0.727614517293661
12.600999999998455,1.3010737521158158,-0.7356110936000962
12.800999999998345,1.325182081749352,-0.748249202464859
13.000999999998234,1.3592493840020394,-0.7444617238527363
13.200999999998123,1.3861598586701296,-0.7543486374543934
13.400999999998012,1.4084783023868803,-0.7714918724781281
13.600999999997901,1.4251112527424756,-0.7883487734534068
13.80099999999779,1.4459916844977467,-0.7961730112691825
14.00099999999768,1.462038074804255,-0.8148699109112433
14.200999999997569,1.480781415459583,-0.8301232454659823
14.400999999997458,1.4992518538129584,-0.8405770454734713
14.600999999997347,1.51757392897186,-0.8525360297133626
14.800999999997236,1.5432693199744025,-0.8608077776419678
15.000999999997125,1.568731476552204,-0.8756518822023082
15.200999999997014,1.5866610644599992,-0.8946987635075319
15.400999999996904,1.5989290318463059,-0.9174329199554767
15.600999999996793,1.612452672282619,-0.9384830456605483
15.800999999996682,1.6227007354526914,-0.9599902032513231
16.000999999996573,1.644118728373796,-0.9819126562184203
16.200999999996817,1.672668007708073,-1.0028742084099813
16.40099999999706,1.694793892781338,-1.0219195531748881
16.600999999997306,1.7152425163011609,-1.0441022107421538
16.80099999999755,1.7463255803685085,-1.05756624719937
17.000999999997795,1.7759780618470822,-1.076021917881279
17.20099999999804,1.8000799720076832,-1.0993047347222555
17.400999999998284,1.8258811160981365,-1.1213313181878966
17.60099999999853,1.841068401629818,-1.1456397184278757
17.800999999998773,1.858165153165157,-1.1681347047636608
18.000999999999017,1.869439530633165,-1.1946007596084924
18.20099999999926,1.8824700616106194,-1.2200384059567788
18.400999999999506,1.87491382744783,-1.2480717604612033
18.60099999999975,1.8719175487033402,-1.2725957755446666
18.799999999999994,1.8863486839059418,-1.2934408888543423
19.000000000000238,1.8840550472562059,-1.3222496519293438
19.200000000000482,1.8966420661278987,-1.3463389597074433
19.400000000000727,1.903148263214069,-1.3738670367917682
19.60000000000097,1.904520202338335,-1.4000430710043121
19.800000000001216,1.9000598219974936,-1.4239211023578113
20.00000000000146,1.8817971921357073,-1.4441217195545433
