Time (s),X (m),Y (m)
0.001,0.0008829029745972832,0.0007899207378008392
0.20000000000000015,-0.0009835569164674271,-0.0031622867322568518
0.4000000000000003,0.00445149132143147,-0.002137111280261673
0.6000000000000004,0.008502855699877111,-0.0034704456816141895
0.8000000000000006,0.02236404325575181,-0.004258198374688555
1.0000000000000007,0.03969415881451831,-0.0037167346528801256
1.2009999999999785,0.05953553080803785,-0.005637347425495801
1.4009999999999565,0.07429701361987599,-0.0073962526396970036
1.6009999999999345,0.09015528736364536,-0.010797901511673001
1.8009999999999124,0.10590559136931661,-0.017329131994055783
2.0009999999998906,0.12759180598685058,-0.016787451788286566
2.2009999999998686,0.15142770029103889,-0.014610816729020737
2.4009999999998466,0.1753250434461462,-0.006872203155868288
2.6009999999998246,0.20084772597472791,-0.0004141732260287464
2.8009999999998025,0.22122673300737233,0.008317764316854546
3.0009999999997805,0.237083822042562,0.02363028434757439
3.2009999999997585,0.2606351691403172,0.03383883331895805
3.4009999999997365,0.28568610943866535,0.041790881588584405
3.6009999999997144,0.3067052552752437,0.043895869658643547
3.8009999999996924,0.328781041280902,0.055486335172244994
4.000999999999671,0.35031276919167587,0.08153143434256348
4.200999999999738,0.37218127921986205,0.09088790570414924
4.400999999999804,0.39719827624682713,0.10482493227638584
4.600999999999871,0.4274262262293714,0.11137894289097852
4.800999999999938,0.450596956598225,0.12023880265672304
5.000000000000004,0.47260025483703233,0.14313533361174371
5.200000000000071,0.49238012217170735,0.16162460704456863
5.400000000000138,0.5145354780826341,0.17025917551149836
5.600000000000205,0.5324149586849588,0.16942666573540688
5.800000000000272,0.553116828316922,0.18623745504504305
6.000000000000338,0.5785706172509234,0.19947396975798548
6.200000000000405,0.6023511563532465,0.20982543144684837
6.400000000000472,0.626714139906115,0.22361486804572606
6.600000000000539,0.6518054119116435,0.23450758008957004
6.800000000000606,0.6785313749970076,0.24292350188466333
7.000000000000672,0.6996755926173654,0.26290573602950984
7.200000000000739,0.7181613679496403,0.2708486689051132
7.400000000000806,0.7356403652495782,0.28117094381082314
7.600000000000873,0.7542745506152877,0.3065958584379432
7.8000000000009395,0.7706588960850563,0.32952736120660386
8.000000000001005,0.7866042518349637,0.3431567348618668
8.200000000000895,0.806048149941445,0.3565295016835655
8.400000000000784,0.8220676908089243,0.3786456073745122
8.600000000000673,0.8383894306376248,0.39811827886018897
8.800000000000562,0.8551479969307431,0.421092370562772
9.000000000000451,0.8763888103783914,0.4419591906958918
9.20000000000034,0.9017121640888606,0.459005160240987
9.40000000000023,0.9227411291381511,0.4821235802408579
9.600000000000119,0.9433556116752282,0.5169517443202155
9.800000000000008,0.9645473630719795,0.5354609774904192
10.000999999999896,0.989174637331899,0.5439863512322691
10.200999999999786,1.007647468913473,0.57024808110414
10.400999999999675,1.0263477857416354,0.5908628629159526
10.600999999999564,1.0429108820346114,0.6142090785615869
10.800999999999453,1.0587709831543288,0.63712158044648
11.000999999999342,1.0735532143302116,0.6500741929354179
11.200999999999231,1.0868196112901412,0.6694853098592617
11.40099999999912,1.1069198963193334,0.6936750099640062
11.60099999999901,1.1233655312916524,0.71419760176194
11.800999999998899,1.1401523639535067,0.7386801721252345
12.000999999998788,1.159580587130426,0.7579208811436332
12.200999999998677,1.1834906675840848,0.7794035959721839
12.400999999998566,1.2042013273819618,0.8151971985876405
12.600999999998455,1.2260875758199525,0.8285693769524658
12.800999999998345,1.251017384279513,0.8530140405145745
13.000999999998234,1.2742804363896405,0.8780423413964599
13.200999999998123,1.2928995023069996,0.8921157331953221
13.400999999998012,1.3132827920085774,0.9069451785288727
13.600999999997901,1.3328998533389986,0.9365872409009417
13.80099999999779,1.3490693634134279,0.9649604976705275
14.00099999999768,1.367359091459159,0.9859484143280095
14.200999999997569,1.3902634563513914,1.0087720676246283
14.400999999997458,1.4151667078052574,1.0268732001245389
14.600999999997347,1.437688879311565,1.0520515708711047
14.800999999997236,1.458372770057198,1.0835414698202137
15.000999999997125,1.477496749070934,1.1190736523967493
15.200999999997014,1.496914144115553,1.1390464839697343
15.400999999996904,1.5204586437589285,1.1565885610323712
15.600999999996793,1.5418559737921473,1.1799809192517443
15.800999999996682,1.56553147755525,1.1968972569401957
16.000999999996573,1.5824089148412612,1.2248173728343832
16.200999999996817,1.5968678545609984,1.249803616456877
16.40099999999706,1.6088449978434765,1.2678515212496688
16.600999999997306,1.622290600117608,1.2946921036934222
16.80099999999755,1.6345509317109963,1.322040367749878
17.000999999997795,1.6454379066208786,1.3439975525130496
17.20099999999804,1.6606958625242405,1.3624562635748076
17.400999999998284,1.682523217562205,1.3866953041350267
17.60099999999853,1.7054538171781601,1.410095035333988
17.800999999998773,1.725087498998279,1.4303434318122166
18.000999999999017,1.7361663071729823,1.4487112755171827
18.20099999999926,1.7422931008404925,1.4884956780374419
18.400999999999506,1.7432970826527896,1.5248888986657818
18.60099999999975,1.7446117333250875,1.552795738357653
18.799999999999994,1.7561727214908283,1.577384018530715
19.000000000000238,1.7648223818657125,1.5985196551009804
19.200000000000482,1.7720906304622046,1.6317705502725275
19.400000000000727,1.781333340378754,1.6579966403651951
19.60000000000097,1.793689156413556,1.6735810505364714
19.800000000001216,1.809652157728212,1.6979162770952958
20.00000000000146,1.8243677012120572,1.7318743247067898
