Time (s),X (m),Y (m)
0.001,0.0008829029745972832,0.0007899207378008392
0.20000000000000015,0.0022085781193336707,-0.00012203342911552187
0.4000000000000003,0.011321227574722691,0.00032938455851526757
0.6000000000000004,0.029242021331174293,0.004413850365403367
0.8000000000000006,0.05230499751345316,0.005846227155345298
1.0000000000000007,0.07841981610962222,0.010568232860613912
1.2009999999999785,0.10115334181472542,0.017497371746942037
1.4009999999999565,0.12182758477304172,0.018284732754548574
1.6009999999999345,0.14565942817865307,0.0203957289528016
1.8009999999999124,0.16718633302309677,0.0212411267632623
2.0009999999998906,0.21641041260096402,0.022258171827068556
2.2009999999998686,0.2427518053135297,0.022652809123692108
2.4009999999998466,0.26389864042319267,0.009487304819232096
2.6009999999998246,0.3010789471516272,-0.008655318473240603
2.8009999999998025,0.33967677490747245,-0.026063130915007972
3.0009999999997805,0.3718949601935067,-0.054863832887076726
3.2009999999997585,0.39836821775125836,-0.09840119026581226
3.4009999999997365,0.41443369518065887,-0.14168954535135753
3.6009999999997144,0.41551072711420894,-0.18755157454458446
3.8009999999996924,0.4089616512363341,-0.22046032258633652
4.000999999999671,0.38532692949852576,-0.24320830680277034
4.200999999999738,0.3499203042831283,-0.27711739697794324
4.400999999999804,0.3160710834325336,-0.3065254015005361
4.600999999999871,0.27483989226662303,-0.3346946234367159
4.800999999999938,0.22903532311237298,-0.36551474486563373
5.000000000000004,0.17706959264632177,-0.3959952936011272
5.200000000000071,0.12350549510016359,-0.420576004579312
5.400000000000138,0.06820788566501733,-0.46007312578191645
5.600000000000205,0.015950639119115817,-0.49227850873949863
5.800000000000272,-0.03917121415683077,-0.5210806116976815
6.000000000000338,-0.1017915139677639,-0.5648210943243389
6.200000000000405,-0.16761904298634053,-0.6117806902199188
6.400000000000472,-0.2377079254927473,-0.6632525813520134
6.600000000000539,-0.3151345256187344,-0.7152279947244431
6.800000000000606,-0.38989917863403634,-0.7592402682052919
7.000000000000672,-0.46286246616771715,-0.8107712813268695
7.200000000000739,-0.52878085385117,-0.8614734311347928
7.400000000000806,-0.5820616279828521,-0.9230551227715372
7.600000000000873,-0.6257984666363705,-0.9890007658675358
7.8000000000009395,-0.6753460833938929,-1.0514028732937781
8.000000000001005,-0.7299622813206212,-1.111226506532041
8.200000000000895,-0.7785678174184223,-1.1658484028826273
8.400000000000784,-0.8319487973615929,-1.2236759177714158
8.600000000000673,-0.8922547120958148,-1.2681579524406752
8.800000000000562,-0.9622520134596483,-1.321251970419359
9.000000000000451,-1.0380820418617387,-1.3818159933844905
9.20000000000034,-1.112796147971404,-1.433974562330417
9.40000000000023,-1.1760373843532435,-1.4941546314478538
9.600000000000119,-1.2224875337496706,-1.563136342017662
9.800000000000008,-1.2680651891053847,-1.634257841626334
10.000999999999896,-1.3257290969379976,-1.6995844379078193
10.200999999999786,-1.3923275775774049,-1.764292855703518
10.400999999999675,-1.4728822730053401,-1.8235686829662892
10.600999999999564,-1.5566150287498206,-1.874687982730196
10.800999999999453,-1.6340665909219367,-1.9188410347681635
11.000999999999342,-1.7167371739289938,-1.966244530778448
11.200999999999231,-1.8007907841698323,-2.015100219124862
11.40099999999912,-1.8851592304469782,-2.0608483754682
11.60099999999901,-1.968725062781117,-2.0945364292781785
11.800999999998899,-2.0625987029696784,-2.121241003012102
12.000999999998788,-2.1511585553924095,-2.139518695106799
12.200999999998677,-2.231630697644505,-2.1405953029628106
12.400999999998566,-2.3042546189470943,-2.132196938784052
12.600999999998455,-2.3635959429343676,-2.111054456455341
12.800999999998345,-2.4304649673258325,-2.079613691548777
13.000999999998234,-2.494974032350206,-2.0403585988553337
13.200999999998123,-2.5504931430834623,-1.9901797604282123
13.400999999998012,-2.61498407341971,-1.9260834775055533
13.600999999997901,-2.674501524792808,-1.8550355722094722
13.80099999999779,-2.7431870977060226,-1.773518372793973
14.00099999999768,-2.7953633486044183,-1.6908282303920814
14.200999999997569,-2.844027498419871,-1.6060910594094653
14.400999999997458,-2.888498306887087,-1.52342398916831
14.600999999997347,-2.926807246072678,-1.44672952424904
14.800999999997236,-2.9602811691833373,-1.3795572834310956
15.000999999997125,-2.9989396657950698,-1.3223492453983547
15.200999999997014,-3.0340589918262517,-1.276254141071632
15.400999999996904,-3.0971394849269895,-1.2293860339361071
15.600999999996793,-3.1598728215018763,-1.180871198076518
15.800999999996682,-3.233059366691946,-1.1378331888989854
16.000999999996573,-3.303532378500089,-1.0910560627243735
16.200999999996817,-3.3738743704357352,-1.0367005914090799
16.40099999999706,-3.4356141257034896,-0.9850800263232721
16.600999999997306,-3.5198835529886283,-0.9311280285236708
16.80099999999755,-3.5957901762536957,-0.8728474522231455
17.000999999997795,-3.655019870873829,-0.8037363635891379
17.20099999999804,-3.7272142017738883,-0.7315121016953742
17.400999999998284,-3.8079438315586223,-0.6536608156515172
17.60099999999853,-3.885711845288276,-0.5678311966683908
17.800999999998773,-3.9619037850521344,-0.4801191908184423
18.000999999999017,-4.043899787782378,-0.3892607215202847
18.20099999999926,-4.106431718056018,-0.3000980833730606
18.400999999999506,-4.165307576732942,-0.22093652774474126
18.60099999999975,-4.226639839905476,-0.15323784900034365
18.799999999999994,-4.285025779239081,-0.09285049081935287
19.000000000000238,-4.367488851976876,-0.04757104269677978
19.200000000000482,-4.453942077456505,-0.016650234561122336
19.400000000000727,-4.534158576317752,0.0047489443012414
19.60000000000097,-4.6104252284564895,0.038984751258455186
19.800000000001216,-4.666803704482672,0.09002002594638535
20.00000000000146,-4.718253209796071,0.1569833176275756
