Time (s),X (m),Y (m)
0.001,-4.680521708071185e-05,-0.0009960320817112695
0.20000000000000015,0.002674200480100597,0.004695550624961751
0.4000000000000003,0.00862831309790408,0.00885647780327874
0.6000000000000004,0.022686448339471855,0.014656230413135272
0.8000000000000006,0.04320650435699146,0.026487361518924932
1.0000000000000007,0.06127146098263216,0.025318676720690197
1.2009999999999785,0.0751105914711148,0.02506023085775296
1.4009999999999565,0.09366492573470009,0.020212734484737725
1.6009999999999345,0.11227559335733342,0.006317342170550133
1.8009999999999124,0.12785795981377465,-0.004094565560823056
2.0009999999998906,0.14149292326426666,-0.01401436360287171
2.2009999999998686,0.1655328212095038,-0.01429944032080683
2.4009999999998466,0.1842767705054091,-0.013151812767349037
2.6009999999998246,0.20627753283536632,-0.01998248357671669
2.8009999999998025,0.23074507339569236,-0.013415107115105336
3.0009999999997805,0.25173877452748844,-0.009364606889482192
3.2009999999997585,0.27743845665017663,-0.014549474523931502
3.4009999999997365,0.3034793975850271,-0.01756415593757759
3.6009999999997144,0.3341215341238214,-0.014537577132773927
3.8009999999996924,0.3646343587171557,-0.01945537174414043
4.000999999999671,0.3913502346210775,-0.025761953879987386
4.200999999999738,0.4156178575802949,-0.027447661169260312
4.400999999999804,0.4281706793285006,-0.041384616279814226
4.600999999999871,0.4538369889449222,-0.054101169865132415
4.800999999999938,0.47964588004961584,-0.06345469789480027
5.000000000000004,0.5068438645089955,-0.05463599422536089
5.200000000000071,0.5400818688209443,-0.04917798981261216
5.400000000000138,0.5787232659923408,-0.04690398717884868
5.600000000000205,0.6072742714326355,-0.04406275951363521
5.800000000000272,0.6351085007942183,-0.035096233040832474
6.000000000000338,0.6698186756531264,-0.02302004178946643
6.200000000000405,0.701160855522187,-0.012478294864594989
6.400000000000472,0.7290895866724528,0.007320812132451437
6.600000000000539,0.7577975444641877,0.02206811790455514
6.800000000000606,0.782487912952959,0.009528524177318537
7.000000000000672,0.8057132665449144,0.01381301324200344
7.200000000000739,0.8369855037262889,0.019961959539463947
7.400000000000806,0.866376260595811,0.029220533847566947
7.600000000000873,0.8968085335439725,0.029707859535852508
7.8000000000009395,0.9266329664698144,0.03634255962429692
8.000000000001005,0.9602954702741292,0.04421988700341328
8.200000000000895,0.9885873021275807,0.033252230354308195
8.400000000000784,1.0190676111239916,0.035459415536032025
8.600000000000673,1.0510883273905598,0.04094873644660382
8.800000000000562,1.0870801892754076,0.04530788489874995
9.000000000000451,1.1207349072945272,0.055935300024301714
9.20000000000034,1.153437871444598,0.06295873957737978
9.40000000000023,1.1849974018463176,0.06097145128022741
9.600000000000119,1.2132140866387076,0.05852834899276509
9.800000000000008,1.239395430048593,0.05308647550864286
10.000999999999896,1.2680788725582797,0.05375780422957
10.200999999999786,1.296643800522115,0.05361323502326447
10.400999999999675,1.3264170551575423,0.06942851543211272
10.600999999999564,1.3559585810902042,0.08383059076235343
10.800999999999453,1.3867822704328603,0.09482514504834613
11.000999999999342,1.4184077344847572,0.09659639351438151
11.200999999999231,1.4453363589734574,0.10576449816895411
11.40099999999912,1.4738453626230625,0.10943665861121546
11.60099999999901,1.501717652922979,0.12461559427155018
11.800999999998899,1.5273132447832576,0.14244459494084347
12.000999999998788,1.5545250229142051,0.15961406488938223
12.200999999998677,1.5821241728209094,0.16933012096614478
12.400999999998566,1.6113052049116043,0.19307781249316636
12.600999999998455,1.6430146300257638,0.2170438870092285
12.800999999998345,1.6767368739597002,0.23033695452703518
13.000999999998234,1.7092356714274517,0.23131638630623033
13.200999999998123,1.7425632057322231,0.23719030457450388
13.400999999998012,1.770637507207014,0.24102749346155597
13.600999999997901,1.7931335531143457,0.2449969542073547
13.80099999999779,1.8214062513714497,0.24249148899388578
14.00099999999768,1.857057933000379,0.2454689402197666
14.200999999997569,1.8943560583693342,0.2527791794866109
14.400999999997458,1.9319040335571218,0.2635104125801287
14.600999999997347,1.9659558730559807,0.27852598875610146
14.800999999997236,1.995323710867671,0.2842034602761192
15.000999999997125,2.024021551101727,0.28366043066000407
15.200999999997014,2.0572447200117967,0.2903808169534791
15.400999999996904,2.088804027688124,0.2882037073582047
15.600999999996793,2.119401489527154,0.29649274987657337
15.800999999996682,2.1481682023106092,0.29045562539475134
16.000999999996573,2.1776953936899215,0.30046468795674586
16.200999999996817,2.2109775906821656,0.3015618150374383
16.40099999999706,2.243464114015237,0.3025985723775438
16.600999999997306,2.271814898096765,0.30458850014679983
16.80099999999755,2.299211761436021,0.3210386146962617
17.000999999997795,2.328296470397531,0.32383219740529323
17.20099999999804,2.356739439741394,0.3337963377771233
17.400999999998284,2.385370450266273,0.3403713832594906
17.60099999999853,2.414940633248622,0.3500040056133111
17.800999999998773,2.444540661069523,0.36259007770884577
18.000999999999017,2.4731936024979135,0.36907409976987343
18.20099999999926,2.4969904657744744,0.3746969389419052
18.400999999999506,2.5226029786936666,0.3791206173179805
18.60099999999975,2.5532121425237,0.3935627104336967
18.799999999999994,2.5886105765522625,0.41123948556866374
19.000000000000238,2.618499374287646,0.4159246601899504
19.200000000000482,2.64816383466925,0.43166465564889683
19.400000000000727,2.6740917091748146,0.4446807653478134
19.60000000000097,2.705076606672852,0.44708424359755056
19.800000000001216,2.7287843426010885,0.45842222336996225
20.00000000000146,2.755320626586081,0.4689747051186392
