Time (s),X (m),Y (m)
0.001,-0.0006246028371892732,0.000591453832551625
0.20000000000000015,0.002820106800212968,-0.0009084143130802337
0.4000000000000003,0.0031155241485296583,-0.0011231704089240313
0.6000000000000004,0.004294956560790412,-0.0011306558429044213
0.8000000000000006,0.005597156302603873,-0.0024843010375633543
1.0000000000000007,0.008011741268808032,-0.001544503495813634
1.2009999999999785,0.010029910583875007,-0.0030804869785442416
1.4009999999999565,0.012806041731657499,-0.003819695835015799
1.6009999999999345,0.015324705272825478,-0.004026766460224917
1.8009999999999124,0.018150510022996662,-0.004730797966535615
2.0009999999998906,0.021108813387483903,-0.006083598236464021
2.2009999999998686,0.023811217279685007,-0.007316824496254537
2.4009999999998466,0.02628326095677504,-0.008389450658529144
2.6009999999998246,0.029320766963652267,-0.009686543929399926
2.8009999999998025,0.03185722512114065,-0.010696479211160194
3.0009999999997805,0.0352303236155237,-0.012060049796513038
3.2009999999997585,0.0375749109589801,-0.012798960960304456
3.4009999999997365,0.03980143085777193,-0.01370863019653842
3.6009999999997144,0.04183014051742698,-0.01466979851989933
3.8009999999996924,0.04435051473765181,-0.015413599166883831
4.000999999999671,0.046275733844444354,-0.016300008456477146
4.200999999999738,0.0478373277158726,-0.017104146035917426
4.400999999999804,0.04928099687802233,-0.017832459060996023
4.600999999999871,0.050739333386270714,-0.018579349336576463
4.800999999999938,0.05213311291285142,-0.019294673141983392
5.000000000000004,0.05392168158035915,-0.020045307670615763
5.200000000000071,0.05540293426771894,-0.02074268139225314
5.400000000000138,0.056878586180410515,-0.021444680336895932
5.600000000000205,0.058573362889683296,-0.02211528763583085
5.800000000000272,0.0599971473331836,-0.022771231489144398
6.000000000000338,0.061783675225567616,-0.023438970602583164
6.200000000000405,0.06323580884546809,-0.024036283663708045
6.400000000000472,0.06480409509989091,-0.024634205306983972
6.600000000000539,0.0662526152281384,-0.025226341496855535
6.800000000000606,0.06770245718065122,-0.025770402500577855
7.000000000000672,0.06916969939103708,-0.0263021145274852
7.200000000000739,0.070541982883664,-0.026795517357184526
7.400000000000806,0.07223344020783941,-0.027297579206835898
7.600000000000873,0.07433073385637376,-0.027812359542933145
7.8000000000009395,0.07562769187535187,-0.0281957019402848
8.000000000001005,0.0774637795040877,-0.028634615048272725
8.200000000000895,0.07875263567784167,-0.028969669842503924
8.400000000000784,0.0802094973852322,-0.029391798754511415
8.600000000000673,0.08226712412233374,-0.02935999457680576
8.800000000000562,0.0844010416869758,-0.02978417706196363
9.000000000000451,0.08571802723276896,-0.029993379520129603
9.20000000000034,0.08719037337358204,-0.03028667135035166
9.40000000000023,0.08873093330004228,-0.030522499473588628
9.600000000000119,0.09027760666000713,-0.030741322778868315
9.800000000000008,0.09186164765653432,-0.03091835982635149
10.000999999999896,0.09335686672537395,-0.03107921628042606
10.200999999999786,0.09485360979923228,-0.031189867255486368
10.400999999999675,0.09636102486400054,-0.03127857638259898
10.600999999999564,0.09786647385352164,-0.0313372012070736
10.800999999999453,0.09938716387741604,-0.03137403717219668
11.000999999999342,0.10089977670499373,-0.03138512744850292
11.200999999999231,0.10239654964931205,-0.03137458474519631
11.40099999999912,0.10382448959224852,-0.03133864530643137
11.60099999999901,0.105409035545484,-0.03126948717709329
11.800999999998899,0.10710259180554071,-0.031202877810693933
12.000999999998788,0.1085632977032601,-0.031104028420192713
12.200999999998677,0.11052372132096352,-0.031010954918488695
12.400999999998566,0.1119044431473997,-0.030823618042405635
12.600999999998455,0.11384120111399793,-0.030651646443127352
12.800999999998345,0.11564436991689991,-0.030419018523707216
13.000999999998234,0.11715165932596032,-0.030184678574470318
13.200999999998123,0.11878112183570018,-0.02995709628306162
13.400999999998012,0.12091326294043468,-0.029665452949425367
13.600999999997901,0.12248007779669678,-0.029311658521199505
13.80099999999779,0.12415012463685592,-0.028931318959704456
14.00099999999768,0.12642914606158492,-0.02841630209100868
14.200999999997569,0.12833438948142528,-0.027945921294566464
14.400999999997458,0.13014606782738614,-0.027486986715739074
14.600999999997347,0.13236448092505598,-0.026801854212210555
14.800999999997236,0.13455863176317714,-0.02586242507978647
15.000999999997125,0.13667172361232427,-0.0250873821153704
15.200999999997014,0.138715402335213,-0.024168651757417423
15.400999999996904,0.1407487042153347,-0.023278931349623035
15.600999999996793,0.14291945375846565,-0.022153056250459394
15.800999999996682,0.1449804553023559,-0.02115709677196883
16.000999999996573,0.14755457307214362,-0.019198443861027925
16.200999999996817,0.1497461050884526,-0.017577117403046374
16.40099999999706,0.15178283839768486,-0.01435143508762734
16.600999999997306,0.15404757120939813,-0.010946565716392648
16.80099999999755,0.1537495688791724,-0.0052434155543948134
17.000999999997795,0.1534681910226953,0.002637266800399878
17.20099999999804,0.15301750979980827,0.011016683017296912
17.400999999998284,0.1527513697327422,0.01898813978824306
17.60099999999853,0.15209291906883995,0.027549766781675214
17.800999999998773,0.1509031445276267,0.035079976177804076
18.000999999999017,0.14948272756237205,0.04339858947060342
18.20099999999926,0.14822609522022576,0.05105824193557816
18.400999999999506,0.14617351362053316,0.05852126019626939
18.60099999999975,0.14411170166353643,0.06556741569762525
18.799999999999994,0.14145745290971953,0.0724930520960356
19.000000000000238,0.13904743834361408,0.0793918020573308
19.200000000000482,0.13609507279879152,0.08592347286953259
19.400000000000727,0.13343544953412478,0.09276764326828979
19.60000000000097,0.1302861845499197,0.09967471955687184
19.800000000001216,0.1272467419635892,0.10612290978353388
20.00000000000146,0.12382670161245739,0.11245871772859493
