Time (s),X (m),Y (m)
0.001,-0.0007144750753253542,0.00043579054991000265
0.20000000000000015,0.004960100435556374,-0.0020202573403661434
0.4000000000000003,0.007801516772334935,-0.0018973896107404463
0.6000000000000004,0.011215978130562273,-0.005138155013718858
0.8000000000000006,0.014945596563881045,-0.004967967598677837
1.0000000000000007,0.02152339741269183,-0.006400664416037975
1.2009999999999785,0.02544568768226252,-0.0076927422587616985
1.4009999999999565,0.030191710289448215,-0.007621597421796874
1.6009999999999345,0.0346168003472565,-0.007299831935580274
1.8009999999999124,0.03965070065586484,-0.007478070486909888
2.0009999999998906,0.04514346169161439,-0.007715923820036627
2.2009999999998686,0.04990680781147346,-0.007770341592887109
2.4009999999998466,0.05264100282810667,-0.00874964199150866
2.6009999999998246,0.056035968439093226,-0.007475726711261624
2.8009999999998025,0.06116653588123945,-0.006546686586891267
3.0009999999997805,0.06550565197212738,-0.0059339967972465634
3.2009999999997585,0.07022556233249914,-0.005128151001910598
3.4009999999997365,0.07341202848367581,-0.0040509485722147005
3.6009999999997144,0.07629253776793654,-0.002248617319953343
3.8009999999996924,0.07742434124529422,-0.0008122313254494348
4.000999999999671,0.07844297468647272,0.0009575887759333687
4.200999999999738,0.07994587930009661,0.0023602544353124658
4.400999999999804,0.08078147985315884,0.0036645686875611044
4.600999999999871,0.08136803960061964,0.005204568870311602
4.800999999999938,0.08217705894834468,0.006941494610063671
5.000000000000004,0.08365367467964963,0.008763245786796563
5.200000000000071,0.08418497768658043,0.010689886582270691
5.400000000000138,0.08533576216501919,0.013050648263889093
5.600000000000205,0.08653006118685748,0.015518009221896245
5.800000000000272,0.08813982973513877,0.018046420779069674
6.000000000000338,0.08969817002284226,0.021018693865626114
6.200000000000405,0.090913944916322,0.024064124099768918
6.400000000000472,0.09230718736386485,0.027413042664964495
6.600000000000539,0.0941925595996586,0.0306394293599916
6.800000000000606,0.09624649483057433,0.034606030673583234
7.000000000000672,0.09781427538880412,0.038103828009809874
7.200000000000739,0.09949964185477665,0.0424005522531071
7.400000000000806,0.10082842854008038,0.04623872650632832
7.600000000000873,0.10212540306891593,0.05074216689025119
7.8000000000009395,0.10424706148103095,0.05537653518711995
8.000000000001005,0.10568818365519612,0.06039275974009486
8.200000000000895,0.1079586938844202,0.06594472493872275
8.400000000000784,0.1099983225865693,0.06967628833983572
8.600000000000673,0.11234808558186554,0.07368278159713751
8.800000000000562,0.11402360044830526,0.07696782932843257
9.000000000000451,0.1154444533103492,0.08278587635034398
9.20000000000034,0.11742561685318913,0.08911554477443256
9.40000000000023,0.1199441084406327,0.09563847599878725
9.600000000000119,0.12258593725544044,0.10250514439176364
9.800000000000008,0.125460216689372,0.10908965305203074
10.000999999999896,0.1281131001808613,0.11585280767642256
10.200999999999786,0.13043582535941356,0.12240691362793962
10.400999999999675,0.13344485410998583,0.1299106595947741
10.600999999999564,0.13586234894147517,0.1369071103012452
10.800999999999453,0.13848181121106376,0.1447207246551257
11.000999999999342,0.14140068963040459,0.15184051024973869
11.200999999999231,0.14265821336073198,0.1564685266360751
11.40099999999912,0.1441246203453019,0.1615958757925644
11.60099999999901,0.14623011400559224,0.16697846089570847
11.800999999998899,0.14822989278041346,0.17172594216176168
12.000999999998788,0.1500200142053305,0.17801202204350805
12.200999999998677,0.15178487148859438,0.18429419772596453
12.400999999998566,0.15386584784022708,0.18922217747731587
12.600999999998455,0.15594858834016018,0.19397652110603544
12.800999999998345,0.15838628276022873,0.1988538953869046
13.000999999998234,0.1595451807776503,0.20530525274667405
13.200999999998123,0.16124946217455524,0.2141519972611587
13.400999999998012,0.16318826111292237,0.22066664039246145
13.600999999997901,0.16459632590256973,0.22754494267467704
13.80099999999779,0.16630606809905643,0.2326166174664757
14.00099999999768,0.1681221432929083,0.23828530157681685
14.200999999997569,0.1696277955718131,0.2445336647698999
14.400999999997458,0.17087765255132376,0.25018209180739476
14.600999999997347,0.17154711741865325,0.2556142367367577
14.800999999997236,0.17271835297733862,0.263678883268455
15.000999999997125,0.1738680052835785,0.27190733575212106
15.200999999997014,0.1750045825729843,0.27968526973506874
15.400999999996904,0.17590269524087943,0.28674246042138374
15.600999999996793,0.17657135900022686,0.2941351972789915
15.800999999996682,0.1766535554066714,0.30061088119577273
16.000999999996573,0.177070895066032,0.3070840769665265
16.200999999996817,0.17742022469176205,0.3132069005504517
16.40099999999706,0.1773986232764472,0.3186091847337771
16.600999999997306,0.1780615036567468,0.3236464232226919
16.80099999999755,0.17810819528414543,0.3294974598622833
17.000999999997795,0.17812156080588856,0.3343781275005889
17.20099999999804,0.1782026552474136,0.33885988960306757
17.400999999998284,0.17788965230698248,0.34336434432447566
17.60099999999853,0.17779482565216212,0.34779958094266944
17.800999999998773,0.17769438317428252,0.3511630545978777
18.000999999999017,0.1771668798392688,0.35504613324751777
18.20099999999926,0.1770051970653202,0.35861971808379345
18.400999999999506,0.17647255866011521,0.3625069737087997
18.60099999999975,0.17618246003619792,0.366051547997982
18.799999999999994,0.1752537799358614,0.3699111747487608
19.000000000000238,0.17483740319037458,0.37306890836928375
19.200000000000482,0.17399484775770965,0.3761675049729663
19.400000000000727,0.17378702656367137,0.37923670414888955
19.60000000000097,0.17241010894663714,0.3823988178390876
19.800000000001216,0.17189930222124022,0.3850784620748028
20.00000000000146,0.17074788194523718,0.38771401094558244
