Time (s),X (m),Y (m)
0.001,0.0005727611008870025,0.0009689812320744445
0.20000000000000015,0.0017521742807360809,0.0007935532120330116
0.4000000000000003,0.007107009548508148,0.006103499279080953
0.6000000000000004,0.011294206922475158,0.007256386529199802
0.8000000000000006,0.02178990873674518,0.016723218562086403
1.0000000000000007,0.035446738820227135,0.021426573363682845
1.2009999999999785,0.049108449908300746,0.018246933389617703
1.4009999999999565,0.06108810798581135,0.031012381349234876
1.6009999999999345,0.0755437943495224,0.028318216792086143
1.8009999999999124,0.09159489922364562,0.025369556365518825
2.0009999999998906,0.10392967969971877,0.02495491420042988
2.2009999999998686,0.11829245136217942,0.025694524924573702
2.4009999999998466,0.12667157014252448,0.02925834481085535
2.6009999999998246,0.13568335215204488,0.036267066609442816
2.8009999999998025,0.15083727126426855,0.04510986226057626
3.0009999999997805,0.16632561887323247,0.04785686594393481
3.2009999999997585,0.18241969415959364,0.05339781374272349
3.4009999999997365,0.20036056164418084,0.05963764149371582
3.6009999999997144,0.222097041513633,0.06917293408364589
3.8009999999996924,0.238996367445934,0.07871153854301151
4.000999999999671,0.2533536874626315,0.08467455174225604
4.200999999999738,0.2678368912860692,0.0905116840588702
4.400999999999804,0.28955161993656303,0.08920472742839165
4.600999999999871,0.3057640535288952,0.09072070615793398
4.800999999999938,0.32094849023741856,0.09724751040916035
5.000000000000004,0.33867926852464486,0.10518791675459957
5.200000000000071,0.3514348220929236,0.10741206486409682
5.400000000000138,0.36512431249573524,0.10883127797628159
5.600000000000205,0.38098775971985144,0.11805212486661233
5.800000000000272,0.400175857256174,0.11811766440918187
6.000000000000338,0.41743693349210076,0.11377622705210483
6.200000000000405,0.43653544916606,0.11679904160512002
6.400000000000472,0.44915755054054984,0.12123427579745885
6.600000000000539,0.46758963152394545,0.12741723457942636
6.800000000000606,0.4873625656577432,0.14010692418577236
7.000000000000672,0.5025913106879839,0.15776915971856112
7.200000000000739,0.518854069485635,0.16848648143171258
7.400000000000806,0.5404531238732697,0.18086853715133572
7.600000000000873,0.5578974775555848,0.1901542634200835
7.8000000000009395,0.5772220249634243,0.1985726984973459
8.000000000001005,0.5922424334167558,0.2008808097751691
8.200000000000895,0.6073961630905548,0.215644784589015
8.400000000000784,0.625221080377319,0.2204737842756283
8.600000000000673,0.6418279102731214,0.2313710352483276
8.800000000000562,0.661375504446226,0.2489046265161681
9.000000000000451,0.678783451466585,0.25978505426078974
9.20000000000034,0.6944325505135315,0.26581946122446914
9.40000000000023,0.7112640282471725,0.2721941246578852
9.600000000000119,0.7292019118895159,0.282166228764029
9.800000000000008,0.7444766282627031,0.29606652229104125
10.000999999999896,0.7615974656404303,0.29970697743926705
10.200999999999786,0.7711626317744255,0.31176571304374295
10.400999999999675,0.7814595013522888,0.3178606215290972
10.600999999999564,0.7942123976060826,0.3284422745998211
10.800999999999453,0.8064300126515488,0.3336721373762484
11.000999999999342,0.8203335287878496,0.3445807919575165
11.200999999999231,0.8348283929357078,0.3548654668774587
11.40099999999912,0.849629615974778,0.3670778979373222
11.60099999999901,0.8701346329149023,0.3822562226713212
11.800999999998899,0.8844637618744853,0.39326508972008406
12.000999999998788,0.8996720987781024,0.39515090342678005
12.200999999998677,0.9150310331802362,0.4080861071835801
12.400999999998566,0.9325902232567578,0.42387580668823505
12.600999999998455,0.9438823947927825,0.44339532129624293
12.800999999998345,0.9568103230756968,0.45851372797938605
13.000999999998234,0.9672114066243409,0.4757304334819873
13.200999999998123,0.9802860531147044,0.47751390103384883
13.400999999998012,0.990630827407129,0.4936677893025474
13.600999999997901,0.9995806030852111,0.5028265985658638
13.80099999999779,1.0087950158236934,0.514030208821453
14.00099999999768,1.0167505306658657,0.5264630401854892
14.200999999997569,1.0275204456474398,0.5356344745883734
14.400999999997458,1.0423964868811868,0.5477390525765136
14.600999999997347,1.0489963790563037,0.5724524393768777
14.800999999997236,1.048792686997281,0.5928971358095435
15.000999999997125,1.050109147337617,0.6117394609172775
15.200999999997014,1.0500353408126237,0.6269859960585302
15.400999999996904,1.0501499305458109,0.6470771590831208
15.600999999996793,1.0492785551746895,0.6655180935416385
15.800999999996682,1.052584304109485,0.6810916888217002
16.000999999996573,1.0463944129261993,0.7065584724459733
16.200999999996817,1.0507072228151326,0.7253851760877956
16.40099999999706,1.0543686872877776,0.7378125907238611
16.600999999997306,1.0500603291109798,0.7562037758241811
16.80099999999755,1.0470371103347784,0.7795711401237964
17.000999999997795,1.0468625949783545,0.8022402620187987
17.20099999999804,1.039368006816404,0.8250662458696272
17.400999999998284,1.0284132703302666,0.8506988545889379
17.60099999999853,1.0252048406721346,0.8714454565786132
17.800999999998773,1.0153023154906906,0.8900552966279117
18.000999999999017,1.0045893470974174,0.9130493181989827
18.20099999999926,0.9996426721759556,0.9339264238276177
18.400999999999506,0.9934778936925992,0.952958708319173
18.60099999999975,0.9833588563885869,0.9729584837674571
18.799999999999994,0.9712276341485305,0.9911187611383097
19.000000000000238,0.9661898525793507,1.0081014885911468
19.200000000000482,0.9529953415757608,1.0289240777906576
19.400000000000727,0.9327618978122731,1.0485486191991595
19.60000000000097,0.9175383221295828,1.0660724107151527
19.800000000001216,0.91138180511182,1.0788393774526068
20.00000000000146,0.8972909684575193,1.0993583453582347
