Time (s),X (m),Y (m)
0.001,0.0007356649194092869,0.0008930179339548111
0.20000000000000015,-0.0005149593720365827,-0.0033243468304502482
0.4000000000000003,0.008844484109647733,0.0015669173214780592
0.6000000000000004,0.02938086172024618,-0.0001396521369599069
0.8000000000000006,0.056956513906160355,-0.009032364038289218
1.0000000000000007,0.08998865786436713,0.004415162811238048
1.2009999999999785,0.12718999286141952,0.014860608397947214
1.4009999999999565,0.16240511422907047,0.019642379534520648
1.6009999999999345,0.20466405747432956,0.03433767794308093
1.8009999999999124,0.24317086022025067,0.03181709032285036
2.0009999999998906,0.27967352419725383,0.020277568179913167
2.2009999999998686,0.3124236880162868,0.014110440351429594
2.4009999999998466,0.33924153694795034,0.011187046419956582
2.6009999999998246,0.37551424214068363,0.0012475819353208494
2.8009999999998025,0.39778296828671783,-0.020912836279272446
3.0009999999997805,0.4276529981058743,-0.05580980450778745
3.2009999999997585,0.46296825105077,-0.09644437847097372
3.4009999999997365,0.5051412480296257,-0.13666059526836047
3.6009999999997144,0.5444195494357679,-0.17369787403133488
3.8009999999996924,0.5815980726331255,-0.20893182955144113
4.000999999999671,0.6251210781316473,-0.240756879513083
4.200999999999738,0.659608635525787,-0.2760822382356599
4.400999999999804,0.6905059126113692,-0.313497228459088
4.600999999999871,0.7276507171323157,-0.3481200282795814
4.800999999999938,0.7724266914169172,-0.37831814429781785
5.000000000000004,0.8415269748032141,-0.40520872237547584
5.200000000000071,0.9021356164944488,-0.42445194650696066
5.400000000000138,0.9354492667735554,-0.4554303482488302
5.600000000000205,0.9694098205027545,-0.49184331159560524
5.800000000000272,1.0035218112727047,-0.5381716247355928
6.000000000000338,1.0290150624446135,-0.5839413611940604
6.200000000000405,1.0609856575928072,-0.6342791898483771
6.400000000000472,1.105647993220885,-0.6785783139661979
6.600000000000539,1.1456103311012709,-0.7309245560000036
6.800000000000606,1.18528704918294,-0.7829960213433731
7.000000000000672,1.2275241724028665,-0.8391166254677671
7.200000000000739,1.2676360354085867,-0.9034425168506522
7.400000000000806,1.303059578795617,-0.967251517884428
7.600000000000873,1.326303356643774,-1.026147991042234
7.8000000000009395,1.3624407138324979,-1.0881831850195325
8.000000000001005,1.3963975778925601,-1.1541062271009903
8.200000000000895,1.4417329066775075,-1.2172317283204697
8.400000000000784,1.4832356535863287,-1.272080715727055
8.600000000000673,1.516670032666549,-1.3182037858738118
8.800000000000562,1.5539335793350373,-1.362621553300725
9.000000000000451,1.5883756382109866,-1.4103052560669
9.20000000000034,1.6246515064588054,-1.458362360731738
9.40000000000023,1.670528171740657,-1.5011546609437183
9.600000000000119,1.7433378692278136,-1.531920755907948
9.800000000000008,1.8044182202171088,-1.5598831130794972
10.000999999999896,1.86389893396022,-1.5924113717529227
10.200999999999786,1.9129598847233744,-1.6347555977446169
10.400999999999675,1.9566038256884484,-1.688145813438064
10.600999999999564,1.9948901518108504,-1.7487256783274545
10.800999999999453,2.0449074474953868,-1.8117380408186041
11.000999999999342,2.0949127287573863,-1.8880395161976902
11.200999999999231,2.13545260386224,-1.9597504712372587
11.40099999999912,2.1913453852832814,-2.027218910017926
11.60099999999901,2.257334790778638,-2.0734419023292583
11.800999999998899,2.334803555180072,-2.105485936579203
12.000999999998788,2.4096434528288255,-2.131453211431814
12.200999999998677,2.4775793204211967,-2.1611843494795755
12.400999999998566,2.535542393642222,-2.20220473270948
12.600999999998455,2.584923326087571,-2.2494779107037215
12.800999999998345,2.6261663398602524,-2.300630271857273
13.000999999998234,2.6678610853137297,-2.354224668163209
13.200999999998123,2.7082748715453797,-2.4044501301089807
13.400999999998012,2.7594734275617365,-2.4593170188375817
13.600999999997901,2.820589834276039,-2.5101725811366022
13.80099999999779,2.8865526849448915,-2.555861481692386
14.00099999999768,2.9383421075575638,-2.613265962036088
14.200999999997569,2.9944366846853203,-2.6764736733039025
14.400999999997458,3.055639054838668,-2.743704524695624
14.600999999997347,3.1203218484551396,-2.800645666004623
14.800999999997236,3.1754127139017747,-2.8485776262439453
15.000999999997125,3.2445763963841863,-2.8856944966002778
15.200999999997014,3.3106238548085245,-2.9087217258662266
15.400999999996904,3.3813537366788298,-2.9215321145051245
15.600999999996793,3.453839760431637,-2.937739088714213
15.800999999996682,3.5141869830849757,-2.9647072561067636
16.000999999996573,3.5526008176241914,-3.012105387703593
16.200999999996817,3.6054016663034267,-3.0657259556784
16.40099999999706,3.6717912556008394,-3.1173525178974364
16.600999999997306,3.7268245245970655,-3.1688105693437345
16.80099999999755,3.7745013142457537,-3.2239313501373275
17.000999999997795,3.838517888545524,-3.28829177815418
17.20099999999804,3.9049936479851364,-3.346668909886827
17.400999999998284,3.9478901535419664,-3.408727767031362
17.60099999999853,3.9891409747478708,-3.477620651820121
17.800999999998773,4.0497495580473934,-3.554588512556794
18.000999999999017,4.11550877649807,-3.634976274250753
18.20099999999926,4.17643134333292,-3.7154488858564134
18.400999999999506,4.237799457744434,-3.80336766424922
18.60099999999975,4.283509545869767,-3.885194723271159
18.799999999999994,4.328768676383921,-3.9709844731200645
19.000000000000238,4.374185103736205,-4.05523391115153
19.200000000000482,4.421477553221844,-4.13736850838232
19.400000000000727,4.447406175445182,-4.21852888446851
19.60000000000097,4.4742195096843025,-4.289727975053409
19.800000000001216,4.515332283740212,-4.359559140633507
20.00000000000146,4.5831070831808365,-4.419515652501295
