Time (s),X (m),Y (m)
0.001,-0.0007759513068619564,-0.00026688599193002436
0.20000000000000015,0.006447224676721448,0.00037879251666048504
0.4000000000000003,0.010704043350683463,-0.0022939930202586505
0.6000000000000004,0.024350183942823077,-0.007437835413553802
0.8000000000000006,0.04205924595199879,-0.006448475835258272
1.0000000000000007,0.0529939243658954,-0.0025510427142097494
1.2009999999999785,0.06170416004903861,-6.199713949258516e-05
1.4009999999999565,0.055106829619469985,-0.0018772606038358346
1.6009999999999345,0.056924881011754906,-0.004127502769676076
1.8009999999999124,0.06719585851993064,-0.010064446976375128
2.0009999999998906,0.09087361129151607,-0.015265250639828642
2.2009999999998686,0.11611505965947586,-0.01876108223055408
2.4009999999998466,0.13334738521369852,-0.030071895558763273
2.6009999999998246,0.14942895901020492,-0.04157209285127264
2.8009999999998025,0.17518211690830043,-0.055157607645278106
3.0009999999997805,0.2031422281198141,-0.07899052364371122
3.2009999999997585,0.2238582053158461,-0.09573282309537538
3.4009999999997365,0.2548801307553711,-0.11110650658935362
3.6009999999997144,0.28528836564361615,-0.1259757800829833
3.8009999999996924,0.3209901990520367,-0.14842628799169755
4.000999999999671,0.3551675648669652,-0.17666921119704596
4.200999999999738,0.384407059473844,-0.20048071301887424
4.400999999999804,0.40872828949810086,-0.2132687509496094
4.600999999999871,0.4340467803980121,-0.23353375500920018
4.800999999999938,0.45780702024040376,-0.2565951695128574
5.000000000000004,0.4740279523099612,-0.27770668445136343
5.200000000000071,0.4904768195049529,-0.2923328039828079
5.400000000000138,0.5235834477092356,-0.3233710842882636
5.600000000000205,0.5569660761161519,-0.35441654191747696
5.800000000000272,0.5855654713835672,-0.38482022905320273
6.000000000000338,0.6240559563829818,-0.4147781493598101
6.200000000000405,0.656065798278568,-0.4422703667297049
6.400000000000472,0.6887438738402414,-0.47293432171142125
6.600000000000539,0.7281129852359735,-0.4995085535878663
6.800000000000606,0.7493881421805553,-0.515348254844392
7.000000000000672,0.769832470221897,-0.5371317625197347
7.200000000000739,0.7939702286553815,-0.5606012253971592
7.400000000000806,0.8214185318266406,-0.585278697206294
7.600000000000873,0.8653773106059769,-0.622086038969551
7.8000000000009395,0.9014549959173228,-0.6542569497469385
8.000000000001005,0.9387001329941094,-0.6850891667779765
8.200000000000895,0.9712899490923461,-0.713566090789648
8.400000000000784,0.9825350117271004,-0.7299538453133179
8.600000000000673,1.001182619443486,-0.7494285717053024
8.800000000000562,1.032207908080037,-0.7806293626119223
9.000000000000451,1.0767783362845054,-0.8151590449093756
9.20000000000034,1.1222968192822749,-0.8522815832110752
9.40000000000023,1.1647506814775503,-0.886625045655985
9.600000000000119,1.2146346092696816,-0.931009320490349
9.800000000000008,1.2482247911081583,-0.9643477177187408
10.000999999999896,1.2786668460887651,-0.9970917501232038
10.200999999999786,1.3084837596129932,-1.0233210903876337
10.400999999999675,1.3660893087347012,-1.0558442063461826
10.600999999999564,1.405230313686873,-1.084777239851629
10.800999999999453,1.4456607353493314,-1.1142587897415064
11.000999999999342,1.473689812750077,-1.1405366946889928
11.200999999999231,1.5010696507025554,-1.1655377822139072
11.40099999999912,1.542733327983638,-1.1879334640775008
11.60099999999901,1.581299118420165,-1.2048537908723727
11.800999999998899,1.6243989585303096,-1.2242307928244378
12.000999999998788,1.6750044254372725,-1.2444846527106392
12.200999999998677,1.7143249923230874,-1.2653382392309434
12.400999999998566,1.7591945769556938,-1.2942143768361696
12.600999999998455,1.810002083655507,-1.335367291685494
12.800999999998345,1.8588270528490265,-1.3823399549234958
13.000999999998234,1.9020928640052555,-1.4315086919373357
13.200999999998123,1.9403304537453931,-1.490065486713015
13.400999999998012,1.9565279272774956,-1.5417749080176404
13.600999999997901,1.9502636114887608,-1.5842978043921736
13.80099999999779,1.9277900302958118,-1.6329903983810412
14.00099999999768,1.8958604791920401,-1.6789114634527966
14.200999999997569,1.8601874759528643,-1.726996607719312
14.400999999997458,1.8230171245410747,-1.7773174660043103
14.600999999997347,1.7883129147257026,-1.816506917812331
14.800999999997236,1.7546196145171136,-1.8571435537622725
15.000999999997125,1.7213219347754523,-1.9024615280303603
15.200999999997014,1.687540864533573,-1.9420859668289587
15.400999999996904,1.6535468136599962,-1.982345249988729
15.600999999996793,1.6213685054661175,-2.0182319542536282
15.800999999996682,1.5955251230703196,-2.055349874708011
16.000999999996573,1.5661452638642044,-2.092383695276698
16.200999999996817,1.530699690019851,-2.1317378852725324
16.40099999999706,1.496268397050104,-2.1799790109610044
16.600999999997306,1.4629373338028435,-2.224525489677344
16.80099999999755,1.424410711517128,-2.2729281954277663
17.000999999997795,1.3797055341471933,-2.32248730198226
17.20099999999804,1.3405449251213855,-2.3707259956000617
17.400999999998284,1.3034190980924572,-2.4168274646205083
17.60099999999853,1.269998446594804,-2.45954449424254
17.800999999998773,1.2310749389029392,-2.502206156738904
18.000999999999017,1.1939403559157946,-2.530580671867941
18.20099999999926,1.1596359293487817,-2.5626236192005276
18.400999999999506,1.1259996581465146,-2.5924978245375545
18.60099999999975,1.097993949916995,-2.6179688228643836
18.799999999999994,1.070716225165596,-2.651117647561206
19.000000000000238,1.0448401979256143,-2.6917552033950614
19.200000000000482,1.0192308283447613,-2.721575085634429
19.400000000000727,0.9926795204280703,-2.759239096220743
19.60000000000097,0.9579274917015913,-2.8000419166000454
19.800000000001216,0.9179348979975387,-2.8511233712583426
20.00000000000146,0.8769538286911278,-2.8999906747892488
