Time (s),X (m),Y (m)
0.001,-0.0002955033697106609,-0.00089301793395481
0.20000000000000015,0.0003969898220093424,8.913944063337265e-05
0.4000000000000003,0.0021891907061117022,-0.0012964224923863023
0.6000000000000004,0.0069106431828539205,-0.000514989853898784
0.8000000000000006,0.010212745708688492,0.0024013446051540867
1.0000000000000007,0.014085606658934194,-0.0017083523522245052
1.2009999999999785,0.015794537793928188,-0.007707957944759412
1.4009999999999565,0.0181923524865985,-0.00894766901862019
1.6009999999999345,0.020019627954672825,-0.015553541221332024
1.8009999999999124,0.023861231776235652,-0.020959585102558406
2.0009999999998906,0.02861048122362897,-0.010710984569783996
2.2009999999998686,0.033271592857851036,-0.004407225681100186
2.4009999999998466,0.037999189980271075,-0.006046257644603699
2.6009999999998246,0.04196427368993458,-0.009165256153369687
2.8009999999998025,0.04737718053750902,-0.006200137842163975
3.0009999999997805,0.05218628187180404,-0.01356275841712297
3.2009999999997585,0.05632085527321041,-0.005966905793488647
3.4009999999997365,0.06092736134174603,-0.014459525588673748
3.6009999999997144,0.06381589159614086,-0.008715366597439173
3.8009999999996924,0.07066268596222909,-0.01136642162256593
4.000999999999671,0.0741777684184845,-0.010772322422334306
4.200999999999738,0.07727636250775047,-0.00529608052487643
4.400999999999804,0.08244963319157413,-0.0071684958413933885
4.600999999999871,0.08924541571291039,-0.009356401320814835
4.800999999999938,0.09184760871570524,-0.005234305186840787
5.000000000000004,0.0951236237617344,-0.0005203076720329057
5.200000000000071,0.10178611935491326,-0.0033414612299866296
5.400000000000138,0.10378259197457118,-0.002274457676147926
5.600000000000205,0.10692568890642035,0.0022202084521314902
5.800000000000272,0.11367441385049047,-0.0036209975962447224
6.000000000000338,0.11282912640867958,0.0040010853099264575
6.200000000000405,0.11587611225078115,0.006539605964181093
6.400000000000472,0.12302457479875291,0.002607068281403684
6.600000000000539,0.12986651057904344,-0.0016243822229036566
6.800000000000606,0.13628300694054735,-5.148579249722927e-05
7.000000000000672,0.14422001920122698,-0.00699965316661984
7.200000000000739,0.15006818061194704,-0.010843956071655864
7.400000000000806,0.15466366431360878,-0.005701985764793342
7.600000000000873,0.16174698125588577,-0.0035379753435045534
7.8000000000009395,0.16947176009918294,-0.004029650690233956
8.000000000001005,0.17456276142143784,-0.0068923155362977375
8.200000000000895,0.17426019081067584,-0.0010307041810069277
8.400000000000784,0.1824497417567083,-0.005244081257580688
8.600000000000673,0.18858168197558337,-0.0012691766357588506
8.800000000000562,0.19671904554361921,-0.002590137979256246
9.000000000000451,0.20438994521953288,-0.0048949268715325405
9.20000000000034,0.20972196135495336,-0.00033997060921828263
9.40000000000023,0.21879623908380202,-0.0023151714205695835
9.600000000000119,0.22523553076228894,-0.002185888134324135
9.800000000000008,0.22875117288328534,0.0022190928380223765
10.000999999999896,0.23286099987643896,0.0072910483332435045
10.200999999999786,0.24019341942214792,0.008741855724143094
10.400999999999675,0.24774084374582983,0.007954596056344946
10.600999999999564,0.24304258826590977,0.014807347338764612
10.800999999999453,0.24637823422690666,0.01969154242036278
11.000999999999342,0.24899291343392707,0.025009378730542067
11.200999999999231,0.2582002879019118,0.024909077137817832
11.40099999999912,0.25355401179364906,0.03146644576513729
11.60099999999901,0.2485836712487788,0.04093889898666683
11.800999999998899,0.25708395571993425,0.04255592060280909
12.000999999998788,0.26352322967437486,0.04548180875544251
12.200999999998677,0.2664407287711016,0.0504728834985208
12.400999999998566,0.27163949856522185,0.05505809959672877
12.600999999998455,0.2750135796308299,0.058841494713494064
12.800999999998345,0.27068761191946317,0.06472035956902034
13.000999999998234,0.27302848000296587,0.06946972565431538
13.200999999998123,0.2703142443413538,0.07571084569902962
13.400999999998012,0.2676522889706592,0.08095094504500268
13.600999999997901,0.259160982790164,0.0861400537848936
13.80099999999779,0.26235676332946883,0.09373748693732073
14.00099999999768,0.26706216511626885,0.09931751708247724
14.200999999997569,0.2561656115971696,0.10276582497165328
14.400999999997458,0.2532678313707816,0.1089836833709691
14.600999999997347,0.2597886594159687,0.1170481398624008
14.800999999997236,0.2659836966423689,0.122679806888254
15.000999999997125,0.264799509703739,0.12900336484602581
15.200999999997014,0.27067633063606317,0.13724050144337507
15.400999999996904,0.27324236817916536,0.1433359309371328
15.600999999996793,0.2745028291052898,0.14994344554960534
15.800999999996682,0.2715028436993732,0.15524684120506171
16.000999999996573,0.2763576724662171,0.16282008909617346
16.200999999996817,0.2693478091602885,0.16308813742746614
16.40099999999706,0.2677481671202316,0.1695343691975714
16.600999999997306,0.27089684484869664,0.1751697434932064
16.80099999999755,0.2662531198047124,0.17760390202746654
17.000999999997795,0.2644690004966668,0.1843319323544512
17.20099999999804,0.26852627941977775,0.19315262553015375
17.400999999998284,0.27093318926754495,0.19996202656559384
17.60099999999853,0.26711604092085767,0.20596248681038368
17.800999999998773,0.26926362102006857,0.2149274412703228
18.000999999999017,0.27165365692614873,0.22096204223336052
18.20099999999926,0.2617305833368063,0.21734119869216784
18.400999999999506,0.2606085458277885,0.22425346219960474
18.60099999999975,0.26250062252774986,0.23279056056201436
18.799999999999994,0.2579255145255778,0.23781278444580395
19.000000000000238,0.2599262373477409,0.24645532282544796
19.200000000000482,0.2596609853505006,0.2540422542939694
19.400000000000727,0.25574045620272706,0.25988198377680954
19.60000000000097,0.25443462062627137,0.26730124893886736
19.800000000001216,0.25565046747316456,0.27642720418183214
20.00000000000146,0.25081140369508215,0.2807210774764812
