Time (s),X (m),Y (m)
0.001,0.00013020853671323254,0.0010272443824616275
0.20000000000000015,0.0032836762618635136,-0.0004936886815883593
0.4000000000000003,0.014726700381510659,0.007770072289063725
0.6000000000000004,0.041568077592299066,0.006977775094697966
0.8000000000000006,0.08175136597053238,-0.013018368063624722
1.0000000000000007,0.11668061536691277,-0.052046791231170994
1.2009999999999785,0.1499853597709817,-0.10164864156550252
1.4009999999999565,0.1603006627194086,-0.16360127564074267
1.6009999999999345,0.15196450856375318,-0.22674132424615867
1.8009999999999124,0.12457819036857581,-0.2733138610382994
2.0009999999998906,0.07089876617037803,-0.30399278341022684
2.2009999999998686,0.01172281950510343,-0.31478839342602416
2.4009999999998466,-0.024242869688649322,-0.2937707863292682
2.6009999999998246,-0.03982881062513323,-0.2791415344841626
2.8009999999998025,-0.03634415093868716,-0.2928952174021541
3.0009999999997805,-0.030689338180922784,-0.32798518703166685
3.2009999999997585,-0.027684581082969027,-0.37192640088528095
3.4009999999997365,-0.038806138532201814,-0.4227069221036833
3.6009999999997144,-0.06995571561015898,-0.47103255483066964
3.8009999999996924,-0.11701287870710758,-0.5000160014192371
4.000999999999671,-0.16741177070868374,-0.5037377874371778
4.200999999999738,-0.18966031322753382,-0.487050658145472
4.400999999999804,-0.2037141540952139,-0.45249328317248316
4.600999999999871,-0.19523774190670812,-0.4020848037665937
4.800999999999938,-0.18583954986658205,-0.33821916546954345
5.000000000000004,-0.16857409664276174,-0.25876961509485663
5.200000000000071,-0.14053616009342307,-0.18440117677429518
5.400000000000138,-0.10031907022953443,-0.15114740572190105
5.600000000000205,-0.051347823275082465,-0.1514230914277549
5.800000000000272,0.0012759856919864912,-0.17384411806499375
6.000000000000338,0.07167864363908875,-0.20514487065428882
6.200000000000405,0.14198517059487842,-0.24283168714265188
6.400000000000472,0.22096294883517995,-0.2894656469217098
6.600000000000539,0.28293574271927757,-0.33396721937711915
6.800000000000606,0.31183132387702983,-0.33976847494531687
7.000000000000672,0.31919174236609965,-0.32487893454275324
7.200000000000739,0.3210903144789645,-0.28661515922759456
7.400000000000806,0.33631070764869536,-0.23654043540818614
7.600000000000873,0.3746237919574427,-0.1946698457100422
7.8000000000009395,0.4329737203242266,-0.17170177019989327
8.000000000001005,0.49622050784784744,-0.16746080955335985
8.200000000000895,0.5598819561438348,-0.1801171655412816
8.400000000000784,0.5854911178683673,-0.21361163074599862
8.600000000000673,0.581248096273695,-0.26860945005321585
8.800000000000562,0.5778972448627743,-0.3488291393324895
9.000000000000451,0.5618845597250904,-0.4277914112625416
9.20000000000034,0.5304164866769023,-0.48511985959300885
9.40000000000023,0.49057786391250335,-0.5051324086632785
9.600000000000119,0.4438267736699794,-0.5011265379858397
9.800000000000008,0.4145021052252643,-0.47231187488413345
10.000999999999896,0.41599692179702275,-0.43771725962823416
10.200999999999786,0.420315453466624,-0.4340093397599677
10.400999999999675,0.4378883150475786,-0.4518045381588181
10.600999999999564,0.46215085886099355,-0.4928105314281674
10.800999999999453,0.463912444843312,-0.5458650727427647
11.000999999999342,0.4485272681459942,-0.6127617431224713
11.200999999999231,0.41794211999025166,-0.6870911225142736
11.40099999999912,0.4055593887310137,-0.7619593835981603
11.60099999999901,0.3985752248578384,-0.8514489320238712
11.800999999998899,0.3713691329218706,-0.927453038049443
12.000999999998788,0.33576547830920767,-0.9735034612705022
12.200999999998677,0.2828058369548005,-0.9818221065535578
12.400999999998566,0.2265115519535747,-0.964705100669907
12.600999999998455,0.19567429908145018,-0.9212858911506484
12.800999999998345,0.1965194433797995,-0.8638895606953496
13.000999999998234,0.22956852482485127,-0.8117730234325912
13.200999999998123,0.2667677780889403,-0.7464404599040017
13.400999999998012,0.2992128046170689,-0.6689689889615941
13.600999999997901,0.33234844126591956,-0.5816626010583996
13.80099999999779,0.37543549113750124,-0.5016312953700813
14.00099999999768,0.4255266076853583,-0.43959110061028983
14.200999999997569,0.4895672436609731,-0.40929554417512237
14.400999999997458,0.5676181932018695,-0.39742366342025603
14.600999999997347,0.632317713106913,-0.4121682858502159
14.800999999997236,0.665281845228311,-0.4478383934246318
15.000999999997125,0.671108067973089,-0.4712560659085907
15.200999999997014,0.6621610159759351,-0.4738341272717408
15.400999999996904,0.6569701787522042,-0.45614602607333626
15.600999999996793,0.6722081592835651,-0.41472610822019157
15.800999999996682,0.6983502615286179,-0.39515252786324284
16.000999999996573,0.7288646473174853,-0.4002551572321505
16.200999999996817,0.7353524937693035,-0.42841257502865604
16.40099999999706,0.7177092267916378,-0.46228095997000096
16.600999999997306,0.6833430629731513,-0.4855801478550464
16.80099999999755,0.6456931977970173,-0.4817243051410949
17.000999999997795,0.5975397762902285,-0.44753236244505534
17.20099999999804,0.5735462338009409,-0.39360025382554337
17.400999999998284,0.5762697654449558,-0.3438726170354285
17.60099999999853,0.5959001296549061,-0.3136114181852891
17.800999999998773,0.6405182060559399,-0.2999942956913862
18.000999999999017,0.6859023212944573,-0.3132786787677177
18.20099999999926,0.7277551522191091,-0.33810001991283517
18.400999999999506,0.7603893679083831,-0.3794081731606368
18.60099999999975,0.7684114808023,-0.4178853005298197
18.799999999999994,0.7490572064738301,-0.437741466125387
19.000000000000238,0.7069008153513642,-0.44953299255894896
19.200000000000482,0.6632085343773694,-0.4439523821691812
19.400000000000727,0.6382132251205991,-0.41925102620059235
19.60000000000097,0.6349438949656002,-0.41536844937451256
19.800000000001216,0.6596346462259775,-0.4276739982960677
20.00000000000146,0.7044253898592803,-0.4306867795357886
