Time (s),X (m),Y (m)
0.001,0.0003099530129853942,0.0010272443824616275
0.20000000000000015,0.0009575878465151703,-0.0008885865982256566
0.4000000000000003,0.009746996945755258,-0.0002668815235874088
0.6000000000000004,0.026565640960507675,-0.00732820077938014
0.8000000000000006,0.047809794205346964,-0.00921295154028512
1.0000000000000007,0.07600113301719433,-0.021616158749398595
1.2009999999999785,0.10423975891028409,-0.04099772944760236
1.4009999999999565,0.14048970687994858,-0.0497044679604142
1.6009999999999345,0.17725766222627384,-0.0649194822309261
1.8009999999999124,0.2131259714516506,-0.08580508971017
2.0009999999998906,0.23584391804928415,-0.10884407304091243
2.2009999999998686,0.24095454838023556,-0.1387978000952867
2.4009999999998466,0.23081914405585402,-0.17013232654797456
2.6009999999998246,0.22401378178694215,-0.21169130910794742
2.8009999999998025,0.21759649132262177,-0.26734146936773634
3.0009999999997805,0.2004414579018917,-0.30686688238823917
3.2009999999997585,0.16491648375873336,-0.33263758768276136
3.4009999999997365,0.1402666697868635,-0.3345848894557825
3.6009999999997144,0.11309793186229451,-0.3139205386900404
3.8009999999996924,0.10590743364193787,-0.28233918738273717
4.000999999999671,0.11753979258368624,-0.2468602883152659
4.200999999999738,0.13091065572503574,-0.2002819490447568
4.400999999999804,0.15134406703489847,-0.15750087817352595
4.600999999999871,0.1816819383411719,-0.12590106033474766
4.800999999999938,0.22585358468606723,-0.11029060544521793
5.000000000000004,0.2729058725695855,-0.11028077934258722
5.200000000000071,0.31955887704165264,-0.12102333266977619
5.400000000000138,0.35287302657925024,-0.14349771372679943
5.600000000000205,0.3885661915826239,-0.17385887355435561
5.800000000000272,0.41163180777653074,-0.213991088614186
6.000000000000338,0.4261295615118031,-0.26456337921071693
6.200000000000405,0.4307112671060892,-0.3151495685901375
6.400000000000472,0.425261599249732,-0.36526915564520474
6.600000000000539,0.41962652768483066,-0.4229642350952651
6.800000000000606,0.4049906254110827,-0.4877507928553341
7.000000000000672,0.37824559890704557,-0.5403731969216352
7.200000000000739,0.3489087703535363,-0.5431075920701933
7.400000000000806,0.320999721839687,-0.532012611354391
7.600000000000873,0.2970669755923834,-0.5073939915354055
7.8000000000009395,0.2875396162349842,-0.468129107709172
8.000000000001005,0.2884236970348276,-0.4183846296924131
8.200000000000895,0.30217384191126156,-0.38038687217289807
8.400000000000784,0.32348809394292505,-0.35984884058462213
8.600000000000673,0.3622246236496676,-0.3394573612826881
8.800000000000562,0.40604829861318575,-0.3458788815465626
9.000000000000451,0.44804792974813673,-0.3665421246131521
9.20000000000034,0.507906791862789,-0.38457790345017623
9.40000000000023,0.5442029829673294,-0.4100453454809485
9.600000000000119,0.5592797453722602,-0.44497792729333396
9.800000000000008,0.5655541644262364,-0.48924975324809744
10.000999999999896,0.5592065266277629,-0.536128231292776
10.200999999999786,0.5487557269377167,-0.5840706097588089
10.400999999999675,0.5364157001078315,-0.6326999087958444
10.600999999999564,0.5232771916847508,-0.6781401234118177
10.800999999999453,0.5047315614863703,-0.7157736004866752
11.000999999999342,0.47204011517545685,-0.7374331698200187
11.200999999999231,0.4301307220393069,-0.7382376298935552
11.40099999999912,0.38002535934878595,-0.7274516197580502
11.60099999999901,0.31964925749044043,-0.7169015064630718
11.800999999998899,0.2841015009400423,-0.6983220754224753
12.000999999998788,0.27418254459759467,-0.6632095203878208
12.200999999998677,0.27777334005228044,-0.6229732479702939
12.400999999998566,0.29029213161499373,-0.5958715532307068
12.600999999998455,0.31503560435113237,-0.6009327432546095
12.800999999998345,0.3527706486098152,-0.6004610894199617
13.000999999998234,0.40192328650521103,-0.6024377921372979
13.200999999998123,0.45747446398815905,-0.5996055407115558
13.400999999998012,0.5070023751576258,-0.6052589012522032
13.600999999997901,0.5522631334300615,-0.6230818937535388
13.80099999999779,0.5888266902232328,-0.6578344655798681
14.00099999999768,0.6148075975327438,-0.6998030850407875
14.200999999997569,0.6238883086312769,-0.7458823802601325
14.400999999997458,0.6195937614088451,-0.7892929305333168
14.600999999997347,0.5958482422107095,-0.8014085819274245
14.800999999997236,0.557111535381928,-0.7969985656314759
15.000999999997125,0.5063976532931055,-0.7875153676497877
15.200999999997014,0.4532327177719224,-0.7742953967104519
15.400999999996904,0.4134493832401696,-0.7522055310628865
15.600999999996793,0.3727215302050306,-0.7183987158829319
15.800999999996682,0.33925476346316946,-0.6658797996882824
16.000999999996573,0.3186389371967216,-0.6085589750916995
16.200999999996817,0.30197980757685194,-0.5403126069446172
16.40099999999706,0.3061593037326312,-0.47895833367007784
16.600999999997306,0.32292645712660417,-0.41927941579464556
16.80099999999755,0.3405049807120163,-0.3629418331720546
17.000999999997795,0.368489793845406,-0.315311976806408
17.20099999999804,0.41085919432639184,-0.2703064707164078
17.400999999998284,0.464474469862187,-0.25186150008429903
17.60099999999853,0.5248413101082643,-0.25220195057474604
17.800999999998773,0.5801019096504636,-0.25914274207254817
18.000999999999017,0.6317376395168876,-0.27253611207137685
18.20099999999926,0.6754632974189564,-0.2994894014273302
18.400999999999506,0.7023456447076349,-0.34272776489429385
18.60099999999975,0.7066643787351986,-0.3905775354732767
18.799999999999994,0.7072419339612517,-0.4487897861559144
19.000000000000238,0.6929938686763151,-0.5013201190855878
19.200000000000482,0.674553113948497,-0.5535052929023457
19.400000000000727,0.6527379250539143,-0.6046343395380157
19.60000000000097,0.6239782373918825,-0.6403930345330431
19.800000000001216,0.5818393962059044,-0.6649475289839009
20.00000000000146,0.5281476452770913,-0.6872012064896492
