Time (s),X (m),Y (m)
0.001,-0.0006246028371892732,0.000591453832551625
0.20000000000000015,0.0027177308404834457,-0.001793198291244492
0.4000000000000003,0.0030480464741779647,-0.0026938450595088287
0.6000000000000004,-0.0005522035129847554,0.00397470450785847
0.8000000000000006,0.007916058521267566,0.004289268419997306
1.0000000000000007,0.01015112374744305,0.011791989390021743
1.2009999999999785,0.031191473734193922,0.02147012490593008
1.4009999999999565,0.04366374703868697,0.029170564889894873
1.6009999999999345,0.0592589738617116,0.03285896579251601
1.8009999999999124,0.07155999044082897,0.03228141625618718
2.0009999999998906,0.08808169086548909,0.02877401216365619
2.2009999999998686,0.10453737605709756,0.0286388800090319
2.4009999999998466,0.1182286570609322,0.03192313886919449
2.6009999999998246,0.13739504184430062,0.02927815161375786
2.8009999999998025,0.15072497686059838,0.029163443409556643
3.0009999999997805,0.16555323932379626,0.02650795157006084
3.2009999999997585,0.17911560987663214,0.02560326849509088
3.4009999999997365,0.19428410837357407,0.023862062418679053
3.6009999999997144,0.2085776663423529,0.020441800253346465
3.8009999999996924,0.22519272784942995,0.01956707963457658
4.000999999999671,0.24554627618738298,0.02063240261907018
4.200999999999738,0.26785353633275966,0.017193199071658023
4.400999999999804,0.280236108937805,0.015420379625146101
4.600999999999871,0.29576788888766914,0.008763153113588993
4.800999999999938,0.319577162906706,-0.002767234770586467
5.000000000000004,0.3385916172658079,-0.003823769849254567
5.200000000000071,0.3576292040483093,-0.0035116699219550442
5.400000000000138,0.377347515578243,-0.009128468879191763
5.600000000000205,0.39352494875340277,-0.014858546499213487
5.800000000000272,0.41174324687448965,-0.01782336327931702
6.000000000000338,0.43020942828943304,-0.021886570234248455
6.200000000000405,0.45014067884672115,-0.02806107343141609
6.400000000000472,0.46702370855009623,-0.029615274714741124
6.600000000000539,0.4866632885874737,-0.04208316317388457
6.800000000000606,0.5092791029590323,-0.055037817870751675
7.000000000000672,0.5286370820954835,-0.06342450672482777
7.200000000000739,0.5470271169349451,-0.07302227900104732
7.400000000000806,0.5602287524708853,-0.07594064298152801
7.600000000000873,0.5786124795734664,-0.09373465307009834
7.8000000000009395,0.5954354576161223,-0.10123875748952467
8.000000000001005,0.6136812689397647,-0.10749426163544026
8.200000000000895,0.6310113546399673,-0.11477802001421357
8.400000000000784,0.6453762789402906,-0.129140541031158
8.600000000000673,0.6574315453588921,-0.15096139840066547
8.800000000000562,0.6671636426144554,-0.17767533253043488
9.000000000000451,0.6746283938923291,-0.21198116323322702
9.20000000000034,0.6781504639854912,-0.23705928503656287
9.40000000000023,0.6822173862813402,-0.2593034881439605
9.600000000000119,0.6824366021262361,-0.2808436763151035
9.800000000000008,0.6813301272643958,-0.2981167357348374
10.000999999999896,0.6818369552583377,-0.3225420942724058
10.200999999999786,0.6851719927613913,-0.3369650713614373
10.400999999999675,0.6891551667945177,-0.3575931438669131
10.600999999999564,0.694403872093422,-0.3789150372919855
10.800999999999453,0.6993402242830722,-0.39668873532423493
11.000999999999342,0.7008218504110862,-0.4148796198440029
11.200999999999231,0.700837018381059,-0.43144299046796747
11.40099999999912,0.7023973464009016,-0.44851361678719376
11.60099999999901,0.7074766415615659,-0.46513122582754235
11.800999999998899,0.7042733428139941,-0.4873548022207405
12.000999999998788,0.7019390279759705,-0.5028237152212751
12.200999999998677,0.6976301161057703,-0.5280454172036267
12.400999999998566,0.6957645543907123,-0.5485453106912679
12.600999999998455,0.6986567458630962,-0.5719761811785129
12.800999999998345,0.692389426621809,-0.6004131914401281
13.000999999998234,0.6934008473375965,-0.6206395731927681
13.200999999998123,0.6952955033090453,-0.6398841614213404
13.400999999998012,0.6928855657822685,-0.6570822639341405
13.600999999997901,0.6947373439034376,-0.6784626952243236
13.80099999999779,0.6966530636659567,-0.7008345614239058
14.00099999999768,0.6947068733285389,-0.7249901211354359
14.200999999997569,0.6905886741456834,-0.7442509667274262
14.400999999997458,0.6882583094222746,-0.7709170623321716
14.600999999997347,0.6819604690098959,-0.7936918273538803
14.800999999997236,0.6775718260335982,-0.8217602595274368
15.000999999997125,0.6765312408071943,-0.837778398461095
15.200999999997014,0.670140720678099,-0.8571311179453028
15.400999999996904,0.6657300831113934,-0.8788703847352543
15.600999999996793,0.6611974958478878,-0.9018386729898614
15.800999999996682,0.6520908858115341,-0.9317133208564102
16.000999999996573,0.6449440163217819,-0.9569497222105442
16.200999999996817,0.6409129610821107,-0.9782712392146538
16.40099999999706,0.639475027523435,-0.9969027503922072
16.600999999997306,0.6300761617701671,-1.0197640020781202
16.80099999999755,0.6241401107653582,-1.042449568646646
17.000999999997795,0.6198829488109233,-1.0619271481162074
17.20099999999804,0.6171488970111947,-1.0798104991239823
17.400999999998284,0.6063833675520264,-1.1002497836271126
17.60099999999853,0.5874077906820748,-1.1236663247873744
17.800999999998773,0.5785013598275189,-1.1456213726190512
18.000999999999017,0.5608950027512779,-1.1625000476554421
18.20099999999926,0.547666543302251,-1.1750607667767294
18.400999999999506,0.5248408118489114,-1.1793959910027236
18.60099999999975,0.5008642525191432,-1.1801199327093026
18.799999999999994,0.47380003296754086,-1.1759834551936739
19.000000000000238,0.4545490048848118,-1.1744326010765382
19.200000000000482,0.4288327542296367,-1.1746859680116462
19.400000000000727,0.408006981854289,-1.1816547884719
19.60000000000097,0.38959972336413656,-1.183844142761954
19.800000000001216,0.3706712072629958,-1.181888676739128
20.00000000000146,0.3448695655173343,-1.1825789767735484
