Time (s),X (m),Y (m)
0.001,-0.0006246028371892732,0.000591453832551625
0.20000000000000015,0.0002000920883279146,0.0025399940845821315
0.4000000000000003,0.000116296865734096,0.006125418029380906
0.6000000000000004,0.0157299284059781,0.009227432487534461
0.8000000000000006,0.0322932128386161,0.01313756607131384
1.0000000000000007,0.05345325157930805,-0.004154322012476108
1.2009999999999785,0.07540303645434934,-0.031155236126695393
1.4009999999999565,0.08768940434591353,-0.07555927607819056
1.6009999999999345,0.0848116118484162,-0.10744864080594994
1.8009999999999124,0.06326156959578416,-0.15323606728914865
2.0009999999998906,0.03340994991408582,-0.20686589226529503
2.2009999999998686,-0.009234275542037958,-0.25921093435402937
2.4009999999998466,-0.061143871333281606,-0.3096361585377175
2.6009999999998246,-0.11828772416050097,-0.3458171051353171
2.8009999999998025,-0.16476999711482687,-0.37208255263558065
3.0009999999997805,-0.21615337364086987,-0.38021489286665794
3.2009999999997585,-0.2625630690390186,-0.3656319260919454
3.4009999999997365,-0.3103441591154228,-0.3445143229419116
3.6009999999997144,-0.3557150530466321,-0.3250226561121685
3.8009999999996924,-0.38895400176147915,-0.2913707399388811
4.000999999999671,-0.40677842778840095,-0.2518163370813298
4.200999999999738,-0.41755917223662736,-0.21197464744290195
4.400999999999804,-0.4249805067393991,-0.16666204408176488
4.600999999999871,-0.4255069596339683,-0.11038525008593346
4.800999999999938,-0.41224369664570687,-0.04282127035755538
5.000000000000004,-0.3970404292295641,0.02356905295209507
5.200000000000071,-0.3818395032857672,0.09307067397101751
5.400000000000138,-0.35591703949340675,0.15534470929567804
5.600000000000205,-0.30767521127736847,0.19476593515807777
5.800000000000272,-0.2563785422297813,0.21289589464249925
6.000000000000338,-0.20445222201177152,0.20977051487373252
6.200000000000405,-0.17378019242587942,0.17819643709089691
6.400000000000472,-0.17449354674691328,0.1275927477679873
6.600000000000539,-0.17449372964027474,0.07300790741747643
6.800000000000606,-0.18358074745287087,0.009353082756948605
7.000000000000672,-0.20155754341371668,-0.0504705051894798
7.200000000000739,-0.23838939943929954,-0.10059362383785847
7.400000000000806,-0.2855709132078466,-0.1254259754471979
7.600000000000873,-0.34601473211447503,-0.11603859365396026
7.8000000000009395,-0.40783888658479145,-0.09805099024812854
8.000000000001005,-0.4579892255109585,-0.075839301439637
8.200000000000895,-0.4872573000492526,-0.035076772123527965
8.400000000000784,-0.5005644690693862,0.021520065814178903
8.600000000000673,-0.5055633405883642,0.07920907074129437
8.800000000000562,-0.4980846230329815,0.13949809378786995
9.000000000000451,-0.475190076277176,0.20157746536594437
9.20000000000034,-0.44059181632171524,0.2670785464857431
9.40000000000023,-0.3943944469285157,0.3149860969746753
9.600000000000119,-0.33675387816946833,0.3319360704358181
9.800000000000008,-0.2850787432279427,0.3472925577688684
10.000999999999896,-0.23436935666937553,0.3344274155395846
10.200999999999786,-0.19929180679502875,0.301134024463903
10.400999999999675,-0.1842128724773701,0.25479563470960176
10.600999999999564,-0.18829857473682177,0.20351406980641945
10.800999999999453,-0.1876764916590372,0.15384470336812095
11.000999999999342,-0.19296470483852562,0.10270999741568138
11.200999999999231,-0.2043045296803375,0.04980037651253226
11.40099999999912,-0.21735022659988895,0.002436704584602434
11.60099999999901,-0.23827442697992404,-0.03791687732045955
11.800999999998899,-0.28456061102155855,-0.0646959421582727
12.000999999998788,-0.34825825377744063,-0.08247362020143735
12.200999999998677,-0.41768683557675,-0.08817625822405631
12.400999999998566,-0.4876786826242727,-0.08260556197276102
12.600999999998455,-0.5630734165276107,-0.07049516248460598
12.800999999998345,-0.6381317251895116,-0.049701061700937625
13.000999999998234,-0.7134077569211805,-0.020267711304296738
13.200999999998123,-0.78220507982293,0.028215296574232985
13.400999999998012,-0.8166313883004795,0.09309074225709803
13.600999999997901,-0.8116075282573669,0.1637792392292203
13.80099999999779,-0.7906867516517703,0.22951379847746356
14.00099999999768,-0.7511542819740037,0.27730847140692005
14.200999999997569,-0.7040137806636269,0.3088016754687875
14.400999999997458,-0.6553846863652865,0.31655949452987253
14.600999999997347,-0.602711252319906,0.3057625801532055
14.800999999997236,-0.5709883381709886,0.2658129938189219
15.000999999997125,-0.5570471642790595,0.2155955007970983
15.200999999997014,-0.5711579169348718,0.15856921793269108
15.400999999996904,-0.5998828348775237,0.10013620418441498
15.600999999996793,-0.6518124885854842,0.05226132525448887
15.800999999996682,-0.7041300222005082,0.017813940681490066
16.000999999996573,-0.7690263613741882,-0.00022689379240893248
16.200999999996817,-0.8336190800394898,-0.007431138459259384
16.40099999999706,-0.8852138795074337,-0.007812253470071992
16.600999999997306,-0.9416884121770935,-0.00692176948239817
16.80099999999755,-1.0057638691603352,0.021895746655085903
17.000999999997795,-1.0574643898050138,0.06863998976433333
17.20099999999804,-1.0736234160057325,0.1325150875944452
17.400999999998284,-1.0526375614015984,0.20082334423707654
17.60099999999853,-1.0065354127272403,0.24996540515837065
17.800999999998773,-0.958262655937579,0.2663698823808887
18.000999999999017,-0.9082269128595399,0.26599666308240494
18.20099999999926,-0.867748433680973,0.25311605801546533
18.400999999999506,-0.8457201513286214,0.2165213850644475
18.60099999999975,-0.8377878932697427,0.17162863660308317
18.799999999999994,-0.8432184549066201,0.12032162093216177
19.000000000000238,-0.8638879497825468,0.06717543778332248
19.200000000000482,-0.9087325948889102,0.022804065557633414
19.400000000000727,-0.9584608439474454,-0.008770659682601854
19.60000000000097,-0.9971208220103375,-0.03619591799392887
19.800000000001216,-1.0485794004014888,-0.043837952828408765
20.00000000000146,-1.1126327638639897,-0.03599778695877807
