Time (s),X (m),Y (m)
0.001,0.0007356649194092869,0.0008930179339548111
0.20000000000000015,0.0003559746825719754,0.0001222705760171683
0.4000000000000003,0.003134573163429682,0.002082585443559582
0.6000000000000004,0.011988155151439901,-0.0022594406772918677
0.8000000000000006,0.028252307143419156,-0.005421461082638912
1.0000000000000007,0.0587486067293312,-0.014625286113337091
1.2009999999999785,0.09430086552930414,-0.018609473853817442
1.4009999999999565,0.136883500545721,0.002673465757588668
1.6009999999999345,0.1739710430953844,0.016718250089153903
1.8009999999999124,0.2066223740859556,0.023555710064377684
2.0009999999998906,0.23998018256418505,0.01863049785450058
2.2009999999998686,0.27280400443367053,0.01571390398675534
2.4009999999998466,0.31158201800256036,0.015350027456880659
2.6009999999998246,0.34808138960891244,0.0072206106688778296
2.8009999999998025,0.3797795377724517,-0.006406648376383695
3.0009999999997805,0.42124719888497236,-0.005241110759903116
3.2009999999997585,0.4652184153403599,-0.008762859866085179
3.4009999999997365,0.502286080213307,-0.019915922522857316
3.6009999999997144,0.5555274857857778,-0.019082980679471912
3.8009999999996924,0.61095713698718,-0.01464633884108042
4.000999999999671,0.6571705726648053,-0.012470286664312016
4.200999999999738,0.7150000554502877,0.0024306577349586514
4.400999999999804,0.7826654449259925,0.024581401969507265
4.600999999999871,0.8359044835832609,0.03444375686781819
4.800999999999938,0.8920199245863173,0.03965466813925952
5.000000000000004,0.9414069698424014,0.04514375051230574
5.200000000000071,0.9851725746691354,0.048011484282320355
5.400000000000138,1.0398303737039287,0.05248428590755264
5.600000000000205,1.0966207406776278,0.05541291525230259
5.800000000000272,1.141140193186345,0.054591820347230514
6.000000000000338,1.186330385878824,0.043466398911525504
6.200000000000405,1.2414823454140187,0.02959579565683647
6.400000000000472,1.2879882582820237,0.014833279416354738
6.600000000000539,1.3241542756853157,-0.004415013533664753
6.800000000000606,1.380096424755352,-0.01425836622402691
7.000000000000672,1.445823570500889,-0.012915102395508365
7.200000000000739,1.509590288483221,-0.009914459662383777
7.400000000000806,1.5599095291273937,-0.00927219968876895
7.600000000000873,1.5989866856999462,-0.019705632162943056
7.8000000000009395,1.638449734944717,-0.0476967944754853
8.000000000001005,1.655551373537225,-0.08556043732013013
8.200000000000895,1.6838492780598535,-0.1334477044581749
8.400000000000784,1.7320732653790567,-0.18900240831965698
8.600000000000673,1.7883479707511538,-0.2357101918188751
8.800000000000562,1.8371967418729713,-0.27471155506591943
9.000000000000451,1.8883895993040305,-0.31728320838199253
9.20000000000034,1.9287770618570106,-0.36623794289798955
9.40000000000023,1.9868295130713556,-0.41570585881905836
9.600000000000119,2.0421518326286887,-0.4602826043395334
9.800000000000008,2.0829644092976753,-0.5040412753674401
10.000999999999896,2.138764743222091,-0.5407111041041729
10.200999999999786,2.1920143432145602,-0.5761298202789626
10.400999999999675,2.207222323227387,-0.6185812758062466
10.600999999999564,2.2300633244549495,-0.6666612911996614
10.800999999999453,2.2687428640582534,-0.7172318495667769
11.000999999999342,2.292188486564917,-0.7769340201467682
11.200999999999231,2.30502836784085,-0.8370704234544014
11.40099999999912,2.334324312877617,-0.8902371728003741
11.60099999999901,2.366321502888797,-0.9346834137126431
11.800999999998899,2.4193749672684053,-0.9753194856295985
12.000999999998788,2.4647905447080913,-1.0158216337320303
12.200999999998677,2.5048069012490672,-1.055105019007328
12.400999999998566,2.534526483455952,-1.0877504441337964
12.600999999998455,2.568735452772087,-1.1185186777288103
12.800999999998345,2.625262404757703,-1.1519902957363037
13.000999999998234,2.6771663831299524,-1.1889248089803421
13.200999999998123,2.7312260866709273,-1.2217681367952071
13.400999999998012,2.7944517381742284,-1.2563513225152811
13.600999999997901,2.835285180262069,-1.2864638954101024
13.80099999999779,2.8617354211832526,-1.3274361158414136
14.00099999999768,2.905576278614891,-1.375429338773862
14.200999999997569,2.9631619676354566,-1.4162180939924491
14.400999999997458,3.0260022272310336,-1.4524195362981844
14.600999999997347,3.0728778704467787,-1.4830262028750025
14.800999999997236,3.121017447172208,-1.5159925942822414
15.000999999997125,3.152368446699302,-1.5569664309346587
15.200999999997014,3.1908502837832686,-1.5984148529536975
15.400999999996904,3.2271134876744956,-1.6392211500406075
15.600999999996793,3.2678066784260587,-1.6639790599281932
15.800999999996682,3.3144709267611336,-1.687196952088332
16.000999999996573,3.370326214489535,-1.7104233692690514
16.200999999996817,3.4403380034615574,-1.7324398764720312
16.40099999999706,3.5161805432691744,-1.745818159740621
16.600999999997306,3.585258165288862,-1.7578376974957777
16.80099999999755,3.6462114370350895,-1.756987413933378
17.000999999997795,3.7096629448484864,-1.74869971812363
17.20099999999804,3.7732082047565942,-1.7440662436565442
17.400999999998284,3.8418591287929127,-1.7320144028797302
17.60099999999853,3.917346307007898,-1.7169456176045914
17.800999999998773,3.991189660399168,-1.7020836644155921
18.000999999999017,4.066677479683187,-1.681203411206972
18.20099999999926,4.135402855987305,-1.6627362275929873
18.400999999999506,4.198203107361421,-1.6559701200582793
18.60099999999975,4.259259525831722,-1.6547006513775138
18.799999999999994,4.331214817749524,-1.660770154506603
19.000000000000238,4.4106635721174605,-1.6668497308504109
19.200000000000482,4.490440820503251,-1.6661278850140826
19.400000000000727,4.5641405429330675,-1.6644017813518495
19.60000000000097,4.632091415654877,-1.6589199563285415
19.800000000001216,4.692821966864427,-1.6529911219141307
20.00000000000146,4.754102234457792,-1.648403203087122
