Time (s),X (m),Y (m)
0.001,-0.0005090653149319316,0.0007291460897812449
0.20000000000000015,0.0041559138240450395,-0.004625167050898635
0.4000000000000003,0.008357049295900218,-0.0007180911643479346
0.6000000000000004,0.019733453671879373,0.01754597577974811
0.8000000000000006,0.047246925990043855,0.025311059387307596
1.0000000000000007,0.07858945456893233,0.02052865101034484
1.2009999999999785,0.1051071039465203,0.029137659354696116
1.4009999999999565,0.12400064962341253,0.036779960209879455
1.6009999999999345,0.14117148584359934,0.03359959583387785
1.8009999999999124,0.16411366240015252,0.020893952951203748
2.0009999999998906,0.19393138879163938,0.004726647597292072
2.2009999999998686,0.21906845166167033,-0.022146578453143537
2.4009999999998466,0.23974411296937212,-0.05791496964658984
2.6009999999998246,0.25023334163350786,-0.09965685822108201
2.8009999999998025,0.2497454239559353,-0.14708479075831693
3.0009999999997805,0.24037689474051474,-0.18856259322511187
3.2009999999997585,0.21906262286542091,-0.22947144349774679
3.4009999999997365,0.20195074943678198,-0.2687653671069786
3.6009999999997144,0.18616049223415085,-0.3111487647010154
3.8009999999996924,0.17028571043248206,-0.34659285163530396
4.000999999999671,0.16450767504025993,-0.3778881928982575
4.200999999999738,0.13682029232263213,-0.40986427486144045
4.400999999999804,0.08569457775080641,-0.4341183209513489
4.600999999999871,0.03509242013469235,-0.45586618265136797
4.800999999999938,-0.014223452833630022,-0.46829240917623594
5.000000000000004,-0.05617639520798455,-0.48045015702426885
5.200000000000071,-0.09424464735088275,-0.4894495824900375
5.400000000000138,-0.1405984630091241,-0.4893968633541669
5.600000000000205,-0.1867031246592465,-0.4855730531470884
5.800000000000272,-0.23216719010597808,-0.4763190707328547
6.000000000000338,-0.2728738863664259,-0.4740301938925794
6.200000000000405,-0.31020569870706743,-0.46534395053963756
6.400000000000472,-0.3518057065138527,-0.4435235416801914
6.600000000000539,-0.3892593497629485,-0.42780901368054175
6.800000000000606,-0.41918873905382015,-0.40136941128098025
7.000000000000672,-0.44151882130450276,-0.36269581862573985
7.200000000000739,-0.46459088995492975,-0.32881540430205114
7.400000000000806,-0.48243813962066867,-0.29580231182279487
7.600000000000873,-0.4867042040923952,-0.25636220393598785
7.8000000000009395,-0.4706975847043368,-0.21169840790761138
8.000000000001005,-0.4567016814986539,-0.1681516152702901
8.200000000000895,-0.4420068638414177,-0.12672434125387513
8.400000000000784,-0.41353748128037787,-0.08405473807218822
8.600000000000673,-0.3900548124833045,-0.043519998512121745
8.800000000000562,-0.37027827291634474,-0.008724468547989452
9.000000000000451,-0.35179637985233153,0.02897050027505221
9.20000000000034,-0.32228242512837774,0.05472988238617057
9.40000000000023,-0.2824123748963934,0.07257435125135232
9.600000000000119,-0.239594065953788,0.08451693551576941
9.800000000000008,-0.19506232530155473,0.09742185172475408
10.000999999999896,-0.14792489299038614,0.10217257660627874
10.200999999999786,-0.09540950398727406,0.09603544670313209
10.400999999999675,-0.047600548766461616,0.08448700908513386
10.600999999999564,-0.0024410128247854142,0.07986811861094201
10.800999999999453,0.040323656462883176,0.043839425688693465
11.000999999999342,0.07599408524816617,-0.010196619081193568
11.200999999999231,0.09980731763155906,-0.05741090091397518
11.40099999999912,0.11788133157270894,-0.09703339893914943
11.60099999999901,0.13641509232079915,-0.13473100363688037
11.800999999998899,0.15137691609851056,-0.17626092709453725
12.000999999998788,0.15556920489191073,-0.22755343185603835
12.200999999998677,0.15704103270485856,-0.2743717888637665
12.400999999998566,0.16707488790895322,-0.31815435298415334
12.600999999998455,0.18016423717501492,-0.35932172758481645
12.800999999998345,0.1806062088109174,-0.4034324790507817
13.000999999998234,0.1611153019411802,-0.4443632742601922
13.200999999998123,0.12763098246121687,-0.4716766847965786
13.400999999998012,0.07596355317480648,-0.48189801729355486
13.600999999997901,0.012944559364965927,-0.48586697246827687
13.80099999999779,-0.051738919461496544,-0.4837604471500972
14.00099999999768,-0.11056357135417065,-0.46984443222354105
14.200999999997569,-0.15727617696314897,-0.44839378564284227
14.400999999997458,-0.19900836328145233,-0.4028351639648286
14.600999999997347,-0.232136245212198,-0.3592188382913334
14.800999999997236,-0.26265971986713504,-0.319628329371221
15.000999999997125,-0.28844905055426723,-0.281849930207182
15.200999999997014,-0.304692305934102,-0.2461541914522143
15.400999999996904,-0.3205430136098258,-0.21302501857393583
15.600999999996793,-0.3327905540995194,-0.1750053075934341
15.800999999996682,-0.3277200132188139,-0.12084008139334522
16.000999999996573,-0.316045032795391,-0.06539876741062711
16.200999999996817,-0.31260006196292817,-0.016947467286833058
16.40099999999706,-0.29603755526569386,0.019117460817120433
16.600999999997306,-0.2653058699303478,0.04253553543912748
16.80099999999755,-0.22802418693070212,0.05735994642035528
17.000999999997795,-0.18342922684029908,0.0650669460187497
17.20099999999804,-0.13060049889225403,0.0690160113819117
17.400999999998284,-0.07830551987707295,0.06937293726286521
17.60099999999853,-0.031273409960110354,0.06402299447549606
17.800999999998773,0.015998262036429522,0.06404950661586233
18.000999999999017,0.060648278750949504,0.06558115318480384
18.20099999999926,0.11841017414611447,0.061590033476256786
18.400999999999506,0.17908177024475117,0.04944412063324898
18.60099999999975,0.23718003777611213,0.04017362854792766
18.799999999999994,0.29138224894160286,0.03230511437844673
19.000000000000238,0.3404998962893585,0.024540394413871437
19.200000000000482,0.38576317489680056,0.01305289141680126
19.400000000000727,0.42806784819909244,-0.014814331134152581
19.60000000000097,0.46175845201541244,-0.058928717255085555
19.800000000001216,0.48194968568761,-0.10071656091736633
20.00000000000146,0.49517603013534617,-0.13844503851069756
