Time (s),X (m),Y (m)
0.001,0.0008829029745972832,0.0007899207378008392
0.20000000000000015,-0.001235740598529047,-0.0016155737078752809
0.4000000000000003,0.003954760938636987,-0.0017069641227702994
0.6000000000000004,0.019567970656703737,0.005680077424072906
0.8000000000000006,0.04477895715922021,0.013078240046794674
1.0000000000000007,0.07350396506968056,0.021184190947595802
1.2009999999999785,0.1075579506559117,0.027171945326708257
1.4009999999999565,0.13831651316167648,0.02694072550818552
1.6009999999999345,0.17365222118348994,0.021962852847074527
1.8009999999999124,0.19240052892813683,0.00418975053562068
2.0009999999998906,0.2068785139879415,-0.011924486867716237
2.2009999999998686,0.2253435942990429,-0.03235316853379304
2.4009999999998466,0.24825885371346249,-0.052146350594081445
2.6009999999998246,0.2913332697842527,-0.0718076713041004
2.8009999999998025,0.303100054800622,-0.09504067996867958
3.0009999999997805,0.3139504111320212,-0.12445950375307016
3.2009999999997585,0.3244169564705883,-0.1522983378812795
3.4009999999997365,0.32271291543797037,-0.18807213927869285
3.6009999999997144,0.3316654166661072,-0.22979659415279002
3.8009999999996924,0.35140278799100627,-0.27050527532582636
4.000999999999671,0.381713650610336,-0.30378620404460305
4.200999999999738,0.3891599486442755,-0.3308167845232474
4.400999999999804,0.4051290843742795,-0.3581105274637161
4.600999999999871,0.4225582893439832,-0.39499803990744475
4.800999999999938,0.4347308386975404,-0.43504132670989976
5.000000000000004,0.4575337429009978,-0.4673547445021833
5.200000000000071,0.49460744102371496,-0.49946243864678663
5.400000000000138,0.5291280158899134,-0.5280654799073463
5.600000000000205,0.5639539649416339,-0.56405611439376
5.800000000000272,0.5865697004671473,-0.6028410622693346
6.000000000000338,0.6095454221122535,-0.6349593352916019
6.200000000000405,0.623733184038291,-0.6747058086813547
6.400000000000472,0.6326427400342324,-0.7197728406022742
6.600000000000539,0.6579737253302186,-0.7694822742391567
6.800000000000606,0.6874542435036042,-0.8203176531301747
7.000000000000672,0.7138421075152236,-0.8721881762658316
7.200000000000739,0.7303979825446532,-0.9194729983544797
7.400000000000806,0.753983438983667,-0.9638103660138625
7.600000000000873,0.7912833170475515,-1.0069929630279477
7.8000000000009395,0.8366196291058474,-1.0488465156905407
8.000000000001005,0.8625697568983108,-1.0924546018945067
8.200000000000895,0.8855098269452265,-1.135007316064139
8.400000000000784,0.9155912031980713,-1.1734555214575613
8.600000000000673,0.9541902585771462,-1.211771730126246
8.800000000000562,0.9755101940151403,-1.2550893589275796
9.000000000000451,1.0035336512966988,-1.2919051018771965
9.20000000000034,1.0237408267106267,-1.3242675493500653
9.40000000000023,1.039545283317421,-1.3544349372196995
9.600000000000119,1.079216929770786,-1.3798128098697242
9.800000000000008,1.1125811141779092,-1.409534367548477
10.000999999999896,1.1496572132267124,-1.4358845848101884
10.200999999999786,1.1998789610045681,-1.4542065538125568
10.400999999999675,1.2471966190249895,-1.472755190162357
10.600999999999564,1.3038229686072602,-1.4923988243129829
10.800999999999453,1.3425181920661715,-1.514031618172441
11.000999999999342,1.3761611815352295,-1.5379272820365284
11.200999999999231,1.413025981642752,-1.5680204974374525
11.40099999999912,1.4595301891295442,-1.600638818319518
11.60099999999901,1.5000329089699418,-1.6379110568183
11.800999999998899,1.537080678373222,-1.679373613587399
12.000999999998788,1.5821185923373617,-1.7153409013278968
12.200999999998677,1.6332692395060615,-1.753798814940098
12.400999999998566,1.6855002101055703,-1.7908052499029723
12.600999999998455,1.7148354762972227,-1.8253393157317697
12.800999999998345,1.745841586716104,-1.8552842985342068
13.000999999998234,1.79669255144005,-1.8845959543092006
13.200999999998123,1.859051460989986,-1.9014504165925783
13.400999999998012,1.9176915862375883,-1.9006486854963198
13.600999999997901,1.9768668007085048,-1.9053608097356032
13.80099999999779,2.0378709981926613,-1.9179538478364415
14.00099999999768,2.0879529912917287,-1.938274403992391
14.200999999997569,2.1303446438266485,-1.9546981810038238
14.400999999997458,2.1642776139032733,-1.97543608491522
14.600999999997347,2.2071973044612916,-1.9971019538002468
14.800999999997236,2.2483251791038166,-2.022705328410852
15.000999999997125,2.2850436692599403,-2.0435286752739645
15.200999999997014,2.3183452019863475,-2.064398755605368
15.400999999996904,2.3599132772894778,-2.077500765328256
15.600999999996793,2.4260801420511346,-2.0850272403545804
15.800999999996682,2.4852405656196885,-2.0829956358817916
16.000999999996573,2.530761826286595,-2.0800140445901723
16.200999999996817,2.570977506784115,-2.083021207743227
16.40099999999706,2.611130094724185,-2.1015753075403003
16.600999999997306,2.6489526356535085,-2.1358859774554313
16.80099999999755,2.6818117731814244,-2.1850337916138196
17.000999999997795,2.711265554192245,-2.232775815922261
17.20099999999804,2.7542010637451297,-2.277299558269836
17.400999999998284,2.8047703713478596,-2.3218278708826676
17.60099999999853,2.84982367312061,-2.348448153411793
17.800999999998773,2.9037545906531093,-2.3509119514677486
18.000999999999017,2.9674478266308,-2.349155523969131
18.20099999999926,3.0331062773989923,-2.351210286604441
18.400999999999506,3.0907986896768262,-2.358926201347292
18.60099999999975,3.1396061021429555,-2.376257294710511
18.799999999999994,3.1850969608727406,-2.407432815171136
19.000000000000238,3.2187033832306944,-2.442852634641019
19.200000000000482,3.2591609120171263,-2.4774631310452295
19.400000000000727,3.2922813855248587,-2.5196295381498333
19.60000000000097,3.3357934461321217,-2.5685714688547643
19.800000000001216,3.374390971061166,-2.610244795291477
20.00000000000146,3.4208882004675782,-2.639030887919912
