Time (s),X (m),Y (m)
0.001,0.0002200807748493132,-0.0010311682891199468
0.20000000000000015,0.0026315821510375244,0.0034371189521496515
0.4000000000000003,0.009201432848304268,0.0015777909715133593
0.6000000000000004,0.01727886750452404,-0.00125040779939598
0.8000000000000006,0.03595051106357327,0.002340721793603555
1.0000000000000007,0.07660665355523885,0.0016454437637666791
1.2009999999999785,0.12813716738347614,-0.008830641322401423
1.4009999999999565,0.15540641003627978,-0.025943381636881094
1.6009999999999345,0.16910919387390508,-0.04991646303999626
1.8009999999999124,0.18042593013608013,-0.09598948296084171
2.0009999999998906,0.17871821978782512,-0.1431565614229252
2.2009999999998686,0.16113473805157844,-0.18246273259558596
2.4009999999998466,0.13156800489326753,-0.2086826574174077
2.6009999999998246,0.09445734536251442,-0.2138624300197734
2.8009999999998025,0.053144963879239525,-0.1982334583013193
3.0009999999997805,0.02729369546502796,-0.1719202207452532
3.2009999999997585,0.0074132930175715255,-0.13679545803862567
3.4009999999997365,-0.010658113804529105,-0.09359692952739404
3.6009999999997144,-0.0036237718500242927,-0.05121109382683947
3.8009999999996924,4.488701525653225e-05,-0.00723602975384025
4.000999999999671,0.008486340707643049,0.043783315746655976
4.200999999999738,0.015398090881188355,0.1043172518837024
4.400999999999804,0.03321737807501297,0.1624604576569649
4.600999999999871,0.049146339918930255,0.21480539507408744
4.800999999999938,0.07074924913042982,0.26508172956200815
5.000000000000004,0.09766226050657292,0.3170045197300723
5.200000000000071,0.13432281581416983,0.3598097711353155
5.400000000000138,0.17720542285947954,0.3954142198668222
5.600000000000205,0.23137778928250088,0.42411357043625825
5.800000000000272,0.2857869087344844,0.4309511796913714
6.000000000000338,0.3483530133115306,0.42423465656788456
6.200000000000405,0.3999174993376573,0.4005655454997702
6.400000000000472,0.44887227977317834,0.37719841157723083
6.600000000000539,0.4790805151941963,0.34017372413211316
6.800000000000606,0.4901317130696638,0.29016067329322137
7.000000000000672,0.48477479129180834,0.236654246229919
7.200000000000739,0.4640286862819474,0.19907694504096607
7.400000000000806,0.4249663529206945,0.16289138168906436
7.600000000000873,0.3661370010128686,0.14076785848413606
7.8000000000009395,0.30357423446844684,0.13541406524468053
8.000000000001005,0.24989464442532253,0.1499834761832028
8.200000000000895,0.22626237065183866,0.17886336368062808
8.400000000000784,0.2282646473426332,0.21168903480468088
8.600000000000673,0.2559323995041513,0.22641273621586705
8.800000000000562,0.30298382526360607,0.2308842860738721
9.000000000000451,0.361155261860075,0.22617095762061998
9.20000000000034,0.4065216435878679,0.20367427885602224
9.40000000000023,0.42189036211480674,0.1646572096063601
9.600000000000119,0.4221410446563405,0.10688927713987706
9.800000000000008,0.4060462007782285,0.06176416113281783
10.000999999999896,0.37705084943488776,0.03427394977921102
10.200999999999786,0.3344754782749331,0.02915139623489399
10.400999999999675,0.2765761895936239,0.04456342596761907
10.600999999999564,0.24384309825695363,0.07535248929806691
10.800999999999453,0.2166838704033053,0.11643829896398211
11.000999999999342,0.1982314666283957,0.16814951519897886
11.200999999999231,0.19093953811785647,0.22731717579851493
11.40099999999912,0.19181040034387706,0.293716204268291
11.60099999999901,0.2172637987558729,0.33034329405118584
11.800999999998899,0.2757026003548788,0.3544206517055121
12.000999999998788,0.3403058903649894,0.3662804974583864
12.200999999998677,0.400284567631841,0.3592775275480462
12.400999999998566,0.43370710918461824,0.33199519919476983
12.600999999998455,0.4395435469851104,0.292361901209817
12.800999999998345,0.4201195784452884,0.24475297086015196
13.000999999998234,0.3866974214401054,0.1860768042023013
13.200999999998123,0.33820653392756617,0.151159624165346
13.400999999998012,0.28745175041624554,0.14902357069205704
13.600999999997901,0.23572822751802755,0.1624380727777278
13.80099999999779,0.17948947560780032,0.18470723177914833
14.00099999999768,0.11678004219886262,0.2097173578101996
14.200999999997569,0.09807592017800171,0.24497340958952973
14.400999999997458,0.10652253162676506,0.2807742319156529
14.600999999997347,0.1313065647968733,0.3108815830223763
14.800999999997236,0.17029962344071145,0.3181731129107416
15.000999999997125,0.22132170774088564,0.3141597627506846
15.200999999997014,0.2765448766755954,0.30645260841330024
15.400999999996904,0.3212046156480577,0.2815777082641021
15.600999999996793,0.34389128350531367,0.24428511034148206
15.800999999996682,0.3544859008585345,0.19784423783685195
16.000999999996573,0.34905645335051955,0.14589960204207125
16.200999999996817,0.3304264155106714,0.09939458472101886
16.40099999999706,0.2981976704323003,0.06261121669450577
16.600999999997306,0.26126549477596483,0.016767690275379974
16.80099999999755,0.21861325386775673,-0.009830349799737936
17.000999999997795,0.17464949246875308,-0.01342015876551724
17.20099999999804,0.1208435697216433,-0.0004145639438936474
17.400999999998284,0.07216148230750741,0.021350322986074793
17.60099999999853,0.030913910447135495,0.05435049935141302
17.800999999998773,0.006738767914311781,0.09863745505371521
18.000999999999017,-0.005455383910933608,0.15412487512616208
18.20099999999926,-0.007720323053334893,0.2217613177067284
18.400999999999506,0.0011718704948549782,0.2902149136463965
18.60099999999975,0.02603779949550915,0.3608129729103456
18.799999999999994,0.06272249028641161,0.4115130143698317
19.000000000000238,0.11248215048257927,0.447895055132805
19.200000000000482,0.1656991292409601,0.48450932707132277
19.400000000000727,0.2243457809289373,0.5343585683655261
19.60000000000097,0.2857076105268672,0.5707833514417888
19.800000000001216,0.342248440958573,0.570305483241952
20.00000000000146,0.3960084848637422,0.5466110388167936
