Time (s),X (m),Y (m)
0.001,0.0012161128565605834,0.00026688599193002506
0.20000000000000015,-0.003489443660966176,-0.0009367843305228344
0.4000000000000003,-0.006489345109504649,-0.0036957659577431645
0.6000000000000004,-0.0036910808839450736,-0.0017518673693092013
0.8000000000000006,0.00256942689770885,0.00042710444829804374
1.0000000000000007,0.018890721946649185,-0.009230295969871556
1.2009999999999785,0.05059141170653574,-0.022319398819333636
1.4009999999999565,0.07742918008864771,-0.042269624249153835
1.6009999999999345,0.0916877669262268,-0.05682109602315524
1.8009999999999124,0.10561758516325467,-0.0647979627115221
2.0009999999998906,0.13670510136693764,-0.07821750972114154
2.2009999999998686,0.1548174861105286,-0.09363906240278214
2.4009999999998466,0.17419605394539825,-0.11685503156431283
2.6009999999998246,0.18908587107211916,-0.12893331940951808
2.8009999999998025,0.20451416780711956,-0.14137073482431156
3.0009999999997805,0.21941073613015846,-0.15800358478334672
3.2009999999997585,0.2401177379350197,-0.1817980265764846
3.4009999999997365,0.26730378749850037,-0.20896713131809663
3.6009999999997144,0.2953378504507587,-0.24400247390836524
3.8009999999996924,0.3070318796567934,-0.2797078380564679
4.000999999999671,0.30179650446417705,-0.3157426282461349
4.200999999999738,0.2865185857636783,-0.34877251146505356
4.400999999999804,0.2655157494278053,-0.3734371317054502
4.600999999999871,0.23059630154474658,-0.3944079137389372
4.800999999999938,0.19622757535965513,-0.4070563969439098
5.000000000000004,0.15167435792079742,-0.40735357236735986
5.200000000000071,0.09579826507817142,-0.39575564696899274
5.400000000000138,0.04863185602179712,-0.37624144472437976
5.600000000000205,0.010342197164623465,-0.35506610997905225
5.800000000000272,-0.030744919710121592,-0.32460788341099467
6.000000000000338,-0.07275180686073414,-0.2854151391598201
6.200000000000405,-0.12091612088464937,-0.24225436660673114
6.400000000000472,-0.17671122213709015,-0.1970958324314999
6.600000000000539,-0.2332021137429496,-0.1559060830001248
6.800000000000606,-0.290006293570978,-0.10404033628397845
7.000000000000672,-0.34722502409763484,-0.047504702580853014
7.200000000000739,-0.39501534013377004,0.010981718716957642
7.400000000000806,-0.4286153697737399,0.05505778547746186
7.600000000000873,-0.43880259476714384,0.09519040710625652
7.8000000000009395,-0.425180332074099,0.13664671974030826
8.000000000001005,-0.39416427109829294,0.18365348282561958
8.200000000000895,-0.35227904834769097,0.23389157793955054
8.400000000000784,-0.298402872993869,0.2849642435783843
8.600000000000673,-0.23952415958368156,0.3248424039906927
8.800000000000562,-0.18670752531862134,0.33229018060200355
9.000000000000451,-0.14384678553793642,0.3182502059202264
9.20000000000034,-0.09462105811189722,0.29026639944748583
9.40000000000023,-0.039797858781373506,0.2532584112780103
9.600000000000119,0.013291958432230041,0.21021231156547612
9.800000000000008,0.06322046428061781,0.16985043188338012
10.000999999999896,0.12138129804181604,0.12820568204572805
10.200999999999786,0.18192716084619387,0.0816821432881867
10.400999999999675,0.2414495590323663,0.03239529324405806
10.600999999999564,0.30101916423200337,-0.014560812782332205
10.800999999999453,0.36167355019928793,-0.059479713257421
11.000999999999342,0.42236348606519425,-0.11400736828940752
11.200999999999231,0.48076594361424213,-0.169046020977975
11.40099999999912,0.5397533317208976,-0.22724200450896362
11.60099999999901,0.5880112371114568,-0.28216695255633645
11.800999999998899,0.600386255870945,-0.3447607819825186
12.000999999998788,0.5866746169273676,-0.40027940343051105
12.200999999998677,0.5505178917964537,-0.4605403285393773
12.400999999998566,0.5085666397528221,-0.515002706478486
12.600999999998455,0.4558927554957811,-0.5693848968916979
12.800999999998345,0.3979022370899853,-0.6227186267411873
13.000999999998234,0.3318821634331821,-0.6766341472582593
13.200999999998123,0.27097851148044616,-0.7234193349365167
13.400999999998012,0.22344349164869276,-0.7532122008818001
13.600999999997901,0.16731013197546138,-0.7620995221972965
13.80099999999779,0.11583908630003696,-0.7464709904117229
14.00099999999768,0.05909897070954812,-0.7174659710985457
14.200999999997569,-0.0027576264805549123,-0.6804858983799106
14.400999999997458,-0.05839775630521985,-0.641517823573382
14.600999999997347,-0.11178344728438219,-0.6061295392961615
14.800999999997236,-0.16462448002052368,-0.5665434236420245
15.000999999997125,-0.2181439733289314,-0.5180752774352788
15.200999999997014,-0.27923633324231456,-0.4629807806682099
15.400999999996904,-0.34355526160345407,-0.41010537734158564
15.600999999996793,-0.4017828179223969,-0.363269951755086
15.800999999996682,-0.45084587825236877,-0.32694779705375127
16.000999999996573,-0.5007894692079773,-0.2870159606349458
16.200999999996817,-0.5498244104071145,-0.23541066188962548
16.40099999999706,-0.5752045883075688,-0.18799225684731052
16.600999999997306,-0.5727863946613896,-0.1428108765140846
16.80099999999755,-0.5537748921413451,-0.09849393749312245
17.000999999997795,-0.530695894024086,-0.0553263717713089
17.20099999999804,-0.5008240502524869,-0.002056211385528433
17.400999999998284,-0.46228588909805457,0.05266108169569187
17.60099999999853,-0.42072693205922673,0.10816392000690249
17.800999999998773,-0.3750730169447484,0.17104539251829876
18.000999999999017,-0.3227736737577442,0.23164862199273176
18.20099999999926,-0.25110136426968865,0.2871028956139177
18.400999999999506,-0.18190772014798617,0.3143076298374427
18.60099999999975,-0.11860372555700437,0.316854574548065
18.799999999999994,-0.05818222888966442,0.29852335063354685
19.000000000000238,-0.0009166491314535687,0.2660338012161349
19.200000000000482,0.05806735188765897,0.22266227044201334
19.400000000000727,0.11682700554443533,0.17000077628976823
19.60000000000097,0.167583505544761,0.11853989023609852
19.800000000001216,0.2044459321274118,0.05455624314200574
20.00000000000146,0.21737556524823215,-0.0018291040462590918
