Time (s),X (m),Y (m)
0.001,0.0006558713247593165,-0.0009345558501746678
0.20000000000000015,0.0029326919053713047,-0.003636047809168377
0.4000000000000003,0.004904426715275298,0.0004233146509785125
0.6000000000000004,0.005605032583458402,-0.0017245804227770285
0.8000000000000006,0.011708856789119423,0.004792224032671513
1.0000000000000007,0.018562642207578098,0.004075250282541857
1.2009999999999785,0.025487953048312192,-0.000584441632726757
1.4009999999999565,0.03315591819307027,-0.0008435224038758258
1.6009999999999345,0.03966990922076566,-0.0066872886955341914
1.8009999999999124,0.046120109267962624,-0.012506999405638312
2.0009999999998906,0.05231387788902091,-0.010016994466734368
2.2009999999998686,0.057998047924690356,-0.01770967780606542
2.4009999999998466,0.06652540845705195,-0.024654632330557015
2.6009999999998246,0.07555472453616313,-0.016964004783107677
2.8009999999998025,0.08675429197306633,-0.015742991938397333
3.0009999999997805,0.09111516235264651,-0.019511726896477205
3.2009999999997585,0.09984330269293304,-0.02684518695350538
3.4009999999997365,0.10734274555120785,-0.030738224492453396
3.6009999999997144,0.11457343556747532,-0.038260779109262025
3.8009999999996924,0.12117494771197554,-0.049311405812668935
4.000999999999671,0.12908179520182114,-0.054788919225730384
4.200999999999738,0.13767422684900382,-0.05906710339296427
4.400999999999804,0.14916992072490876,-0.06473398276423725
4.600999999999871,0.1588328308082791,-0.0671211968626653
4.800999999999938,0.16516371039943684,-0.07888441882989149
5.000000000000004,0.17054228093802767,-0.08971180050144523
5.200000000000071,0.17867504962214983,-0.0907723576332567
5.400000000000138,0.18761079863558833,-0.10021610893017092
5.600000000000205,0.19407871459754136,-0.10067248851974056
5.800000000000272,0.19966465289641483,-0.09955841000523642
6.000000000000338,0.2068663029545666,-0.09489597773551064
6.200000000000405,0.21576505141573293,-0.09121120215062495
6.400000000000472,0.22584499886939943,-0.09633973991212919
6.600000000000539,0.23397813545513554,-0.10585746825193167
6.800000000000606,0.24086278009388284,-0.11555320397268358
7.000000000000672,0.24739144647141756,-0.12077602289473162
7.200000000000739,0.25713951550778374,-0.11756687176981745
7.400000000000806,0.2619388209594098,-0.12161050115782929
7.600000000000873,0.27212456985310723,-0.11410896083390462
7.8000000000009395,0.27880250856462424,-0.1275320588293356
8.000000000001005,0.2867187920375027,-0.1279990923666337
8.200000000000895,0.2948336700614949,-0.12767594529484647
8.400000000000784,0.3017809744446619,-0.13312349955697061
8.600000000000673,0.30965163124752887,-0.1387117963107589
8.800000000000562,0.3177090877558799,-0.13327095353079674
9.000000000000451,0.3225866059206863,-0.1464004835098685
9.20000000000034,0.3282833663807471,-0.15018010886296623
9.40000000000023,0.33510262994851525,-0.15039854024073682
9.600000000000119,0.34192933448753404,-0.14894173710420194
9.800000000000008,0.3497910176627596,-0.15376839799594308
10.000999999999896,0.35271289615015683,-0.1607674909518235
10.200999999999786,0.35135445296604384,-0.17687087017788436
10.400999999999675,0.3526960824102141,-0.1896126811751283
10.600999999999564,0.355856990798507,-0.19553674006603627
10.800999999999453,0.3629078562224082,-0.1991795129043285
11.000999999999342,0.3678582684203572,-0.20716337164791415
11.200999999999231,0.3752466141393444,-0.21623931298544463
11.40099999999912,0.3791567685931499,-0.2172590146232865
11.60099999999901,0.3864544017926239,-0.22043066620102067
11.800999999998899,0.39379836624899944,-0.21551036904222814
12.000999999998788,0.39883919083965175,-0.22166657579970764
12.200999999998677,0.4051095451099955,-0.22200027967914
12.400999999998566,0.41129455149197536,-0.22234437805428542
12.600999999998455,0.4185919756340975,-0.2255965873337243
12.800999999998345,0.42630555130162906,-0.2324453346378913
13.000999999998234,0.43255803088050426,-0.234704491618511
13.200999999998123,0.4393347688283102,-0.2429633508500835
13.400999999998012,0.44677151560933137,-0.24510325399496416
13.600999999997901,0.45730633119763436,-0.2562580841230609
13.80099999999779,0.46446141500554017,-0.26823212437063043
14.00099999999768,0.474903919052381,-0.2685431262827823
14.200999999997569,0.48912026244813195,-0.2772839580838806
14.400999999997458,0.4957091247895071,-0.2841624990872929
14.600999999997347,0.5016021646062162,-0.2872643488525238
14.800999999997236,0.5071333059509308,-0.29020750017495434
15.000999999997125,0.5158492607712781,-0.29140200970663693
15.200999999997014,0.5284767308334328,-0.2906352203907097
15.400999999996904,0.5387596196854811,-0.2912066997680523
15.600999999996793,0.5478509222470722,-0.29677822678110694
15.800999999996682,0.5596636992884076,-0.2956598977779765
16.000999999996573,0.5683779380069769,-0.304022673304625
16.200999999996817,0.5759640461006197,-0.3018222287175759
16.40099999999706,0.5843892304085899,-0.30267172681756216
16.600999999997306,0.5929432031765094,-0.3017259571687563
16.80099999999755,0.6055814033152424,-0.30730187971482464
17.000999999997795,0.6112884530527503,-0.31097633864393653
17.20099999999804,0.6175023035271248,-0.31705660817082804
17.400999999998284,0.6236514941263702,-0.3194838933850349
17.60099999999853,0.6320554810658187,-0.3196016418577521
17.800999999998773,0.6382035821257055,-0.31615587692679725
18.000999999999017,0.6465844365529292,-0.3158708525115046
18.20099999999926,0.65493749768315,-0.316402294638603
18.400999999999506,0.6598954044918766,-0.327433570391654
18.60099999999975,0.6646391682902301,-0.33798817261591824
18.799999999999994,0.6703363401658011,-0.33983067407455547
19.000000000000238,0.6753719428990743,-0.34630718243161157
19.200000000000482,0.6841139738534645,-0.34877516563866695
19.400000000000727,0.690053860850184,-0.3588963019603891
19.60000000000097,0.6954408699149132,-0.36457207515978163
19.800000000001216,0.7010072369330056,-0.3760312273021517
20.00000000000146,0.7075871181668033,-0.3887157457023835
