Time (s),X (m),Y (m)
0.001,0.0012355833006349717,-0.00017906049427360483
0.20000000000000015,-0.0008392776109715585,0.0011327659337380923
0.4000000000000003,0.006772029251531737,-0.000784684712057546
0.6000000000000004,0.004907708292587033,0.0005493885230254909
0.8000000000000006,0.013995621837164282,0.0006678022630517423
1.0000000000000007,0.029832693225365414,-0.007476413963931523
1.2009999999999785,0.05212031892281536,-0.01860297058626837
1.4009999999999565,0.07732229134148841,-0.02777582962440393
1.6009999999999345,0.08710542156080224,-0.03060862736678053
1.8009999999999124,0.10510781843394235,-0.02949465573739805
2.0009999999998906,0.12041736733520549,-0.03603318548900225
2.2009999999998686,0.14223008869725023,-0.041125254072513204
2.4009999999998466,0.14989430911863433,-0.0417264489952734
2.6009999999998246,0.16982812261390165,-0.052415899645077
2.8009999999998025,0.1961376135575879,-0.06771499800698735
3.0009999999997805,0.21647556937249346,-0.07981529876760973
3.2009999999997585,0.23920078772197576,-0.094770460354119
3.4009999999997365,0.2613740451302021,-0.10850819310941716
3.6009999999997144,0.2821181834499625,-0.11905435820501659
3.8009999999996924,0.3063259626650185,-0.1318806850114492
4.000999999999671,0.33112863573849616,-0.14684373699389308
4.200999999999738,0.36576735664809923,-0.16143284295826946
4.400999999999804,0.3993473082263464,-0.17527025080713785
4.600999999999871,0.42943242804615,-0.18601143167611997
4.800999999999938,0.4618479757784225,-0.19853915854453116
5.000000000000004,0.4881393959594436,-0.206340021378096
5.200000000000071,0.5186335388004529,-0.2210054934727251
5.400000000000138,0.543388952605915,-0.2310220731430768
5.600000000000205,0.5732888642232669,-0.24544236491232058
5.800000000000272,0.5976084790890576,-0.254387312333017
6.000000000000338,0.6265880191151127,-0.26951478728772643
6.200000000000405,0.6551500906154676,-0.28840417266721435
6.400000000000472,0.6938899817796187,-0.30430554323905057
6.600000000000539,0.7332821600574034,-0.32796914223108703
6.800000000000606,0.7742854512618979,-0.3549795397399199
7.000000000000672,0.8094221806622188,-0.3671459667075163
7.200000000000739,0.8434732685252849,-0.388964344321198
7.400000000000806,0.8777415891396761,-0.4196282561481943
7.600000000000873,0.9049796431884752,-0.4492049008534945
7.8000000000009395,0.9095282058758989,-0.48242153391398007
8.000000000001005,0.8910106044851543,-0.5215556113085386
8.200000000000895,0.8759036087938459,-0.5587140069568569
8.400000000000784,0.8545471765958457,-0.585399937765691
8.600000000000673,0.8252507915195773,-0.6039419229408436
8.800000000000562,0.7838244614609562,-0.6110457125257107
9.000000000000451,0.7394375864956443,-0.6108102343129321
9.20000000000034,0.7069469767780129,-0.6039467831908325
9.40000000000023,0.6771309179070603,-0.5906171328135966
9.600000000000119,0.6388993922579974,-0.5748542536348201
9.800000000000008,0.5931426135272735,-0.5535486523749588
10.000999999999896,0.5599433202763543,-0.537351015796568
10.200999999999786,0.5235577585056408,-0.5177523694430328
10.400999999999675,0.47977439410738243,-0.49893487181751867
10.600999999999564,0.4391236701203709,-0.4808087672669087
10.800999999999453,0.401260359568624,-0.4645107295318984
11.000999999999342,0.36303630942667237,-0.44280138128052765
11.200999999999231,0.3205338306050944,-0.41978118051740154
11.40099999999912,0.27279107240975736,-0.3900408082986997
11.60099999999901,0.22308262741846513,-0.3702730520932436
11.800999999998899,0.18541128893595663,-0.35181771768407144
12.000999999998788,0.1675603845068501,-0.3241874902631697
12.200999999998677,0.1772704037169026,-0.2842591277736167
12.400999999998566,0.19155517477087164,-0.24596616441447414
12.600999999998455,0.2074793625458951,-0.20758703275737153
12.800999999998345,0.21644770799306218,-0.17716142416528213
13.000999999998234,0.23158051301716506,-0.1505277167724877
13.200999999998123,0.2539764693410407,-0.11541631863425934
13.400999999998012,0.2848121031192696,-0.0713050747769844
13.600999999997901,0.3141382376098379,-0.025618086932261253
13.80099999999779,0.3463099202918306,0.010442682133024968
14.00099999999768,0.38877876394898625,0.03156175736201542
14.200999999997569,0.43884287787360243,0.036208582393634156
14.400999999997458,0.46637689374161323,0.03518386876017278
14.600999999997347,0.4953417915833493,0.02882934466379021
14.800999999997236,0.5225026898280676,0.018106997823695674
15.000999999997125,0.5472567265949605,0.010248601699209771
15.200999999997014,0.5677073410185645,0.0067473149340020805
15.400999999996904,0.59595117356094,0.0005650467923011192
15.600999999996793,0.6351232571113677,-0.013840342630157274
15.800999999996682,0.6784854254127746,-0.02570261837054012
16.000999999996573,0.7129218853705481,-0.039895449601157894
16.200999999996817,0.7544288151066243,-0.05393556319019962
16.40099999999706,0.7962166241236418,-0.07145268143453751
16.600999999997306,0.8324608488080251,-0.0877126855469656
16.80099999999755,0.8717043011081741,-0.09575680062968732
17.000999999997795,0.9182268992993672,-0.11170987868514162
17.20099999999804,0.9648145782721017,-0.13456507941358978
17.400999999998284,1.0113623798888196,-0.16113627647793394
17.60099999999853,1.0533234096165696,-0.19012970245684405
17.800999999998773,1.091072206319423,-0.2206351211617941
18.000999999999017,1.1270422323708955,-0.25817677388072274
18.20099999999926,1.1595616790748358,-0.29106969679623174
18.400999999999506,1.1856541254605406,-0.3343602346126049
18.60099999999975,1.205434509751946,-0.3724140762429887
18.799999999999994,1.2137652687913913,-0.41505889468472357
19.000000000000238,1.2175437285083104,-0.4479154271357502
19.200000000000482,1.2146441360484341,-0.48431111128819726
19.400000000000727,1.2124798534102166,-0.5149479892019021
19.60000000000097,1.2004750879156258,-0.5474704576422487
19.800000000001216,1.1831873529161074,-0.5929546231118715
20.00000000000146,1.1560255837819156,-0.6470067469760906
