Time (s),X (m),Y (m)
0.001,0.0002200807748493132,0.0010311682891199472
0.20000000000000015,0.0011221205718833988,-0.0015796166400196272
0.4000000000000003,0.0017435105942725823,-0.00103727607838142
0.6000000000000004,0.00364527737221982,-0.002700367578777355
0.8000000000000006,0.005006826323380817,-0.003910152315232637
1.0000000000000007,0.007328616174538275,-0.003326056397069559
1.2009999999999785,0.00946280507860146,-0.004004056988397651
1.4009999999999565,0.011165120862827034,-0.004387772885037786
1.6009999999999345,0.013402555010779355,-0.004922193341148193
1.8009999999999124,0.0148448420429296,-0.005725802826698812
2.0009999999998906,0.016584681514720374,-0.0051692030993396604
2.2009999999998686,0.01720535900241704,-0.004136549577170031
2.4009999999998466,0.017513471633786734,-0.003392930444817799
2.6009999999998246,0.01817781126511233,-0.0023114372177733067
2.8009999999998025,0.019695254933457113,-0.001795480399866248
3.0009999999997805,0.021290978948208288,-0.0007270933105931254
3.2009999999997585,0.023859461659098784,-0.0016463569331921148
3.4009999999997365,0.024526779586589612,-0.0013175518108237186
3.6009999999997144,0.02606980973056903,-0.0014400513908925897
3.8009999999996924,0.02770234437098625,-0.0011418318589355406
4.000999999999671,0.029956638251083183,-0.0014409104493003958
4.200999999999738,0.031414803945990555,-0.001138617430940133
4.400999999999804,0.03311835829222453,0.00031520754630333283
4.600999999999871,0.03505770415546819,0.0009791658481034503
4.800999999999938,0.03828276978077888,-0.00018960566670821806
5.000000000000004,0.040401239085486707,0.0010433634782860916
5.200000000000071,0.04355911657863392,0.0026427701699305466
5.400000000000138,0.04609408310686252,0.003991506522164706
5.600000000000205,0.048549285066089756,0.004704001768053304
5.800000000000272,0.05205120085301859,0.00614757331133
6.000000000000338,0.055064833796376104,0.0072356209909070325
6.200000000000405,0.057292554185449006,0.009185960127530845
6.400000000000472,0.05998340351606847,0.011308639743256039
6.600000000000539,0.06165055081977942,0.013344886648331077
6.800000000000606,0.06258930951702985,0.014066405172581014
7.000000000000672,0.0633612962275051,0.014886557559189677
7.200000000000739,0.06494286077061981,0.015794616170587396
7.400000000000806,0.06555329236906891,0.016868640193256283
7.600000000000873,0.06707443978792357,0.017847376830637078
7.8000000000009395,0.06724999214397587,0.019244583891858087
8.000000000001005,0.06794496784060527,0.019944508868765858
8.200000000000895,0.06926952587039868,0.02026915808319119
8.400000000000784,0.06923050611239047,0.021175796201945037
8.600000000000673,0.07073518953145784,0.02143321685437816
8.800000000000562,0.07066219885382259,0.02268265497599646
9.000000000000451,0.07111007726923624,0.023228512222594807
9.20000000000034,0.07195330183748783,0.023855840311724635
9.40000000000023,0.07197323209108158,0.024917870707251433
9.600000000000119,0.07190131522697894,0.02591166392910939
9.800000000000008,0.07374776680272016,0.028248915894811117
10.000999999999896,0.0744353845464804,0.02953510029880432
10.200999999999786,0.07469656329738499,0.03082944369044977
10.400999999999675,0.07563498362043627,0.0317301949558588
10.600999999999564,0.07565003836962472,0.03333456459093327
10.800999999999453,0.07616774637653645,0.03421820265705372
11.000999999999342,0.07717629909086735,0.035862786935240545
11.200999999999231,0.07842579522982783,0.03679850684542396
11.40099999999912,0.07917177567137347,0.03810082343260121
11.60099999999901,0.07999373967128594,0.03908047662794556
11.800999999998899,0.08086959813740006,0.03986203230317548
12.000999999998788,0.08201565727571092,0.04074481464414148
12.200999999998677,0.08270002838654633,0.041884429786888486
12.400999999998566,0.08285798907014146,0.04339312475930867
12.600999999998455,0.08371813654300138,0.04481938874813121
12.800999999998345,0.08272878144165806,0.04667907387687903
13.000999999998234,0.08278908602602,0.04842268242695121
13.200999999998123,0.08233069643091628,0.05110483636068196
13.400999999998012,0.08251540667315313,0.05279864352014354
13.600999999997901,0.08211128624497611,0.05577544306351019
13.80099999999779,0.0822771755017317,0.058170354805016714
14.00099999999768,0.08210030300273934,0.060156537773198585
14.200999999997569,0.08224640897393184,0.062243253202196674
14.400999999997458,0.08199793705395282,0.06474041856521873
14.600999999997347,0.08152135201365955,0.06763637859461197
14.800999999997236,0.08066800184503137,0.070815766883859
15.000999999997125,0.07925648322819558,0.07345543113533197
15.200999999997014,0.07832646892449632,0.07517766405250448
15.400999999996904,0.07697405604286206,0.07765902284552947
15.600999999996793,0.07470337250310537,0.0800690941773973
15.800999999996682,0.07373626554290552,0.0818743165125582
16.000999999996573,0.07276685279788825,0.08338716676481397
16.200999999996817,0.0712176804054243,0.08534678870401546
16.40099999999706,0.07020102191048391,0.08774424464232415
16.600999999997306,0.06850966606291507,0.08895660193856017
16.80099999999755,0.06571866285437102,0.08997637251411601
17.000999999997795,0.06425364053640975,0.09058987291653052
17.20099999999804,0.0628346224653245,0.09186711643302112
17.400999999998284,0.06212852010807607,0.09262471443017319
17.60099999999853,0.060977480014493546,0.09353754894355074
17.800999999998773,0.059856835458597234,0.09446376415951047
18.000999999999017,0.05846699551461635,0.0954186364910981
18.20099999999926,0.057055792041487134,0.09607816725188366
18.400999999999506,0.055581203951211355,0.09580324504398363
18.60099999999975,0.05452449321394296,0.09666613878237812
18.799999999999994,0.05312843200545915,0.09644735669544766
19.000000000000238,0.05210243521458078,0.09708434022033184
19.200000000000482,0.051245551629759294,0.09623036138945135
19.400000000000727,0.049044460888531066,0.09793976770437719
19.60000000000097,0.048365884202936305,0.09866857094516136
19.800000000001216,0.04737912971617739,0.0983968933970168
20.00000000000146,0.04667176172690729,0.09889671209312488
