Time (s),X (m),Y (m)
0.001,-0.00037137305770231177,-0.0008446836120385868
0.20000000000000015,-0.0024746993786590996,-0.0043432647540288865
0.4000000000000003,0.00010852226516560066,-0.005206802799124645
0.6000000000000004,0.0044047289135772955,-0.0019634890046019166
0.8000000000000006,0.005347132107578336,-0.006329912023656021
1.0000000000000007,0.009692901547177358,-0.008091929766902971
1.2009999999999785,0.016608478209665763,-0.006263652197558291
1.4009999999999565,0.020513498081736324,-0.012857304353969227
1.6009999999999345,0.0250546609328146,-0.013355797347081085
1.8009999999999124,0.030392196524344568,-0.009286882917912171
2.0009999999998906,0.03583975058191759,-0.0029118219378620226
2.2009999999998686,0.04243061170553113,-5.4700545221811175e-05
2.4009999999998466,0.04711730688351947,0.004000427421201663
2.6009999999998246,0.05185146114155991,0.0047669251578928715
2.8009999999998025,0.0555253098933787,0.01012076683396334
3.0009999999997805,0.06054628577027601,0.013634944586168653
3.2009999999997585,0.06503300263626877,0.015566501244058248
3.4009999999997365,0.06882278019297622,0.018237092060770153
3.6009999999997144,0.07272535587663595,0.019103334380567914
3.8009999999996924,0.07673213663758878,0.02140723523562806
4.000999999999671,0.0801163944355614,0.02426526077034191
4.200999999999738,0.0833829429275036,0.027198909129839664
4.400999999999804,0.086318601488624,0.028995542634992384
4.600999999999871,0.0890748223203905,0.031327561801877346
4.800999999999938,0.09110207637558579,0.03420085503316819
5.000000000000004,0.09469587028395687,0.03525978821324925
5.200000000000071,0.0999800780729805,0.03585260708854589
5.400000000000138,0.10150127844253627,0.03939729040319986
5.600000000000205,0.10307422318382292,0.043918881590675495
5.800000000000272,0.1045742245943839,0.04750728054812242
6.000000000000338,0.10952937411063338,0.04803002284224598
6.200000000000405,0.11043059194671023,0.05257607972660991
6.400000000000472,0.11161791990411087,0.05691692240769461
6.600000000000539,0.11115726981003939,0.06213733657845038
6.800000000000606,0.11304917265307672,0.06642715399930267
7.000000000000672,0.11231173359873234,0.0718503758720806
7.200000000000739,0.11298778695778149,0.07526066651364223
7.400000000000806,0.1151729208345333,0.07800186839411115
7.600000000000873,0.11882453681124999,0.08093585008775273
7.8000000000009395,0.11741101328270659,0.08705761893885595
8.000000000001005,0.11919506152015595,0.09170858127872186
8.200000000000895,0.11831657848440535,0.09715338781824279
8.400000000000784,0.1191476771357778,0.10199362650169129
8.600000000000673,0.11867922659852102,0.10794778123100951
8.800000000000562,0.11588787027974362,0.11487421485681461
9.000000000000451,0.11242834044117359,0.12273933257703923
9.20000000000034,0.11283606183302454,0.12815803503546444
9.40000000000023,0.11002392612301304,0.1342389974344925
9.600000000000119,0.106538648094916,0.1405823680663329
9.800000000000008,0.10501250134291586,0.14682547626319553
10.000999999999896,0.10245645956924473,0.15394628642153174
10.200999999999786,0.0991886009748657,0.161122752867001
10.400999999999675,0.0941974212318552,0.16685541186852942
10.600999999999564,0.08849173422764073,0.17247455789070903
10.800999999999453,0.08243139256585386,0.1774803981896674
11.000999999999342,0.07656095930184549,0.18167259623128149
11.200999999999231,0.07311424482831039,0.1860477280899192
11.40099999999912,0.07088378783608244,0.19088750129537355
11.60099999999901,0.0672451520797657,0.1955484981590421
11.800999999998899,0.06370144873958329,0.19908323619970392
12.000999999998788,0.05952450374539807,0.20240831227944064
12.200999999998677,0.05473513167141789,0.20502143112302196
12.400999999998566,0.049451613787694665,0.20680346994752544
12.600999999998455,0.04309379619816855,0.20898245989460054
12.800999999998345,0.03787536430892346,0.21095277788962144
13.000999999998234,0.03291044935555507,0.21159145853476838
13.200999999998123,0.029197260875522366,0.21294169611110889
13.400999999998012,0.024648354015530335,0.21462187614250935
13.600999999997901,0.020951734681435245,0.2169363971869069
13.80099999999779,0.01702314576153999,0.21952294941341063
14.00099999999768,0.01639634113457099,0.2231806746811506
14.200999999997569,0.010272374649967561,0.22419549165444985
14.400999999997458,0.005409182395384768,0.2241731181754681
14.600999999997347,0.0006193583110169829,0.22438732794322136
14.800999999997236,-0.0045360188470505245,0.22532946170214235
15.000999999997125,-0.009106422879018913,0.22524624813133093
15.200999999997014,-0.016846224961903272,0.22420028145104454
15.400999999996904,-0.02111493640851163,0.2262982301166434
15.600999999996793,-0.024565039443690335,0.228678540419365
15.800999999996682,-0.028540834420041083,0.23125903584588586
16.000999999996573,-0.035219894698124116,0.22985394243044993
16.200999999996817,-0.042188896504798415,0.22710208198232115
16.40099999999706,-0.048911105697764516,0.22522499939077914
16.600999999997306,-0.054064591247730914,0.22596203179263613
16.80099999999755,-0.06026950356326914,0.22549209733486486
17.000999999997795,-0.06534227776312627,0.22670655959471253
17.20099999999804,-0.07174835855827176,0.2247375685803176
17.400999999998284,-0.07871305675561915,0.22232815541479595
17.60099999999853,-0.08543043103723479,0.2189467940114275
17.800999999998773,-0.09238653279234013,0.2146234108686792
18.000999999999017,-0.09816142142099671,0.2134916642186724
18.20099999999926,-0.10405509113162793,0.21160894416915588
18.400999999999506,-0.11134083223867161,0.2074762028461436
18.60099999999975,-0.11773011375683903,0.20492095673055813
18.799999999999994,-0.1239099298772562,0.20036837948475655
19.000000000000238,-0.12909637677959576,0.19622971309989934
19.200000000000482,-0.13379392383456748,0.1918889841813361
19.400000000000727,-0.13805659259053368,0.18743158547477604
19.60000000000097,-0.1428163051319203,0.1847944352504484
19.800000000001216,-0.14645783241781657,0.18056812473021563
20.00000000000146,-0.14997851036975798,0.17652194309562538
