Time (s),X (m),Y (m)
0.001,4.1020280575708355e-05,-0.0010155025257856578
0.20000000000000015,0.000348775306276775,-0.003464756237383903
0.4000000000000003,0.0008184577696929887,-0.006909192335420147
0.6000000000000004,0.004801768911234473,-0.008367200649430062
0.8000000000000006,0.007834169050650546,-0.012393744983016012
1.0000000000000007,0.012263538347762587,-0.008548311182382962
1.2009999999999785,0.017048420918864528,-0.008874181897460365
1.4009999999999565,0.025419366141249657,-0.002331656436484021
1.6009999999999345,0.03405695239438312,-0.003906751797502201
1.8009999999999124,0.0422912790862357,-0.00042558471792261227
2.0009999999998906,0.05042088146930863,-0.009509602610479716
2.2009999999998686,0.061368887054429944,-0.007830432197760267
2.4009999999998466,0.07383639701812005,-0.010213735183457284
2.6009999999998246,0.085283475737135,-0.01473156449010444
2.8009999999998025,0.09889630867841023,-0.015577556844758648
3.0009999999997805,0.11384326653739749,-0.010290513143527304
3.2009999999997585,0.12399977844516852,-0.01176922782618311
3.4009999999997365,0.1315199664631249,-0.0152778903344887
3.6009999999997144,0.14245341255607008,-0.008178865525871758
3.8009999999996924,0.15323533129840172,-0.003240738206216903
4.000999999999671,0.16401267439552442,-0.007722093618305363
4.200999999999738,0.17957812644059773,0.0012823256619331808
4.400999999999804,0.1911410826317619,0.001456530720516477
4.600999999999871,0.20281768828526292,0.007448587344348394
4.800999999999938,0.21700062908248435,0.01073145871148176
5.000000000000004,0.22842782436258205,0.0197749512749067
5.200000000000071,0.23950296650050507,0.026752100156456692
5.400000000000138,0.2526156093029953,0.03148565626342804
5.600000000000205,0.26400145262846614,0.032180968178702155
5.800000000000272,0.2743760758560973,0.03567006363298196
6.000000000000338,0.2856307691769873,0.03502432642674457
6.200000000000405,0.2971014346937794,0.040934501857261885
6.400000000000472,0.30863534057642045,0.04570201857527884
6.600000000000539,0.3223410837969132,0.055250643875947775
6.800000000000606,0.33524567264449995,0.057565399184529915
7.000000000000672,0.3467802656071568,0.06159146790823301
7.200000000000739,0.35719770422716934,0.0647967509871966
7.400000000000806,0.37055714066870465,0.06794120705331345
7.600000000000873,0.38512890204678624,0.07367366936680636
7.8000000000009395,0.39744055747810986,0.07527275476926713
8.000000000001005,0.40873694646433645,0.07635434085456715
8.200000000000895,0.418345623208067,0.07708643021144579
8.400000000000784,0.43134716730982703,0.07946921372098263
8.600000000000673,0.4410831877120874,0.08095316738257692
8.800000000000562,0.45207650815875355,0.08593392183607387
9.000000000000451,0.4642885996006782,0.08792324076025879
9.20000000000034,0.47893352796150346,0.08755118263934833
9.40000000000023,0.48946147035082543,0.08577785541377146
9.600000000000119,0.5011856503223807,0.08482225921181265
9.800000000000008,0.5138290798309567,0.08607513820024781
10.000999999999896,0.5249501439539564,0.08009414498605363
10.200999999999786,0.536847629794479,0.0785594060102027
10.400999999999675,0.549247924648228,0.07979260494306169
10.600999999999564,0.5595461143519121,0.0810506366315415
10.800999999999453,0.5686735758435563,0.07228626357936467
11.000999999999342,0.5790460070225641,0.07133600281867777
11.200999999999231,0.589589566381091,0.06617542115502384
11.40099999999912,0.6019940731512464,0.07215352811424569
11.60099999999901,0.6122055161515011,0.07716509456744496
11.800999999998899,0.6232674100867632,0.08001694118031674
12.000999999998788,0.6345005736206631,0.08956700517103099
12.200999999998677,0.6480489630784873,0.09348072092033546
12.400999999998566,0.6597961040478842,0.09552200928765708
12.600999999998455,0.6709363088177351,0.09249057654076716
12.800999999998345,0.6841237382806244,0.09407706745298014
13.000999999998234,0.6968126795600219,0.09133346320100942
13.200999999998123,0.7089275991650464,0.0890658615467477
13.400999999998012,0.7210884162288614,0.08846599503489501
13.600999999997901,0.7320237464765875,0.09729973200921403
13.80099999999779,0.7435611410488095,0.10346052828343819
14.00099999999768,0.7551979620440565,0.10895100036345848
14.200999999997569,0.766981969647992,0.11785423913256228
14.400999999997458,0.7777799068276456,0.12342840378672784
14.600999999997347,0.7886093134231056,0.12927285296135657
14.800999999997236,0.8003839982948634,0.12522600083688012
15.000999999997125,0.8101216285471637,0.12478121897016864
15.200999999997014,0.8200546125703714,0.12992296572971107
15.400999999996904,0.8326315880536292,0.13601312807588187
15.600999999996793,0.8403118589494178,0.14063526902212625
15.800999999996682,0.8528943501810384,0.14666546620711893
16.000999999996573,0.865726263064039,0.15132633690959332
16.200999999996817,0.8774645759920611,0.15459430128010468
16.40099999999706,0.8872979609591388,0.16365061575927642
16.600999999997306,0.8997648476692405,0.1685870415930186
16.80099999999755,0.9114441143633988,0.1830295732304423
17.000999999997795,0.9224972142839578,0.18630941203143422
17.20099999999804,0.9339826930921006,0.18922869106091725
17.400999999998284,0.9479464486291839,0.19657032016652864
17.60099999999853,0.9600296819691262,0.20033705174667643
17.800999999998773,0.9702370452701549,0.2058230907002794
18.000999999999017,0.9818852916631639,0.21112403723754108
18.20099999999926,0.9933068554979664,0.2208012738137749
18.400999999999506,0.9999477837757038,0.23012744841732788
18.60099999999975,1.0093947061089392,0.22894586093459215
18.799999999999994,1.0203694687482452,0.23089653745014715
19.000000000000238,1.0323689902854198,0.24192642871779196
19.200000000000482,1.0421484582035865,0.250063643989863
19.400000000000727,1.0518475091160226,0.250538868057689
19.60000000000097,1.0604101113842765,0.26030145273931005
19.800000000001216,1.0707085806740186,0.26423791309279987
20.00000000000146,1.0838731267193278,0.25962762867584444
