Time (s),X (m),Y (m)
0.001,4.1020280575708355e-05,-0.0010155025257856578
0.20000000000000015,-5.352748800008563e-05,-0.00435012074987698
0.4000000000000003,0.001897816890616438,-0.006004998770158729
0.6000000000000004,0.005450449860883446,-0.006282009960696163
0.8000000000000006,0.009501107302877832,-0.019084079501645614
1.0000000000000007,0.013913828759772222,-0.01913612711770056
1.2009999999999785,0.019164636282706444,-0.019026555554915704
1.4009999999999565,0.024271679257727177,-0.02251364243673052
1.6009999999999345,0.029623695034133743,-0.022634573882796834
1.8009999999999124,0.034687360126961525,-0.017718966964900277
2.0009999999998906,0.03877388684688171,-0.015907992138345563
2.2009999999998686,0.04214128886131916,-0.017213547994826592
2.4009999999998466,0.04713968011825063,-0.01677108043900551
2.6009999999998246,0.05313967629321213,-0.014698495026091468
2.8009999999998025,0.05838583741351118,-0.00931313240373062
3.0009999999997805,0.06228036926770845,-0.008966531153569782
3.2009999999997585,0.06458942597240148,-0.005629931681838516
3.4009999999997365,0.06805623483360623,-0.004339109495071904
3.6009999999997144,0.07067077045778958,-0.003037412816847511
3.8009999999996924,0.07403211017658785,-0.0003743560290821311
4.000999999999671,0.0799330713240048,0.0013764857710238368
4.200999999999738,0.08370392821778443,0.005007450765767292
4.400999999999804,0.08623687952769123,0.008426989592631643
4.600999999999871,0.09113576539033454,0.007901277255539157
4.800999999999938,0.09364286179320569,0.012705887973436988
5.000000000000004,0.0954901007048664,0.0168183664334623
5.200000000000071,0.09859533363308325,0.019723545885903603
5.400000000000138,0.0997543713595621,0.025178526113233977
5.600000000000205,0.10064767108490569,0.03204866655384198
5.800000000000272,0.10535265365547784,0.03374006731290884
6.000000000000338,0.10999339814631663,0.03735770785765506
6.200000000000405,0.11195327868106578,0.04112988893650018
6.400000000000472,0.11464933455353098,0.046250198720963746
6.600000000000539,0.1170155454761313,0.048383716966337295
6.800000000000606,0.12009271415857137,0.0532668977421633
7.000000000000672,0.12210377203528688,0.05852427800285427
7.200000000000739,0.1279873746891282,0.06253783061813618
7.400000000000806,0.1294309000112652,0.06845820365885852
7.600000000000873,0.12952958728938602,0.07387513600226059
7.8000000000009395,0.1336112698113266,0.07834026355219471
8.000000000001005,0.1381386069546111,0.08379518422859678
8.200000000000895,0.13859068320090015,0.08909650508544022
8.400000000000784,0.14312062224639033,0.09339768316171926
8.600000000000673,0.1403844042826924,0.10116243799529892
8.800000000000562,0.14256641015655305,0.10545794686856048
9.000000000000451,0.1452692740474173,0.11048043171093332
9.20000000000034,0.14661264450857345,0.11658650980615579
9.40000000000023,0.14687836189731487,0.1235020146151067
9.600000000000119,0.14654662014776257,0.1296105508851093
9.800000000000008,0.14337807703373814,0.1343534510010138
10.000999999999896,0.14434101623135098,0.14038762636940966
10.200999999999786,0.1425312873456222,0.1466211552816838
10.400999999999675,0.1372953666977879,0.15326794650674314
10.600999999999564,0.13914133391656516,0.15862552577876068
10.800999999999453,0.13970446410833912,0.16326173992081414
11.000999999999342,0.1386095699792555,0.16937913656370335
11.200999999999231,0.13610680918971677,0.17581452199463815
11.40099999999912,0.1342293595651223,0.18077939815301008
11.60099999999901,0.13396611235397657,0.18598379517305483
11.800999999998899,0.13793539196806834,0.1925350694937033
12.000999999998788,0.1358825308255325,0.19723156530490252
12.200999999998677,0.1344032162632552,0.20392487934883985
12.400999999998566,0.12887829757056332,0.20933635400435613
12.600999999998455,0.12677503206633506,0.21470400290671712
12.800999999998345,0.1284833389692104,0.22100807051220575
13.000999999998234,0.12835724831216996,0.22719855058730648
13.200999999998123,0.12460782195721737,0.2333885604099437
13.400999999998012,0.12142322312995288,0.23869363269235003
13.600999999997901,0.11722550743400925,0.24130006865849002
13.80099999999779,0.11528084053626417,0.24456404137273435
14.00099999999768,0.11542166564097905,0.2496206820539793
14.200999999997569,0.11110389255251836,0.2536211234576107
14.400999999997458,0.10605575679427395,0.25783803345435846
14.600999999997347,0.10267083711318077,0.26148801659247295
14.800999999997236,0.09997321918732253,0.26617047776639663
15.000999999997125,0.09625143900543592,0.26848996279743775
15.200999999997014,0.09011226122779362,0.2694672659915225
15.400999999996904,0.09028666256806729,0.2739306337150549
15.600999999996793,0.0816862660339932,0.2752617290242128
15.800999999996682,0.07728117817469882,0.27694575717504316
16.000999999996573,0.07458671829972884,0.2790176478292771
16.200999999996817,0.06980251236389902,0.2826937098739101
16.40099999999706,0.06736434953718581,0.28638077967172315
16.600999999997306,0.06263697497602015,0.28982687420840575
16.80099999999755,0.059523988442046344,0.2933916551249037
17.000999999997795,0.05128846448394186,0.29346806146706034
17.20099999999804,0.047697492261653006,0.2958388861332286
17.400999999998284,0.04333937435949019,0.29763306795165195
17.60099999999853,0.03984319491862026,0.30259762397331114
17.800999999998773,0.03378881784247359,0.30468936925626905
18.000999999999017,0.025891476852813674,0.3035160312167451
18.20099999999926,0.02083803947450111,0.3061677660387897
18.400999999999506,0.014877613763160888,0.3065872257539098
18.60099999999975,0.009605269380145722,0.3085475742535257
18.799999999999994,0.005045583195117738,0.3135693512889428
19.000000000000238,-0.0007186665742833302,0.3157232483388132
19.200000000000482,-0.005281336439050321,0.3184149478976217
19.400000000000727,-0.01261554209949134,0.31968238125686343
19.60000000000097,-0.01824777864205444,0.31978848080956895
19.800000000001216,-0.024320131139589217,0.32195764958072026
20.00000000000146,-0.030334999147408472,0.3236801056892999
