Time (s),X (m),Y (m)
0.001,0.0007356649194092869,0.0008930179339548111
0.20000000000000015,0.002606390514152321,-1.5618851414581106e-06
0.4000000000000003,0.009136025611221002,-0.006969164162936269
0.6000000000000004,0.022682850736975194,-0.003735941947328387
0.8000000000000006,0.04634694493454258,-0.0028577910233023814
1.0000000000000007,0.0802576077033867,-0.008055904245000882
1.2009999999999785,0.12131284183169803,-0.0035108692183648663
1.4009999999999565,0.16020255730535357,-0.0023272757996698028
1.6009999999999345,0.2051198301068586,-0.0022019978405556223
1.8009999999999124,0.24398187661585646,-0.007889636433915886
2.0009999999998906,0.28964111720070884,-0.0003493622524650677
2.2009999999998686,0.34122095052230017,0.007085753174100806
2.4009999999998466,0.3765107951747883,0.023273670467828626
2.6009999999998246,0.3976673871892705,0.06478272242521974
2.8009999999998025,0.41723166388127947,0.10913961225411818
3.0009999999997805,0.43263314981180556,0.14709184542063486
3.2009999999997585,0.4529783809184077,0.17667792168234012
3.4009999999997365,0.4799174370576848,0.20109435904645714
3.6009999999997144,0.5292783086884609,0.22157554288780076
3.8009999999996924,0.5865456088391638,0.24427588119104418
4.000999999999671,0.6466588719739474,0.2718385792470144
4.200999999999738,0.7068863277109552,0.3160162478567447
4.400999999999804,0.7713441657739827,0.3525314814613235
4.600999999999871,0.8305740539969638,0.37780852421477473
4.800999999999938,0.8876184616165772,0.4015697251386602
5.000000000000004,0.9445152228574573,0.4304447443842948
5.200000000000071,1.0045569611027187,0.4597141084307966
5.400000000000138,1.0700427879295957,0.4896888848051511
5.600000000000205,1.145846085740374,0.5171075169461591
5.800000000000272,1.2181443885171217,0.5717562436567921
6.000000000000338,1.2897349026259095,0.6406870101970895
6.200000000000405,1.3565500770770378,0.6997329614922245
6.400000000000472,1.422272417584549,0.7425152353352464
6.600000000000539,1.48268453376862,0.7832119218247452
6.800000000000606,1.5421056336811427,0.8279934239910561
7.000000000000672,1.6062343253088172,0.8721976667084125
7.200000000000739,1.6701433634667362,0.8973328319006052
7.400000000000806,1.7234270133934775,0.9313426898801128
7.600000000000873,1.7687353238418677,0.9716202197385935
7.8000000000009395,1.8185275949383506,0.9954136721929789
8.000000000001005,1.8785630867547936,1.0170188598286842
8.200000000000895,1.9441000415346235,1.0525173143359898
8.400000000000784,2.008438280738828,1.0990269673347905
8.600000000000673,2.067776808701052,1.1494180093650739
8.800000000000562,2.1262359993370743,1.201536923933145
9.000000000000451,2.1905591083175224,1.2616822480817274
9.20000000000034,2.2551451741534985,1.3199981279907977
9.40000000000023,2.3276792165914673,1.3971562563632882
9.600000000000119,2.4102025334462187,1.4670223984097015
9.800000000000008,2.4954045542305723,1.5231374388145313
10.000999999999896,2.580734467927528,1.5809559877037414
10.200999999999786,2.66707576754892,1.6358267319853985
10.400999999999675,2.7603675065288664,1.6840227412979099
10.600999999999564,2.8518578861957145,1.7193706904564299
10.800999999999453,2.947710253076607,1.7527730002437476
11.000999999999342,3.0426924797830783,1.7868912648137514
11.200999999999231,3.1334892174573175,1.8071645835788073
11.40099999999912,3.2175315805332114,1.8174244854535475
11.60099999999901,3.295520660256248,1.8007844584469164
11.800999999998899,3.3431675979530033,1.7560694478735233
12.000999999998788,3.363768860030077,1.7113914922578248
12.200999999998677,3.3753373979060957,1.672255260940269
12.400999999998566,3.3725134414386115,1.642335919524364
12.600999999998455,3.357289579052788,1.6002444386151313
12.800999999998345,3.333629848529704,1.5646945663788256
13.000999999998234,3.2856247535072844,1.519381223908075
13.200999999998123,3.231492384701337,1.4852913989092271
13.400999999998012,3.1682274598057654,1.4507912061032147
13.600999999997901,3.098291845323823,1.4196612198917786
13.80099999999779,3.020422606600434,1.3679170555258198
14.00099999999768,2.9583866756359543,1.2930613598266023
14.200999999997569,2.9223427027184607,1.2079880360552124
14.400999999997458,2.907221661354078,1.1175792256616237
14.600999999997347,2.8925889490001775,1.0279701813294724
14.800999999997236,2.8716613612588953,0.952226235961508
15.000999999997125,2.846485599587172,0.8848394740170108
15.200999999997014,2.8186481806562664,0.8288852106359665
15.400999999996904,2.7852499927715355,0.7826617343721536
15.600999999996793,2.732509515260527,0.7304536407916092
15.800999999996682,2.679474401464413,0.664395832011573
16.000999999996573,2.626600037233191,0.6054683429233253
16.200999999996817,2.5661977759799566,0.5488202856921289
16.40099999999706,2.5028895465701155,0.4985078396346182
16.600999999997306,2.438442403312667,0.4421139040423962
16.80099999999755,2.3794723108106717,0.37252451023654726
17.000999999997795,2.3101687352302607,0.2975810239399574
17.20099999999804,2.2337249765088587,0.24112383200584497
17.400999999998284,2.1476519432324177,0.17719658758589518
17.60099999999853,2.05854368196926,0.12214611991681254
17.800999999998773,1.9644215909721272,0.07015336014173176
18.000999999999017,1.8778804965056926,0.012363586834094527
18.20099999999926,1.8129631215192548,-0.05951465164258777
18.400999999999506,1.775569655099445,-0.15060102705319792
18.60099999999975,1.745337951952368,-0.23462883640032892
18.799999999999994,1.7095708388603545,-0.31289704948312747
19.000000000000238,1.666812823165562,-0.3974521114533076
19.200000000000482,1.631546395504208,-0.4790859536443713
19.400000000000727,1.5964728378765034,-0.5612479369634555
19.60000000000097,1.5509203940320357,-0.6400941028168484
19.800000000001216,1.4828764843075284,-0.7145252109569378
20.00000000000146,1.4087893162639644,-0.7976944234782972
