Time (s),X (m),Y (m)
0.001,0.0012355833006349717,-0.00017906049427360483
0.20000000000000015,-0.00012028750045154375,0.00037779368126576935
0.4000000000000003,0.0028695140023705795,0.0001888812680085132
0.6000000000000004,0.006366792007131761,0.0001641601856044073
0.8000000000000006,0.008939870887274604,0.0017055664423158857
1.0000000000000007,0.013422954842536167,-8.775346089382594e-05
1.2009999999999785,0.01669569948711597,0.0009432211712983232
1.4009999999999565,0.01841036423601493,0.0004497960577465451
1.6009999999999345,0.020325813313949077,0.00025282768050533075
1.8009999999999124,0.02193777124051128,7.582903126150733e-05
2.0009999999998906,0.0235874235884939,-0.00010306485873634812
2.2009999999998686,0.025273896193567305,-0.00025441440098250356
2.4009999999998466,0.026691589719075818,-0.00036930284678692325
2.6009999999998246,0.02828974399492768,-0.0005434106920777195
2.8009999999998025,0.029708507795881748,-0.0006978949997210654
3.0009999999997805,0.0314295528051769,-0.0008550862412240186
3.2009999999997585,0.0329710705722259,-0.0009721890477552762
3.4009999999997365,0.03465227816597605,-0.001105896428302982
3.6009999999997144,0.036765359412230386,-0.0012805582993610414
3.8009999999996924,0.03864046473029639,-0.0014128837192865398
4.000999999999671,0.040689584861606724,-0.0015704647419419089
4.200999999999738,0.043018369211490576,-0.0017300233433659286
4.400999999999804,0.045378282075405285,-0.0018245363847057407
4.600999999999871,0.047801338730820424,-0.0018715734317825816
4.800999999999938,0.05022562889411264,-0.001976771860320217
5.000000000000004,0.052962821338006325,-0.002042576434655762
5.200000000000071,0.055620239996121826,-0.002091748721595342
5.400000000000138,0.0583558673699986,-0.0021188110914575177
5.600000000000205,0.06114217610998292,-0.002126423377494972
5.800000000000272,0.06425706446597008,-0.002085697758477708
6.000000000000338,0.06716166138719326,-0.0020039541658036586
6.200000000000405,0.07034015718949395,-0.0018629752750203051
6.400000000000472,0.07367277393482263,-0.0016417938922464737
6.600000000000539,0.07704534538024621,-0.001404004206139036
6.800000000000606,0.08037026975907056,-0.0011026084453643783
7.000000000000672,0.0837418386364616,-0.0007578715692944922
7.200000000000739,0.08729699511349219,-0.00023529588334283142
7.400000000000806,0.09137502503384871,0.0013933255223347338
7.600000000000873,0.09613878191184629,0.005065668938762924
7.8000000000009395,0.09820896132313812,0.00931234933799361
8.000000000001005,0.10094993579480907,0.013227064971308555
8.200000000000895,0.10347308032687469,0.01728916126140384
8.400000000000784,0.10637911141050266,0.02133152004858112
8.600000000000673,0.1077903681938962,0.02513954625306167
8.800000000000562,0.10960804876484755,0.028899650006244754
9.000000000000451,0.11022211960051008,0.03263665922515335
9.20000000000034,0.11146392522923859,0.03642770975178802
9.40000000000023,0.11214505685947686,0.040377220669812065
9.600000000000119,0.11287761471797766,0.043910004105836196
9.800000000000008,0.11243524662170401,0.04747168606481789
10.000999999999896,0.11266071845983712,0.051109783859448456
10.200999999999786,0.11177099760119487,0.054732169577029664
10.400999999999675,0.1114166531934729,0.05823083385360207
10.600999999999564,0.11009885258022797,0.06195420577349155
10.800999999999453,0.1093356929714852,0.06531288162346609
11.000999999999342,0.10784439910059299,0.06878331827146815
11.200999999999231,0.10704347011756432,0.07219939816832233
11.40099999999912,0.10687383842259061,0.07607307213950039
11.60099999999901,0.10921248283094491,0.08038371158476343
11.800999999998899,0.11226611127468107,0.08375160121224261
12.000999999998788,0.11464185253673506,0.0863801863949665
12.200999999998677,0.11749769030225028,0.08869639793467335
12.400999999998566,0.12041600790226095,0.09078145579293054
12.600999999998455,0.12340320460441487,0.09291182685783198
12.800999999998345,0.12627906257829713,0.09496005452741721
13.000999999998234,0.12946675100917415,0.09730481088191531
13.200999999998123,0.13252554740351885,0.09957660763836126
13.400999999998012,0.13589679938816995,0.1022476029217484
13.600999999997901,0.139417735959027,0.10630893992602859
13.80099999999779,0.14300544244805544,0.11277783431940137
14.00099999999768,0.14601791781113138,0.11940593992815877
14.200999999997569,0.14884795969447118,0.12610743969131194
14.400999999997458,0.15181686724430699,0.13273059449605282
14.600999999997347,0.1543717090794359,0.13955797103776785
14.800999999997236,0.15729516729477275,0.14617500534872965
15.000999999997125,0.16010059155219622,0.15300697978118594
15.200999999997014,0.16186764919057153,0.15960463244067305
15.400999999996904,0.16502906443489074,0.16528612612491114
15.600999999996793,0.1679353515006387,0.17051603126831463
15.800999999996682,0.1707087773112744,0.1758321231592956
16.000999999996573,0.17361531450605341,0.1808833348572373
16.200999999996817,0.17630525183133286,0.18593998350609095
16.40099999999706,0.17902755230395426,0.19123643274045457
16.600999999997306,0.18184196503388347,0.19708429483340462
16.80099999999755,0.18450281402949456,0.20251046847380602
17.000999999997795,0.18711241038339585,0.2080175605781457
17.20099999999804,0.18883875316315982,0.21454841118698362
17.400999999998284,0.1898198277740988,0.22181058609401194
17.60099999999853,0.19043209521655255,0.22895258125753745
17.800999999998773,0.1901889465636062,0.2354493078764348
18.000999999999017,0.19034984306688005,0.24229679560442963
18.20099999999926,0.19003616266655787,0.2487170499216401
18.400999999999506,0.19009552387016035,0.25546769613788556
18.60099999999975,0.18984757114960166,0.2616754506764554
18.799999999999994,0.18977477051324473,0.26811668328413707
19.000000000000238,0.1888510049070034,0.2734724370070673
19.200000000000482,0.18865391162374834,0.27976849802589576
19.400000000000727,0.18772000033298908,0.2852096058705603
19.60000000000097,0.18697519822428732,0.2905640775530182
19.800000000001216,0.18584839163200667,0.295939750749907
20.00000000000146,0.18484773108391223,0.3010193737866937
