Time (s),X (m),Y (m)
0.001,0.0012355833006349717,-0.00017906049427360483
0.20000000000000015,0.006370883523654945,-0.00037794725734911495
0.4000000000000003,0.010349815636598036,-0.0016508045620478933
0.6000000000000004,0.010475483741208222,-0.0029055616197957755
0.8000000000000006,0.011748563695084008,-0.0031549413897800317
1.0000000000000007,0.017503059419380244,-0.003666499975861033
1.2009999999999785,0.023268379245734012,-0.008860883280908368
1.4009999999999565,0.03683645408189107,-0.013050384285284905
1.6009999999999345,0.04418883922044555,-0.013281941128437834
1.8009999999999124,0.051956730651289966,-0.012140354939422783
2.0009999999998906,0.05965894453115287,-0.016816584420332334
2.2009999999998686,0.06782023010980563,-0.020994472613121106
2.4009999999998466,0.07022208822574384,-0.023371335254938706
2.6009999999998246,0.07500876330580013,-0.026935386366871043
2.8009999999998025,0.0814026193706232,-0.02176691778511263
3.0009999999997805,0.08400842088072806,-0.020647161933158572
3.2009999999997585,0.09243865833880349,-0.01708539006493563
3.4009999999997365,0.10088397235018931,-0.013705136300304602
3.6009999999997144,0.10875974772018868,-0.012958620163206619
3.8009999999996924,0.11941041789521502,-0.016283582329481912
4.000999999999671,0.13591440870365892,-0.017955742034846192
4.200999999999738,0.14592282201765946,-0.020289991400232903
4.400999999999804,0.14865438989888113,-0.019150068691341213
4.600999999999871,0.15593420348810866,-0.021990897573307026
4.800999999999938,0.16337452798015117,-0.02510771169249949
5.000000000000004,0.17541906612923597,-0.028111578148008378
5.200000000000071,0.18244317116677897,-0.029938275342195852
5.400000000000138,0.18858192733453666,-0.029260540964758563
5.600000000000205,0.19564736905585967,-0.0334386825020614
5.800000000000272,0.1995938276864545,-0.03764213818505259
6.000000000000338,0.20510208992833612,-0.038563915748357026
6.200000000000405,0.21568301600919326,-0.03901240124654755
6.400000000000472,0.22670855760610137,-0.03981387234737711
6.600000000000539,0.23730480708172957,-0.04105207488854666
6.800000000000606,0.24256821056412076,-0.04142331836312988
7.000000000000672,0.25479329586601657,-0.04327946547400797
7.200000000000739,0.26561254775760246,-0.04797620652432416
7.400000000000806,0.2743925039662933,-0.04798071914877982
7.600000000000873,0.28252697079483785,-0.04887693091227494
7.8000000000009395,0.29260175677311556,-0.049119120511476384
8.000000000001005,0.3030368842528206,-0.049607763116170725
8.200000000000895,0.3120488060495274,-0.049578702630436684
8.400000000000784,0.32018084843206335,-0.049300570166009194
8.600000000000673,0.3312651000220676,-0.048564646816383165
8.800000000000562,0.3415214433284218,-0.044760402875866113
9.000000000000451,0.3536520915308427,-0.042435767615247116
9.20000000000034,0.36225418789336056,-0.04155126790201311
9.40000000000023,0.37447843335662656,-0.04264726796815798
9.600000000000119,0.38116604180667424,-0.04569334505491553
9.800000000000008,0.3887385641237043,-0.04887064935338716
10.000999999999896,0.4013387295026834,-0.049533387711589244
10.200999999999786,0.4111438836583952,-0.05048910373667101
10.400999999999675,0.42417748325176957,-0.04814302079012141
10.600999999999564,0.43222960170444336,-0.042079902561646725
10.800999999999453,0.4364897082694175,-0.03588476959450803
11.000999999999342,0.44236466286112264,-0.03336232764554691
11.200999999999231,0.45023201892422776,-0.03177500391589162
11.40099999999912,0.4644201964443986,-0.030104633270628248
11.60099999999901,0.47236602463035493,-0.030106656739411656
11.800999999998899,0.48027498254039713,-0.032025217821425984
12.000999999998788,0.49161363544382064,-0.03583998759769337
12.200999999998677,0.4970057263400885,-0.03941725045954149
12.400999999998566,0.5091319107166525,-0.041918059667897266
12.600999999998455,0.520433401173767,-0.04259559496523192
12.800999999998345,0.5304888173131669,-0.03981816344451296
13.000999999998234,0.5466235158809184,-0.04027640980028952
13.200999999998123,0.5624611410185406,-0.0413790356046889
13.400999999998012,0.5762860831808102,-0.04296015084894004
13.600999999997901,0.5906366123703517,-0.045637927949744625
13.80099999999779,0.6038209426921645,-0.04999020794203338
14.00099999999768,0.6217307921822959,-0.055817501584117885
14.200999999997569,0.6342090645068322,-0.06002178532739484
14.400999999997458,0.648474292066369,-0.0629168980964968
14.600999999997347,0.6627381362886348,-0.06829974150756342
14.800999999997236,0.6778887801784718,-0.07509611162355594
15.000999999997125,0.689276796157743,-0.07912451727141773
15.200999999997014,0.7052242804505905,-0.082529751193684
15.400999999996904,0.717625028912965,-0.08524449290526306
15.600999999996793,0.7338076222539454,-0.09092157711415531
15.800999999996682,0.7489968293375558,-0.09874099798593096
16.000999999996573,0.7589936394083788,-0.10403843751354883
16.200999999996817,0.7744961307495759,-0.1127035229311826
16.40099999999706,0.7819506603179994,-0.1157936331447054
16.600999999997306,0.7955330938241085,-0.12186423772906237
16.80099999999755,0.812299257746999,-0.12942489176637562
17.000999999997795,0.8293855139147301,-0.13593588272447069
17.20099999999804,0.8408177450738512,-0.14136192536654416
17.400999999998284,0.85396383084985,-0.1448934505937603
17.60099999999853,0.8644086003320375,-0.14818967668876026
17.800999999998773,0.8799323536099775,-0.15616727018209065
18.000999999999017,0.9000164871086973,-0.1629955648039992
18.20099999999926,0.9156186963410653,-0.17155174772935675
18.400999999999506,0.9329559664158712,-0.18102750183769828
18.60099999999975,0.9457337919546328,-0.18575500648610363
18.799999999999994,0.9612165797958275,-0.19304910354591684
19.000000000000238,0.9745111391849163,-0.20213749834258082
19.200000000000482,0.9862563045759504,-0.20937009124160763
19.400000000000727,1.0031064363317734,-0.22042528307403916
19.60000000000097,1.0208357822922975,-0.2313681843910849
19.800000000001216,1.0341185418443066,-0.23760480138996792
20.00000000000146,1.0424168587924767,-0.2383694332843712
