Time (s),X (m),Y (m)
0.001,0.0003991412691229187,0.0010155025257856582
0.20000000000000015,0.0035911753928466383,0.00578018649464812
0.4000000000000003,0.0036753210156242706,0.0012716416361909153
0.6000000000000004,0.0066821306570214855,0.0114456800530071
0.8000000000000006,0.011450291267433318,0.008735618212114354
1.0000000000000007,0.01687012675588339,0.011416066168345312
1.2009999999999785,0.025089660642211617,0.01752413048252426
1.4009999999999565,0.03356058980888672,0.018739287082140465
1.6009999999999345,0.03984250872308047,0.01231568334996343
1.8009999999999124,0.044569447757442086,0.015662054039960255
2.0009999999998906,0.04956732045817608,0.018608622871827765
2.2009999999998686,0.05728493162113141,0.02188666287824695
2.4009999999998466,0.06365502912301887,0.02834335005541389
2.6009999999998246,0.07164362032194971,0.03161415811389991
2.8009999999998025,0.07864305114538972,0.03633598288178556
3.0009999999997805,0.08488374197233689,0.04172019949278027
3.2009999999997585,0.09234890893472959,0.046448223967844156
3.4009999999997365,0.09919649088809304,0.05058269101314814
3.6009999999997144,0.10608353570260405,0.051590206995757226
3.8009999999996924,0.11148893130536834,0.056999813328731934
4.000999999999671,0.11817109742592544,0.06699364711503629
4.200999999999738,0.12423970144156472,0.0703657084194296
4.400999999999804,0.12954089926180853,0.0764684248445115
4.600999999999871,0.13447348613262103,0.08243875394547634
4.800999999999938,0.14022685043723404,0.08807210965470717
5.000000000000004,0.14656029412364283,0.09183650830641385
5.200000000000071,0.15374143942478175,0.09555503498493986
5.400000000000138,0.15814119590663608,0.10460195822109462
5.600000000000205,0.16464163294537157,0.1131491927786151
5.800000000000272,0.16724638763025104,0.1241563524558297
6.000000000000338,0.17075924060106293,0.13001393636764422
6.200000000000405,0.17246239873748698,0.13795332002679098
6.400000000000472,0.17200514015910293,0.14663978848209488
6.600000000000539,0.17287306285947507,0.15618209091415175
6.800000000000606,0.17287022546948827,0.1667066934446354
7.000000000000672,0.17476287845238828,0.17576084354878513
7.200000000000739,0.1743091586095682,0.18530519001247386
7.400000000000806,0.1754805674077248,0.19315373910944944
7.600000000000873,0.17715085400074101,0.2015925284396396
7.8000000000009395,0.17659602236907276,0.20895468254397395
8.000000000001005,0.17490612356954138,0.21535558653077017
8.200000000000895,0.1725839335262569,0.22287766096036182
8.400000000000784,0.17399233635628558,0.22953591077416374
8.600000000000673,0.170059488234731,0.23667360410004162
8.800000000000562,0.1675438368591242,0.24305350333740489
9.000000000000451,0.16228692913726198,0.2509066361334686
9.20000000000034,0.15548363076263566,0.25833555174173783
9.40000000000023,0.14572622485297368,0.265708840667029
9.600000000000119,0.13937252999843275,0.27167011452997064
9.800000000000008,0.13743326526371014,0.2783558766359458
10.000999999999896,0.13304057238041045,0.2836750860953655
10.200999999999786,0.13327471893104156,0.2904788298195927
10.400999999999675,0.13093386526134057,0.29686678509132064
10.600999999999564,0.1274239684983161,0.3035256343480911
10.800999999999453,0.12043842890718788,0.3071963756916422
11.000999999999342,0.11308875952962885,0.3128654991533001
11.200999999999231,0.11128218094517137,0.3200921047999233
11.40099999999912,0.10468821205227312,0.3252411631566408
11.60099999999901,0.09826729703277828,0.3305860138101568
11.800999999998899,0.09673528957754875,0.3382660426304889
12.000999999998788,0.09107260388302235,0.3442017999286867
12.200999999998677,0.08469348712699222,0.3476422377464784
12.400999999998566,0.07499650765761864,0.34994877606269476
12.600999999998455,0.06827419927049437,0.35591260036041933
12.800999999998345,0.06332949333399605,0.3624009834869656
13.000999999998234,0.05701041336776889,0.37091566864076186
13.200999999998123,0.05021841546901344,0.3771711081098569
13.400999999998012,0.04073280259653584,0.3745890646548293
13.600999999997901,0.032284794573677035,0.3766632618557854
13.80099999999779,0.02442446017343955,0.3754053269065141
14.00099999999768,0.015573342014368467,0.3735318277016573
14.200999999997569,0.006299325796558587,0.3687972868924983
14.400999999997458,-0.0032810480011158643,0.36563148403610657
14.600999999997347,-0.011554885282062952,0.3645237249550671
14.800999999997236,-0.018003378242440967,0.36377210626741896
15.000999999997125,-0.02642932997523978,0.36162835712400293
15.200999999997014,-0.03370524834152779,0.35499687197832097
15.400999999996904,-0.040974410968545996,0.35390249232489
15.600999999996793,-0.04806855456768691,0.350999795184838
15.800999999996682,-0.0558443661992055,0.349351910852904
16.000999999996573,-0.064351480125987,0.3463324204762861
16.200999999996817,-0.0716084389862798,0.33932378320537854
16.40099999999706,-0.07893545288891128,0.3329684423002072
16.600999999997306,-0.08516610693901638,0.3292563517353458
16.80099999999755,-0.09085655690955151,0.32806507536591994
17.000999999997795,-0.09646855533124674,0.3266193928052687
17.20099999999804,-0.10233505528251338,0.3240594210033145
17.400999999998284,-0.1064583473868224,0.3171076667966439
17.60099999999853,-0.11176444019811561,0.3122765534205671
17.800999999998773,-0.11758909230186308,0.30840373324756115
18.000999999999017,-0.12123879137405069,0.3005091558723592
18.20099999999926,-0.12379029119852863,0.29428100082760944
18.400999999999506,-0.1269982480358819,0.2830857457517208
18.60099999999975,-0.128939773410775,0.27245658477004103
18.799999999999994,-0.13267617764154496,0.2676064228433278
19.000000000000238,-0.13541197501597385,0.2612272940504458
19.200000000000482,-0.13373628698411616,0.2525279667422903
19.400000000000727,-0.13492615577613434,0.2445071485737366
19.60000000000097,-0.1358404459128606,0.23760291256362295
19.800000000001216,-0.14116587389420135,0.23110196385847856
20.00000000000146,-0.13934733323671894,0.22291451661851494
