Time (s),X (m),Y (m)
0.001,0.0007356649194092869,-0.0008930179339548115
0.20000000000000015,-0.000937372467814961,0.005123796507915963
0.4000000000000003,-0.0009126095234664501,0.017967512351360737
0.6000000000000004,0.001765254419123487,0.03825243017529482
0.8000000000000006,0.016105122565300535,0.06289927659042366
1.0000000000000007,0.03742923880540663,0.06907645467869135
1.2009999999999785,0.0649744183897463,0.07526437233985835
1.4009999999999565,0.09506691355821494,0.07650617029716783
1.6009999999999345,0.12716599338968587,0.05983700473999642
1.8009999999999124,0.16079769059244045,0.029569337486387334
2.0009999999998906,0.182119571542806,-0.008553096039872093
2.2009999999998686,0.2037117052873595,-0.04623017965501281
2.4009999999998466,0.21368173525757192,-0.08095939299626519
2.6009999999998246,0.1994030188689563,-0.11728308641203497
2.8009999999998025,0.1830192104992175,-0.1604930056132923
3.0009999999997805,0.14219956645521595,-0.20197420787871245
3.2009999999997585,0.09124315575140755,-0.2399929901520315
3.4009999999997365,0.021234969686334027,-0.2656963349595488
3.6009999999997144,-0.04447114427578821,-0.28507944472713675
3.8009999999996924,-0.1051148656673511,-0.2933369418233761
4.000999999999671,-0.16899729833890006,-0.27940415645031463
4.200999999999738,-0.23416136034528642,-0.2560235786069566
4.400999999999804,-0.30612682173836886,-0.24326460969000724
4.600999999999871,-0.369577604091064,-0.21281077289483907
4.800999999999938,-0.42728467481728866,-0.1695954531370919
5.000000000000004,-0.47578395197814466,-0.1189034639058521
5.200000000000071,-0.5235898417729458,-0.07287493886925225
5.400000000000138,-0.5687572474996608,-0.025492964703700043
5.600000000000205,-0.6075503541418775,0.036344686702569025
5.800000000000272,-0.6418904926380979,0.09545549824196234
6.000000000000338,-0.6663845587033086,0.15367774028380815
6.200000000000405,-0.6782018639290779,0.21199235463286864
6.400000000000472,-0.6930640752436524,0.2678805175899173
6.600000000000539,-0.7055223779970785,0.32353622463351395
6.800000000000606,-0.7157623907188609,0.37245387489786874
7.000000000000672,-0.7247416809564284,0.42050810863560706
7.200000000000739,-0.7294964062464457,0.47161293980650537
7.400000000000806,-0.7158860468198616,0.5280447520279274
7.600000000000873,-0.6978090383777518,0.5810745857609475
7.8000000000009395,-0.6714644094914576,0.6269483862069569
8.000000000001005,-0.6297304339792414,0.6697692881395048
8.200000000000895,-0.5781645077457691,0.7110703319247961
8.400000000000784,-0.535415700372967,0.7616597411359606
8.600000000000673,-0.4811383697718936,0.8101517023537419
8.800000000000562,-0.4307319916075914,0.8507508010676822
9.000000000000451,-0.3584674268800941,0.870713075261185
9.20000000000034,-0.28304882437898493,0.8850139677836265
9.40000000000023,-0.21243144871507189,0.9039090138992351
9.600000000000119,-0.14872714384860267,0.9206202763680231
9.800000000000008,-0.08697240709357038,0.9261308186008497
10.000999999999896,-0.0324879168405115,0.9225199720179846
10.200999999999786,0.02676242180629781,0.9182436908853018
10.400999999999675,0.08472941402411202,0.9080366227231269
10.600999999999564,0.14126088080471955,0.8896368791528318
10.800999999999453,0.19947257746582245,0.8593407310229274
11.000999999999342,0.24040868656855524,0.8218049032054159
11.200999999999231,0.2700121379006893,0.771667566746131
11.40099999999912,0.299158928659561,0.7136809402915368
11.60099999999901,0.32733374823006195,0.6525190692708682
11.800999999998899,0.3472582717746797,0.6002314678560599
12.000999999998788,0.3455976298916307,0.5509720428371823
12.200999999998677,0.3373256399632787,0.49861956754670705
12.400999999998566,0.3186779413594679,0.4421893074114428
12.600999999998455,0.28097247477007614,0.3869168969123153
12.800999999998345,0.23947695487868428,0.3393845136688331
13.000999999998234,0.1903284340023204,0.29796633123424154
13.200999999998123,0.11307002054091966,0.27161192996968614
13.400999999998012,0.03955011724784697,0.24973364997926778
13.600999999997901,-0.030594456548001803,0.23360194702577328
13.80099999999779,-0.0961148925112854,0.23996537111537639
14.00099999999768,-0.15498118491268814,0.2691810945231267
14.200999999997569,-0.20864081033486065,0.3137729067338115
14.400999999997458,-0.25450925012112496,0.3735656771501024
14.600999999997347,-0.3027931313009418,0.42521470569813463
14.800999999997236,-0.33695225613494145,0.4884059790750857
15.000999999997125,-0.37261349955950784,0.5417670353707325
15.200999999997014,-0.39915219484649195,0.5963269024235069
15.400999999996904,-0.416039284642902,0.6571355517972313
15.600999999996793,-0.42240811702599207,0.7231155300104172
15.800999999996682,-0.4134192555941538,0.7917351814655548
16.000999999996573,-0.4021034972946478,0.8546500767113746
16.200999999996817,-0.3832833439218941,0.9076484404376446
16.40099999999706,-0.3521330856776416,0.9517955920927502
16.600999999997306,-0.3110475236288894,0.9912014708825309
16.80099999999755,-0.25645852823615783,1.0018834319950307
17.000999999997795,-0.19821424114818675,1.0027831827881464
17.20099999999804,-0.13772220905056043,0.9936269719184303
17.400999999998284,-0.08075672568986432,0.969450727188056
17.60099999999853,-0.032755942852086106,0.9184112997685958
17.800999999998773,0.009614049127536141,0.8674465916200532
18.000999999999017,0.03862760873517714,0.8060408619624378
18.20099999999926,0.061625884022556816,0.7346418268821819
18.400999999999506,0.09252181816480388,0.6716028848033825
18.60099999999975,0.13010135288797745,0.6170320711006668
18.799999999999994,0.15745498333714467,0.5557859069471925
19.000000000000238,0.17554942900489312,0.485319685552038
19.200000000000482,0.18087575525849983,0.424829232905086
19.400000000000727,0.16576899779292223,0.3642160489970381
19.60000000000097,0.13778512113673766,0.3141066775024895
19.800000000001216,0.09034418739444164,0.275846536427115
20.00000000000146,0.016312957041895306,0.2512836780886511
