Time (s),X (m),Y (m)
0.001,-0.0002955033697106609,0.0008930179339548111
0.20000000000000015,0.0021574518930514374,-0.0010139886108295477
0.4000000000000003,0.0028229086665712564,-0.0006719228053195832
0.6000000000000004,0.004572582846293465,-0.002056691049440885
0.8000000000000006,0.006238049610233007,-0.0023302740941350993
1.0000000000000007,0.007514664248910818,-0.003222383257128387
1.2009999999999785,0.01018952782926986,-0.005869594033212827
1.4009999999999565,0.012354199651356515,-0.006134691736407345
1.6009999999999345,0.01367236501259133,-0.007120129198956261
1.8009999999999124,0.015272964174990461,-0.008023860868328165
2.0009999999998906,0.017516719799843188,-0.008928893785711258
2.2009999999998686,0.01945328788608235,-0.009324599612636772
2.4009999999998466,0.02154123208287408,-0.010067468381216759
2.6009999999998246,0.023229211731551486,-0.01087294808851888
2.8009999999998025,0.025570468199671202,-0.011928010325358507
3.0009999999997805,0.026858779901556804,-0.012815830153618823
3.2009999999997585,0.028424427903008424,-0.014030190467816003
3.4009999999997365,0.029809820084938838,-0.015088970210262601
3.6009999999997144,0.031040878822588002,-0.01582508081324661
3.8009999999996924,0.03247851969876958,-0.016896673739742685
4.000999999999671,0.03389918564511221,-0.017563894983566433
4.200999999999738,0.03619128405437007,-0.018268682356167895
4.400999999999804,0.03750778216510763,-0.01895947198641575
4.600999999999871,0.03978026696286251,-0.01853815215262388
4.800999999999938,0.041070409250339786,-0.018323586216813625
5.000000000000004,0.04327262502807554,-0.01852118667115339
5.200000000000071,0.04483842961502486,-0.019054342647904912
5.400000000000138,0.0468009027567607,-0.01927703716252464
5.600000000000205,0.047683531784275125,-0.019057368826402868
5.800000000000272,0.0509382885002558,-0.018237028116539475
6.000000000000338,0.05317416098360701,-0.018088320297978105
6.200000000000405,0.05453118770708389,-0.01822366033402573
6.400000000000472,0.05725634432813111,-0.017353929700767122
6.600000000000539,0.06076258671340894,-0.015735613997814223
6.800000000000606,0.06415903463812694,-0.014308771598874703
7.000000000000672,0.06751450398256617,-0.01267316420322696
7.200000000000739,0.07072971680051919,-0.010863835997121332
7.400000000000806,0.07385928261665281,-0.008727686557553698
7.600000000000873,0.07686698370080448,-0.00675174712715288
7.8000000000009395,0.07970504095730184,-0.0044142089190560094
8.000000000001005,0.08250938310467242,-0.0023046164458608
8.200000000000895,0.08498629050422395,-5.462562999578822e-05
8.400000000000784,0.08743863283231759,0.002184356368876009
8.600000000000673,0.08960525400051841,0.004281255728176376
8.800000000000562,0.09113052843606016,0.005427877140866318
9.000000000000451,0.09155060414086315,0.00639742732980166
9.20000000000034,0.09294564369145726,0.007792149632121921
9.40000000000023,0.09411307906321545,0.008821529999069497
9.600000000000119,0.09507561129285638,0.009858879658879471
9.800000000000008,0.09640300930426166,0.011826605979613486
10.000999999999896,0.09810553255174409,0.014129967427173788
10.200999999999786,0.09912342491194268,0.015801479816561895
10.400999999999675,0.09923139731904008,0.016875244809219935
10.600999999999564,0.09843963819423464,0.019016994817274323
10.800999999999453,0.09956187899740104,0.021742386065240947
11.000999999999342,0.10024478294368931,0.024526823723760163
11.200999999999231,0.10127416738829229,0.027390639223594068
11.40099999999912,0.10178515907900178,0.03047459474408777
11.60099999999901,0.10213201740666057,0.03324135074469343
11.800999999998899,0.10234801991045626,0.03682067772891865
12.000999999998788,0.10257178241635569,0.03955187713579129
12.200999999998677,0.10253839188927125,0.04258779093172533
12.400999999998566,0.10289672468846864,0.04379951694389761
12.600999999998455,0.10346208913237834,0.045871033722570495
12.800999999998345,0.10018863437375014,0.04755562912423803
13.000999999998234,0.0965487433636851,0.04854008920075613
13.200999999998123,0.09159649209389494,0.04812986836937037
13.400999999998012,0.08728797684241138,0.04762623506863952
13.600999999997901,0.08241798750451691,0.04670134318408456
13.80099999999779,0.0782840298939338,0.04563017245577174
14.00099999999768,0.07350022628908745,0.043952814470744506
14.200999999997569,0.06931942239844244,0.04230068412240078
14.400999999997458,0.0648269419673359,0.04035947353116774
14.600999999997347,0.06104240670218579,0.03859006067451982
14.800999999997236,0.05670320822333113,0.036021269042946086
15.000999999997125,0.05302695118363296,0.033768333416806795
15.200999999997014,0.04879460298152098,0.03037120093405479
15.400999999996904,0.04527610845431835,0.027694370088309255
15.600999999996793,0.04132364153925357,0.02403833089018637
15.800999999996682,0.038214440827488705,0.0213805751996859
16.000999999996573,0.03650914890395771,0.02333021633468179
16.200999999996817,0.036219210680533756,0.02487512932084795
16.40099999999706,0.035924543937201674,0.027075225516503515
16.600999999997306,0.035932178946842586,0.028951077409732993
16.80099999999755,0.03593321571117316,0.030772378925450598
17.000999999997795,0.035912736602001435,0.03259498359990387
17.20099999999804,0.03585525035009294,0.034338099663222856
17.400999999998284,0.0356736114347587,0.03606207693303599
17.60099999999853,0.035081414682934936,0.03744936161289641
17.800999999998773,0.033855469385293276,0.03971290900367481
18.000999999999017,0.03273796445015204,0.04165976009275204
18.20099999999926,0.03172923097225696,0.043591407200954536
18.400999999999506,0.02996947768021904,0.04535877190172128
18.60099999999975,0.02900886666511742,0.04711285220611486
18.799999999999994,0.02768899166398832,0.04889708050464931
19.000000000000238,0.025460621101595617,0.051143501138640586
19.200000000000482,0.0233399818813228,0.05305113327630299
19.400000000000727,0.02055083227293101,0.054985946076362965
19.60000000000097,0.017725550657704942,0.056536428279194514
19.800000000001216,0.01498773083654365,0.05818327276070854
20.00000000000146,0.011830703655703274,0.05958583881159503
