Time (s),X (m),Y (m)
0.001,0.0011546366250239817,0.000435790549910003
0.20000000000000015,-0.0018433688660775423,-0.0016917738142276527
0.4000000000000003,0.0010946360770379946,-0.004230830817476472
0.6000000000000004,0.015542622330431362,-0.001145432361274684
0.8000000000000006,0.03554913847711217,0.005788117469452668
1.0000000000000007,0.06276566404482223,0.01559529761961366
1.2009999999999785,0.09880636394440356,0.018857840892512804
1.4009999999999565,0.1170788374081796,0.014485957447674423
1.6009999999999345,0.12703871255590998,0.00945189900066211
1.8009999999999124,0.15298574577456686,0.006238431777473561
2.0009999999998906,0.17846607846862142,0.0019274137581197267
2.2009999999998686,0.19552913278372963,-0.006250007609684377
2.4009999999998466,0.21302619083822186,-0.0158924325993598
2.6009999999998246,0.22929247096687994,-0.028452600242162538
2.8009999999998025,0.2283239257432216,-0.042141273060225366
3.0009999999997805,0.24037561726003148,-0.050581125155711074
3.2009999999997585,0.26497953266600605,-0.05570199308356355
3.4009999999997365,0.2917416024590124,-0.06519985141260184
3.6009999999997144,0.31568727524046697,-0.07290804549277678
3.8009999999996924,0.32331645422091704,-0.08875552800489497
4.000999999999671,0.35299115967022904,-0.10524340496719826
4.200999999999738,0.39459207582547834,-0.12298112750171876
4.400999999999804,0.42988279419084596,-0.14230850421801472
4.600999999999871,0.45322437937730947,-0.16151416502608526
4.800999999999938,0.46420713969794675,-0.18109355829099597
5.000000000000004,0.4772469422997764,-0.20251662583070643
5.200000000000071,0.5033533129625997,-0.2268838109421601
5.400000000000138,0.547760928816426,-0.24684642343086244
5.600000000000205,0.6001324921180002,-0.2701098412016548
5.800000000000272,0.646308281369421,-0.29688052687584193
6.000000000000338,0.68846949912077,-0.3279463451839724
6.200000000000405,0.7310787216908028,-0.36822266299953754
6.400000000000472,0.7740367808996296,-0.41224150589165837
6.600000000000539,0.8099702757417544,-0.45195347586295487
6.800000000000606,0.8371506590579451,-0.48364375329765713
7.000000000000672,0.8580522729247915,-0.5107850838233661
7.200000000000739,0.877318108045254,-0.5331292651581758
7.400000000000806,0.9042376434727067,-0.5573209723386313
7.600000000000873,0.9499901320685102,-0.5752599467925756
7.8000000000009395,0.9849815863073478,-0.5938933656463137
8.000000000001005,1.011620524163932,-0.6216661460437621
8.200000000000895,1.0529591941929912,-0.6518691940992106
8.400000000000784,1.0882429974069594,-0.6865384917574653
8.600000000000673,1.1251007421251478,-0.7187473663671051
8.800000000000562,1.1641421098279308,-0.7477752234931816
9.000000000000451,1.2093258920115972,-0.7797758990747875
9.20000000000034,1.2447274546992315,-0.8131307260105005
9.40000000000023,1.281850636014453,-0.845552347248602
9.600000000000119,1.3211879609377621,-0.8820449579183514
9.800000000000008,1.3699451831639993,-0.9298177966857154
10.000999999999896,1.4104824442609822,-0.9781201597560452
10.200999999999786,1.4395838346221204,-1.0191914257251236
10.400999999999675,1.4754407569823285,-1.0785497890391151
10.600999999999564,1.5137055999522937,-1.1346790898500447
10.800999999999453,1.5546513453334634,-1.1894694786874171
11.000999999999342,1.5840381595473068,-1.2339161534718328
11.200999999999231,1.5980675007943754,-1.283391112193031
11.40099999999912,1.5969576247027018,-1.3399508043499166
11.60099999999901,1.5827992119812704,-1.3883977930546836
11.800999999998899,1.5634505413482407,-1.43400100034872
12.000999999998788,1.5478040792615735,-1.4680399210513075
12.200999999998677,1.5270647836140423,-1.4918620203806134
12.400999999998566,1.5065423565183433,-1.5152674782792577
12.600999999998455,1.48316262678682,-1.5400439143724256
12.800999999998345,1.4565792891010054,-1.5735772722245849
13.000999999998234,1.4314019610177995,-1.6079361740987799
13.200999999998123,1.4028505588588338,-1.651675079172081
13.400999999998012,1.3743135597867024,-1.6889838432013973
13.600999999997901,1.3348742652489332,-1.7326803593992748
13.80099999999779,1.2878507019919334,-1.778206276883431
14.00099999999768,1.239132344679165,-1.8328084317584012
14.200999999997569,1.1902770613107714,-1.8879661254663758
14.400999999997458,1.1416482441945588,-1.94088762211864
14.600999999997347,1.0885134773359562,-1.9946771003204191
14.800999999997236,1.0348443278785386,-2.0459035063092044
15.000999999997125,0.9766774035354765,-2.098374411135269
15.200999999997014,0.9162643166829458,-2.1502449777671084
15.400999999996904,0.8719542728084929,-2.184839145281297
15.600999999996793,0.8312998094178449,-2.192744382590349
15.800999999996682,0.7883533061795374,-2.174817159697845
16.000999999996573,0.7475219704364663,-2.1401180127139416
16.200999999996817,0.706253956365769,-2.0959929801509767
16.40099999999706,0.6768236197442425,-2.0491429164057333
16.600999999997306,0.6690867028283487,-2.0030509888278223
16.80099999999755,0.6751524554442622,-1.9623916224943867
17.000999999997795,0.690442289729739,-1.9262628701671758
17.20099999999804,0.7166279703397468,-1.8889720063776427
17.400999999998284,0.7526224692576207,-1.8467435276762272
17.60099999999853,0.7868922464335564,-1.7957241318850616
17.800999999998773,0.819992830506559,-1.7357200618000663
18.000999999999017,0.8557444769804706,-1.6873062917129409
18.20099999999926,0.8942273435234133,-1.642713504667605
18.400999999999506,0.9325209952675378,-1.5964609091677642
18.60099999999975,0.973918962056829,-1.548038954271407
18.799999999999994,1.0208941777835046,-1.4975514408025474
19.000000000000238,1.0707312133067286,-1.4385951968589197
19.200000000000482,1.120904856307175,-1.3771959743007296
19.400000000000727,1.171673321833321,-1.3216572816754315
19.60000000000097,1.2249004436258737,-1.2709043289214306
19.800000000001216,1.2776335575000564,-1.2286558661184919
20.00000000000146,1.3292481007274874,-1.1849385360477611
