Time (s),X (m),Y (m)
0.001,0.0010100015126501532,-0.0006628221997479689
0.20000000000000015,1.590229947004474e-05,0.004245210011365211
0.4000000000000003,0.004094745409885641,0.0077789915268165425
0.6000000000000004,0.013361542836021253,-0.0022737163457010236
0.8000000000000006,0.021170818409148248,-0.016506507339287
1.0000000000000007,0.030655632248232312,-0.009098307183055368
1.2009999999999785,0.05812762664200701,-0.010615490829813579
1.4009999999999565,0.09318797703450343,-0.020478511625421986
1.6009999999999345,0.12247518345143224,-0.02845415425346056
1.8009999999999124,0.1516056882656745,-0.03253576632782376
2.0009999999998906,0.1727729855378581,-0.03589785771101007
2.2009999999998686,0.19546193946432605,-0.04579635046869408
2.4009999999998466,0.21467920240261704,-0.08150580605564094
2.6009999999998246,0.2328261419491332,-0.11320611612634558
2.8009999999998025,0.2552370133687324,-0.1362277221723115
3.0009999999997805,0.2741593598156487,-0.15066996747521916
3.2009999999997585,0.28918467597792263,-0.16738631328639436
3.4009999999997365,0.29795537384067483,-0.195321755125468
3.6009999999997144,0.3069968174435782,-0.22890896458653517
3.8009999999996924,0.3127716450560748,-0.2620106882015082
4.000999999999671,0.3171634388227248,-0.2902208782070183
4.200999999999738,0.31374936476824916,-0.3174559827436927
4.400999999999804,0.3139671398697875,-0.3338792486749148
4.600999999999871,0.3227996607489486,-0.35674887000618105
4.800999999999938,0.3272956233942109,-0.3847473490951053
5.000000000000004,0.32889644987701255,-0.42190242744460077
5.200000000000071,0.3263206560975557,-0.46124356103781217
5.400000000000138,0.3193534471736157,-0.49931500379083604
5.600000000000205,0.3263834729018832,-0.5362051581206678
5.800000000000272,0.325431740303414,-0.5723333169760788
6.000000000000338,0.32538901182866264,-0.6077180339486468
6.200000000000405,0.31026721618389835,-0.6316974140822403
6.400000000000472,0.27461528930660484,-0.6497649134217947
6.600000000000539,0.24517220775058177,-0.65987405077956
6.800000000000606,0.22774829996009147,-0.6692829278437247
7.000000000000672,0.20087986853641654,-0.6791830468689365
7.200000000000739,0.1688563569378989,-0.6841273126235633
7.400000000000806,0.1392679326321364,-0.6895731050469303
7.600000000000873,0.10551810297680604,-0.6845558244290503
7.8000000000009395,0.06849908374397512,-0.6700864384247988
8.000000000001005,0.028004508332706058,-0.6622107645354356
8.200000000000895,-0.007093335851923118,-0.650402004851012
8.400000000000784,-0.03531541154704164,-0.6245178138761511
8.600000000000673,-0.06584755655112762,-0.5972322000944104
8.800000000000562,-0.08946796342179851,-0.563814472205983
9.000000000000451,-0.11101656956775724,-0.534409906447442
9.20000000000034,-0.11838705649475334,-0.4901959055103204
9.40000000000023,-0.11665789804345536,-0.4368721591564062
9.600000000000119,-0.11731467244369038,-0.3939645472375934
9.800000000000008,-0.10986824279371937,-0.34098474470028983
10.000999999999896,-0.1078981429651848,-0.29700585853908634
10.200999999999786,-0.10433870905552806,-0.24958158639331468
10.400999999999675,-0.08890266697388662,-0.20067513401824277
10.600999999999564,-0.07618832116716856,-0.15339997976563552
10.800999999999453,-0.054032357766889985,-0.10519773645304101
11.000999999999342,-0.025433202347258887,-0.057815628847888254
11.200999999999231,-0.0020654270468971206,-0.01195109354937011
11.40099999999912,0.02663714967172244,0.022300222323057093
11.60099999999901,0.06287677158805516,0.04266698259122383
11.800999999998899,0.09792819940527274,0.05643507965315262
12.000999999998788,0.1371036562110197,0.0622233317333164
12.200999999998677,0.1737521036831914,0.056814692692147034
12.400999999998566,0.21506409323134346,0.050612097893701115
12.600999999998455,0.25371743272236214,0.03636924201843941
12.800999999998345,0.28913631688688324,0.016666578890355086
13.000999999998234,0.3159378424096496,-0.008126625930771295
13.200999999998123,0.33334684701830797,-0.0327341027319172
13.400999999998012,0.34321657565832964,-0.06394177235960868
13.600999999997901,0.3465114624150921,-0.10860114211440491
13.80099999999779,0.34139819619258155,-0.15542161323288997
14.00099999999768,0.32353789418999235,-0.20029776153940712
14.200999999997569,0.30421151996698387,-0.2483365342831046
14.400999999997458,0.27937643245984317,-0.2955244119459097
14.600999999997347,0.24980473737983763,-0.3356363758688405
14.800999999997236,0.22983060424097207,-0.3622014639376557
15.000999999997125,0.20319650872873787,-0.3772201133286391
15.200999999997014,0.1655423004692364,-0.3803365636150681
15.400999999996904,0.11902853242039062,-0.3767186513444167
15.600999999996793,0.07208641184622641,-0.3674008159394455
15.800999999996682,0.03554160538288216,-0.36422134652862265
16.000999999996573,-0.011474105397966708,-0.34496071433042735
16.200999999996817,-0.05631770844465084,-0.34526755284262384
16.40099999999706,-0.10295171986888413,-0.331166839507381
16.600999999997306,-0.14963769000474175,-0.2940417715924091
16.80099999999755,-0.18909431732650808,-0.26229878902625403
17.000999999997795,-0.20903003349735186,-0.22046412790095432
17.20099999999804,-0.21883561315273561,-0.1806085736433903
17.400999999998284,-0.22144319037701313,-0.14437943430004974
17.60099999999853,-0.20642319982995347,-0.10563977731200953
17.800999999998773,-0.1758621920496706,-0.06883370543746944
18.000999999999017,-0.1694715159831834,-0.03142050111302518
18.20099999999926,-0.16779656854577094,0.00163438121804586
18.400999999999506,-0.16602683668969154,0.038616117426367794
18.60099999999975,-0.15330884626120736,0.073201445757251
18.799999999999994,-0.12416945033660609,0.09722325573659757
19.000000000000238,-0.08377267482583939,0.10793135937976758
19.200000000000482,-0.04131335130524527,0.11112091996722773
19.400000000000727,0.007112359669780816,0.10421009613383544
19.60000000000097,0.049998005722840716,0.10524487735928549
19.800000000001216,0.08917409138322872,0.10162518215241956
20.00000000000146,0.12634314495085003,0.08912936442242976
