Time (s),X (m),Y (m)
0.001,-0.0006246028371892732,-0.0005914538325516239
0.20000000000000015,0.007209487120649792,0.003494670616463406
0.4000000000000003,0.014575664923238555,0.0062020705174115195
0.6000000000000004,0.024408333340608355,0.007526637109485346
0.8000000000000006,0.036549820803778915,0.01072665414846318
1.0000000000000007,0.057588631588920025,0.014566983716251473
1.2009999999999785,0.08099911798259865,0.021399831807569547
1.4009999999999565,0.10341413026533126,0.027465445203918505
1.6009999999999345,0.12265302400410086,0.0322566773480373
1.8009999999999124,0.13565756963079906,0.02969114251854627
2.0009999999998906,0.15118956204865905,0.031153997629189308
2.2009999999998686,0.17478752731204178,0.03354967231713097
2.4009999999998466,0.19621910601282988,0.028683958479062067
2.6009999999998246,0.20847140245776433,0.025646739828112018
2.8009999999998025,0.22115350003832954,0.020551508210435075
3.0009999999997805,0.24233113559800815,0.008169357875590163
3.2009999999997585,0.2670124190567171,-0.006759910845655312
3.4009999999997365,0.27763923367920507,-0.01890992940247615
3.6009999999997144,0.29114489765636953,-0.027715718688732637
3.8009999999996924,0.3088137437525485,-0.044052902887652304
4.000999999999671,0.3364204220648012,-0.05234615400651374
4.200999999999738,0.3582416245572809,-0.05903879662711739
4.400999999999804,0.37627967550490715,-0.06076048728939533
4.600999999999871,0.3844351935891603,-0.0702248878578402
4.800999999999938,0.40486446151400346,-0.08037553323592782
5.000000000000004,0.435341796183956,-0.09077180434901798
5.200000000000071,0.46607081931616545,-0.10272086708980478
5.400000000000138,0.4826982250504207,-0.11386564617750208
5.600000000000205,0.5042781996165561,-0.13332351588011299
5.800000000000272,0.5285660724733133,-0.14996990784167563
6.000000000000338,0.55130483908052,-0.17020608275338636
6.200000000000405,0.5720682835245956,-0.18903880073269047
6.400000000000472,0.5876250358294066,-0.2144438643170632
6.600000000000539,0.6147955101310164,-0.2409469714616544
6.800000000000606,0.6291270071935515,-0.2607633863166628
7.000000000000672,0.6460833069068374,-0.2719888422170139
7.200000000000739,0.6518127163632668,-0.28427571271524266
7.400000000000806,0.6766679408800752,-0.29250861030535313
7.600000000000873,0.6904306171309742,-0.30748360450951795
7.8000000000009395,0.718513181884248,-0.32575367202914735
8.000000000001005,0.7423946194557066,-0.3440592203647497
8.200000000000895,0.7675087126356831,-0.3636421517848072
8.400000000000784,0.8045990829888388,-0.3895546341700982
8.600000000000673,0.8281251945616541,-0.42135280777937795
8.800000000000562,0.8460719891026336,-0.4534972865500834
9.000000000000451,0.8880791108805507,-0.48290728654438186
9.20000000000034,0.9171757229495637,-0.5092482951638289
9.40000000000023,0.9427064164907063,-0.5361483043564513
9.600000000000119,0.965598484906084,-0.5643701262314451
9.800000000000008,0.9926218707464192,-0.5955067008054487
10.000999999999896,1.0378509331296135,-0.6301003635287785
10.200999999999786,1.0726145722420528,-0.6635401893229481
10.400999999999675,1.1091310988166652,-0.6897580298543141
10.600999999999564,1.1427027317962128,-0.711015612162862
10.800999999999453,1.1710730335559327,-0.7288656447991811
11.000999999999342,1.2068453362075229,-0.7424842098436183
11.200999999999231,1.245266709735434,-0.7513185133168665
11.40099999999912,1.2742147289318249,-0.7631491118157463
11.60099999999901,1.3004271845420845,-0.7732883168699933
11.800999999998899,1.3296939151265488,-0.7805137289934724
12.000999999998788,1.3592562423685295,-0.7898090442563145
12.200999999998677,1.3859944409262113,-0.7984273302759216
12.400999999998566,1.4240108858838572,-0.8108851666082072
12.600999999998455,1.4565876399340445,-0.8168549763624108
12.800999999998345,1.4956962953504573,-0.8232536242364519
13.000999999998234,1.5227089743813866,-0.8329940961163375
13.200999999998123,1.5580914231139176,-0.8396087449680094
13.400999999998012,1.5830355157662683,-0.8475918250479814
13.600999999997901,1.6101749339616283,-0.8592201021535418
13.80099999999779,1.639171463645312,-0.8738876475558772
14.00099999999768,1.6650865265629102,-0.8944496718978147
14.200999999997569,1.6881969237075607,-0.913915394179317
14.400999999997458,1.7066117536513867,-0.9416190188265144
14.600999999997347,1.7284264563519418,-0.970320120780716
14.800999999997236,1.7593881906672275,-0.9975993201781133
15.000999999997125,1.787912366870544,-1.028191739647458
15.200999999997014,1.8067035019667066,-1.0556244793111187
15.400999999996904,1.8433058967087341,-1.0756106489688402
15.600999999996793,1.8708646443129462,-1.0891599654282431
15.800999999996682,1.9028342780476282,-1.1011384075038282
16.000999999996573,1.9313679548355804,-1.1144165472665981
16.200999999996817,1.9535666917583057,-1.126327660765987
16.40099999999706,1.9866918714836943,-1.1384664520774384
16.600999999997306,2.0292874069499764,-1.1488315682204047
16.80099999999755,2.0642764513593175,-1.159856600896486
17.000999999997795,2.099311139230839,-1.1663826602814342
17.20099999999804,2.1260548461693705,-1.1802363862434406
17.400999999998284,2.150926378053562,-1.1924766336787578
17.60099999999853,2.178183968564456,-1.2128906913032491
17.800999999998773,2.21755118831635,-1.230042592262582
18.000999999999017,2.250705551378278,-1.2424672456237995
18.20099999999926,2.2834019645066146,-1.2516884793503427
18.400999999999506,2.315453836532598,-1.2648185062413901
18.60099999999975,2.345144673678802,-1.2760967319885552
18.799999999999994,2.3777455562527385,-1.2823105824938619
19.000000000000238,2.4140402508853533,-1.2834535473921074
19.200000000000482,2.4544511433596754,-1.2838557861976627
19.400000000000727,2.488017451925497,-1.2877771605978168
19.60000000000097,2.5280982308093702,-1.2880490119898678
19.800000000001216,2.5584919285572045,-1.2917413646647014
20.00000000000146,2.5996912760039788,-1.30128056577351
