Time (s),X (m),Y (m)
0.001,0.0011546366250239817,0.000435790549910003
0.20000000000000015,-0.0022087075295647977,-0.002457554019350139
0.4000000000000003,0.0030637228061796795,0.003010285819965377
0.6000000000000004,0.0076963686628470996,0.011864957607666647
0.8000000000000006,0.023459330519509977,0.015404648589556823
1.0000000000000007,0.05173533896742721,0.012244068850015647
1.2009999999999785,0.07835016065810617,-0.0018651869677049197
1.4009999999999565,0.10407831714230924,-0.01875281996198552
1.6009999999999345,0.13455797328663277,-0.04228734226480419
1.8009999999999124,0.16930202687074203,-0.07529884926017891
2.0009999999998906,0.20411997774828625,-0.10840323213447503
2.2009999999998686,0.23946367985390785,-0.14036856383999805
2.4009999999998466,0.2637167209088094,-0.17581639853065065
2.6009999999998246,0.26759284463048777,-0.2049919269357294
2.8009999999998025,0.25511405777477514,-0.22989987276916188
3.0009999999997805,0.2319143809841403,-0.2516642357955796
3.2009999999997585,0.20867159333930946,-0.25782590385576976
3.4009999999997365,0.1691852217699043,-0.2385662880235017
3.6009999999997144,0.12741308323743447,-0.2086367314593663
3.8009999999996924,0.08611132403990594,-0.17021336613214763
4.000999999999671,0.05570289219971963,-0.12454362630349271
4.200999999999738,0.04250459828698577,-0.09450732628756679
4.400999999999804,0.04859734792185692,-0.06766778139699345
4.600999999999871,0.06749800443141273,-0.0278996908008088
4.800999999999938,0.0935903754104319,0.017005070876162612
5.000000000000004,0.12068170884841321,0.06037728121367557
5.200000000000071,0.158344772346349,0.10037248026757363
5.400000000000138,0.2087793536359984,0.13990922195127037
5.600000000000205,0.2723023485933407,0.17062042419000156
5.800000000000272,0.3366348690036034,0.1878530260202441
6.000000000000338,0.3976791729089086,0.1797920622970575
6.200000000000405,0.45716880866488513,0.1469748660436777
6.400000000000472,0.5148226288661125,0.08542712664640079
6.600000000000539,0.5581335987007713,0.03765725420992212
6.800000000000606,0.5725475987011035,-0.011942571704430882
7.000000000000672,0.5587428507855955,-0.05723635513084617
7.200000000000739,0.524445218747447,-0.08070969840605907
7.400000000000806,0.4893233963106595,-0.07661225210748418
7.600000000000873,0.4471115621344587,-0.04575322648995801
7.8000000000009395,0.4068637268200747,-0.008910946840504579
8.000000000001005,0.3844821038832005,0.02507952937123181
8.200000000000895,0.37897188424372724,0.06686658703424721
8.400000000000784,0.383972868369981,0.09959517728512574
8.600000000000673,0.40297299727019814,0.1321396577543004
8.800000000000562,0.4379909889188235,0.1687634378082157
9.000000000000451,0.4743483609733318,0.2170551488456295
9.20000000000034,0.4990609382604126,0.2799533225273219
9.40000000000023,0.5251018575256208,0.3549269209455715
9.600000000000119,0.5582476719299341,0.42470925081931493
9.800000000000008,0.5981038294805102,0.5038647119279479
10.000999999999896,0.6492334304690555,0.5782620591235854
10.200999999999786,0.7169866968011811,0.649969854942871
10.400999999999675,0.7895496765677505,0.7030792281317557
10.600999999999564,0.8399171563153627,0.7278910018196925
10.800999999999453,0.8838884366244915,0.7164995254879094
11.000999999999342,0.9381302218255151,0.6709474671018878
11.200999999999231,0.9892297791813887,0.6144822163895013
11.40099999999912,1.0315377469864506,0.5562949884602602
11.60099999999901,1.0551952791545942,0.5074736309082895
11.800999999998899,1.057235658940201,0.45971871727085434
12.000999999998788,1.0463921533919962,0.41302422807157585
12.200999999998677,1.0312227621214887,0.3547630978562024
12.400999999998566,1.0003212933494872,0.2920404361627185
12.600999999998455,0.9492589486259049,0.2244498591457059
12.800999999998345,0.8916207374757504,0.15557010568898094
13.000999999998234,0.8259541345236602,0.09002811943935073
13.200999999998123,0.7568990806492647,0.03673863053580269
13.400999999998012,0.6956716789810172,0.010819010214562936
13.600999999997901,0.6421471273634094,0.019040282796124564
13.80099999999779,0.5926993438725073,0.05160556000899929
14.00099999999768,0.5422183612281332,0.10536423719909153
14.200999999997569,0.4979246303281056,0.17095791276018182
14.400999999997458,0.45791831379356024,0.2601350408404102
14.600999999997347,0.44930455225388494,0.34674004438984884
14.800999999997236,0.4643125357370278,0.42168635917661973
15.000999999997125,0.5004031406210728,0.4906161923834904
15.200999999997014,0.5423696641687649,0.5502499865246278
15.400999999996904,0.5914638317164815,0.6088550667728223
15.600999999996793,0.6508491697987555,0.6670585860252728
15.800999999996682,0.7206418872829892,0.7132375565808174
16.000999999996573,0.7751859719164764,0.7329541278205532
16.200999999996817,0.8236707053256531,0.7224124285874161
16.40099999999706,0.8767908479108552,0.6947957848194471
16.600999999997306,0.929766690443056,0.6574806766033209
16.80099999999755,0.9818013599044887,0.6110089516272298
17.000999999997795,1.033757517731559,0.5729341101992198
17.20099999999804,1.0801057814591641,0.5403209673114504
17.400999999998284,1.1064891906851082,0.5049624900479082
17.60099999999853,1.10497667944047,0.46229597765692443
17.800999999998773,1.0911001391088926,0.41577587704300345
18.000999999999017,1.0693439925567871,0.3722783523298552
18.20099999999926,1.031746098382638,0.3166327370390565
18.400999999999506,0.981991033420958,0.25444530063256704
18.60099999999975,0.9157494739450948,0.18897149692681176
18.799999999999994,0.8439972068861233,0.1174010327723004
19.000000000000238,0.7735759931145896,0.04887191505475634
19.200000000000482,0.7041740743154122,-0.025068260361543245
19.400000000000727,0.6263194281901909,-0.11850394559440539
19.60000000000097,0.5443943559497635,-0.21952795129118738
19.800000000001216,0.46760014441768605,-0.3103521121379572
20.00000000000146,0.3937729499519731,-0.3922085486334037
