Time (s),X (m),Y (m)
0.001,0.0008115346074009382,0.0008446836120385872
0.20000000000000015,-0.0006765809841793134,-0.0028876514223851366
0.4000000000000003,-0.00046951606221717424,-0.0047691404658424625
0.6000000000000004,0.003874404303628657,-0.00037658594775389677
0.8000000000000006,0.012121720630418482,0.008862666757749764
1.0000000000000007,0.02630667333142735,0.012998863873102257
1.2009999999999785,0.04190733192003495,0.01516105122892904
1.4009999999999565,0.05634245377398819,0.022160781232997823
1.6009999999999345,0.0691904493412403,0.027048783578277898
1.8009999999999124,0.08867160807315684,0.028226069311360437
2.0009999999998906,0.1082964154119082,0.034009703585955786
2.2009999999998686,0.13161108722034137,0.039245387562377984
2.4009999999998466,0.14791354728357622,0.03419360686053182
2.6009999999998246,0.16768994684403193,0.03767777258094153
2.8009999999998025,0.18604169587971348,0.03661687963506213
3.0009999999997805,0.20461680114482728,0.03073169769026142
3.2009999999997585,0.2222228291901824,0.019256388745512637
3.4009999999997365,0.2420069782821005,0.018456898288625387
3.6009999999997144,0.2618436609410603,0.03333555778299965
3.8009999999996924,0.28249165963112305,0.04046417348338212
4.000999999999671,0.2968563792942855,0.037821399235343736
4.200999999999738,0.31237778599033966,0.05136369502762822
4.400999999999804,0.33241615229624244,0.06540038498717976
4.600999999999871,0.34997696574006215,0.08275908481859161
4.800999999999938,0.36974044901496295,0.09262925582112166
5.000000000000004,0.3861755866384965,0.09722135634231845
5.200000000000071,0.4053730954033621,0.10518298708168715
5.400000000000138,0.42518765505028155,0.11337912054351222
5.600000000000205,0.44303750782778556,0.12812367467241198
5.800000000000272,0.4637172813321259,0.14077782918105722
6.000000000000338,0.4866690758705452,0.14008664699273257
6.200000000000405,0.5073272504149563,0.1456102397891247
6.400000000000472,0.5259407723252434,0.16038022868253896
6.600000000000539,0.5495243806192501,0.17955179350919442
6.800000000000606,0.5707341734834449,0.1900900710950525
7.000000000000672,0.5911843571346188,0.20872920812909057
7.200000000000739,0.6145008308129405,0.22730433939308362
7.400000000000806,0.6366115537279551,0.24099755532079667
7.600000000000873,0.656998061371117,0.2494253920176882
7.8000000000009395,0.6785890192419307,0.2674807456486093
8.000000000001005,0.7009691178974806,0.28338402036905674
8.200000000000895,0.7218154526860927,0.29887103254581954
8.400000000000784,0.7390309587513738,0.3098454606078292
8.600000000000673,0.7633290897295096,0.32148210910516545
8.800000000000562,0.7833064075317737,0.33932243214073465
9.000000000000451,0.8000846526158328,0.36399435617201875
9.20000000000034,0.8145939027332907,0.38561434749477724
9.40000000000023,0.8281989278475362,0.3901259842529487
9.600000000000119,0.8525364354477454,0.3986521227254129
9.800000000000008,0.8637332188888616,0.41657779423389707
10.000999999999896,0.8715146473484339,0.4414682517311007
10.200999999999786,0.8836023149444138,0.45623171773076365
10.400999999999675,0.9031012829629527,0.4769065807686334
10.600999999999564,0.9258046624656766,0.5012555003618764
10.800999999999453,0.9444926090722158,0.5206160695327321
11.000999999999342,0.9593295868945063,0.5360742909226086
11.200999999999231,0.9778789018082886,0.5559491451069845
11.40099999999912,0.9961538735094193,0.5720644834087094
11.60099999999901,1.0121734946572454,0.5958903797940298
11.800999999998899,1.0283852102078679,0.6228075088820447
12.000999999998788,1.0499296151941924,0.640843414377074
12.200999999998677,1.0652079440262032,0.6538651510565754
12.400999999998566,1.0765171495773966,0.6757907079388141
12.600999999998455,1.0946746837057977,0.6914973473767247
12.800999999998345,1.1097342333804117,0.6986136030084436
13.000999999998234,1.1290016853574876,0.7185175214851105
13.200999999998123,1.1423940219885131,0.7351403425002331
13.400999999998012,1.1609154200470262,0.7463684486752598
13.600999999997901,1.1837403250309524,0.7640693039839689
13.80099999999779,1.2012498007594505,0.7829492972600405
14.00099999999768,1.2113784602525528,0.8092899966055296
14.200999999997569,1.2132584222101566,0.8334657676493454
14.400999999997458,1.219544865113998,0.8450593497530213
14.600999999997347,1.2346771104870797,0.8641056438630673
14.800999999997236,1.249245695909219,0.8842293021060269
15.000999999997125,1.2581638735596261,0.9177877153159092
15.200999999997014,1.2675058832943584,0.9485418374044546
15.400999999996904,1.2800938710758294,0.9756366238450283
15.600999999996793,1.2920368807735183,0.9963608169361433
15.800999999996682,1.3018670087748183,1.0222728330270638
16.000999999996573,1.308834043833407,1.0498516139246123
16.200999999996817,1.3126403612433584,1.0677406821258597
16.40099999999706,1.3166825438813863,1.087654523604811
16.600999999997306,1.3239713676851927,1.1044062897786686
16.80099999999755,1.3333287463288457,1.122452688393785
17.000999999997795,1.346313382557611,1.1453733458325193
17.20099999999804,1.3566207229111495,1.1656281321643895
17.400999999998284,1.3688859006002738,1.1900805427985244
17.60099999999853,1.3826330596641696,1.208407370498553
17.800999999998773,1.3987929000560888,1.2230197297431835
18.000999999999017,1.409539713932633,1.2363792252172077
18.20099999999926,1.4169901160478118,1.2599968011889102
18.400999999999506,1.4205845752613855,1.2824494781645597
18.60099999999975,1.4272518966403442,1.3068329417536704
18.799999999999994,1.437552269072889,1.3292787919752735
19.000000000000238,1.4465864549902425,1.3594730266431545
19.200000000000482,1.4554201884265465,1.3824302235288877
19.400000000000727,1.467021923143871,1.3998932587635398
19.60000000000097,1.4718871622961196,1.4309903629982887
19.800000000001216,1.4775617654999411,1.46346766056821
20.00000000000146,1.4785055637450186,1.4949538057477698
