Time (s),X (m),Y (m)
0.001,-0.000795421750936344,-0.00017906049427360483
0.20000000000000015,0.00832933508847688,4.5799074344162824e-05
0.4000000000000003,0.0062682157208593615,-0.0007037346632781248
0.6000000000000004,-0.002766300836521798,-0.003542642860504992
0.8000000000000006,0.00811542196430008,-0.0075856008746878565
1.0000000000000007,0.0277875610106382,-0.00604943890629193
1.2009999999999785,0.04140526259782063,-0.009349588535208349
1.4009999999999565,0.051028292649328115,-0.020022885720037152
1.6009999999999345,0.06655773782213274,-0.03388735362244913
1.8009999999999124,0.0927252240175542,-0.05078918960781001
2.0009999999998906,0.12731971241124487,-0.06686711277747322
2.2009999999998686,0.15986955914904785,-0.08678541598468033
2.4009999999998466,0.1846970403211538,-0.10540257542004654
2.6009999999998246,0.1941921728907334,-0.12125150274269231
2.8009999999998025,0.21234695025160422,-0.13365052238737674
3.0009999999997805,0.2278227871262298,-0.13287124086690416
3.2009999999997585,0.2483921966681354,-0.13364867388168827
3.4009999999997365,0.26422832024696535,-0.13315806750261674
3.6009999999997144,0.28314837640306656,-0.1383300284393299
3.8009999999996924,0.3230030258138329,-0.15069814099278112
4.000999999999671,0.36189677939360454,-0.16848750424276687
4.200999999999738,0.40384474277010163,-0.18261759013181764
4.400999999999804,0.4524018496568095,-0.19891852978210897
4.600999999999871,0.4868971124402585,-0.21865402707557985
4.800999999999938,0.5138501753375545,-0.23427078462737871
5.000000000000004,0.5380729618733346,-0.24633562145296295
5.200000000000071,0.5617051380937582,-0.26223259621837747
5.400000000000138,0.5911712367126218,-0.2773214917010887
5.600000000000205,0.6172172086582377,-0.29195893563335423
5.800000000000272,0.6410744943985428,-0.3043178532438425
6.000000000000338,0.6680339447497841,-0.31839894259378204
6.200000000000405,0.6984169078009295,-0.33272790433338173
6.400000000000472,0.7357274964922724,-0.35450665581639296
6.600000000000539,0.7653616151483368,-0.378045995611541
6.800000000000606,0.7915613978863618,-0.4004841721127019
7.000000000000672,0.8127929981361413,-0.42243475585129037
7.200000000000739,0.8325928198306325,-0.434124710773193
7.400000000000806,0.873023974023644,-0.45199590970794207
7.600000000000873,0.9063268015540185,-0.4784807101975403
7.8000000000009395,0.9282297247452269,-0.4944102360768633
8.000000000001005,0.9621288974081836,-0.5156225678386956
8.200000000000895,0.9897689345858366,-0.5360517722638363
8.400000000000784,1.0227811770946178,-0.5475750162755265
8.600000000000673,1.0524047790407716,-0.5616212027089147
8.800000000000562,1.0689321504733045,-0.5692761798597974
9.000000000000451,1.0821412397150134,-0.5731209790830669
9.20000000000034,1.0951396866325285,-0.582032068483398
9.40000000000023,1.1070772386822725,-0.5897260359781369
9.600000000000119,1.1404180169949174,-0.6005261398070907
9.800000000000008,1.163818762035263,-0.6134259034041076
10.000999999999896,1.1950146311121908,-0.6384127148312126
10.200999999999786,1.2333175378589005,-0.6637655859748546
10.400999999999675,1.2753009439155665,-0.6901658390764124
10.600999999999564,1.3241518960896956,-0.7191436875548491
10.800999999999453,1.363441694702259,-0.7485847311332091
11.000999999999342,1.3967002216162818,-0.7694398810105195
11.200999999999231,1.4424485140998726,-0.7941884208582997
11.40099999999912,1.4876455816023715,-0.8230119009354459
11.60099999999901,1.5373208262064906,-0.8551485934699482
11.800999999998899,1.5845174090318201,-0.8862269971352106
12.000999999998788,1.6183686503311459,-0.9127716268213703
12.200999999998677,1.660195598353075,-0.9390194476410045
12.400999999998566,1.7002409806111494,-0.9648062296814349
12.600999999998455,1.738898253180209,-0.9909159646807666
12.800999999998345,1.7853996858323293,-1.027495252196592
13.000999999998234,1.8259819776420456,-1.064081362231996
13.200999999998123,1.863370786453069,-1.0962058045788217
13.400999999998012,1.9038962969427677,-1.126829596469897
13.600999999997901,1.939883142398298,-1.1532357264103108
13.80099999999779,1.9769371694744637,-1.1817447757152402
14.00099999999768,2.0128732165416303,-1.206934344097789
14.200999999997569,2.0525492385907835,-1.2280695823344658
14.400999999997458,2.085991138551848,-1.2435938553104768
14.600999999997347,2.1242144481898055,-1.262060511704604
14.800999999997236,2.157597139756773,-1.286705911467862
15.000999999997125,2.196375856485499,-1.3172869503059008
15.200999999997014,2.2453998692484904,-1.3553618184051206
15.400999999996904,2.2904898905355022,-1.3909191518471378
15.600999999996793,2.333058292233227,-1.426635016311
15.800999999996682,2.375162884425751,-1.4570196421832293
16.000999999996573,2.406942305865833,-1.4793623015539075
16.200999999996817,2.4431118589904672,-1.5035778120266736
16.40099999999706,2.4668166708708434,-1.5269031320822115
16.600999999997306,2.4854116173768364,-1.5461077341287572
16.80099999999755,2.518841062641889,-1.5695940114063356
17.000999999997795,2.568738528720193,-1.6023007786398098
17.20099999999804,2.618289738036082,-1.635586736977669
17.400999999998284,2.6579234897375543,-1.660075190099733
17.60099999999853,2.699917528476975,-1.6890802684746797
17.800999999998773,2.7387801910712684,-1.7194002475931935
18.000999999999017,2.760558456214511,-1.7430217287865102
18.20099999999926,2.794812645744106,-1.765950403172034
18.400999999999506,2.8269431737017463,-1.7924674908513905
18.60099999999975,2.8723209924076825,-1.8289617395879707
18.799999999999994,2.9096133301671587,-1.860004184624196
19.000000000000238,2.9402780244230535,-1.8797318035103807
19.200000000000482,2.9558503280724406,-1.8952399141431273
19.400000000000727,2.986272624533194,-1.9071375917957558
19.60000000000097,3.0166400525400237,-1.930516332767337
19.800000000001216,3.0511277208169547,-1.9571547806092446
20.00000000000146,3.0771359114730084,-1.9797044696417423
