Time (s),X (m),Y (m)
0.001,-0.0005698399629515257,0.0006628221997479692
0.20000000000000015,0.0063598260507851815,-0.003824748950021551
0.4000000000000003,0.02087660311079636,-0.006088664896067641
0.6000000000000004,0.04016877065285314,0.0022511566066358707
0.8000000000000006,0.06409206725235583,0.0070983852613551324
1.0000000000000007,0.09663870702922732,-0.008449426620589832
1.2009999999999785,0.13623391089741765,-0.041486249779685735
1.4009999999999565,0.17423001224023077,-0.08395644768327443
1.6009999999999345,0.20964113349056213,-0.13024702694695134
1.8009999999999124,0.23832477521393472,-0.17155506290936548
2.0009999999998906,0.25880250924718134,-0.21074866336571502
2.2009999999998686,0.26543741280469,-0.2513065521902204
2.4009999999998466,0.258844857703449,-0.2867365015254707
2.6009999999998246,0.23537981638361705,-0.31091620758083516
2.8009999999998025,0.20101455512929073,-0.31912641993781754
3.0009999999997805,0.16196251196731754,-0.32208673922358194
3.2009999999997585,0.12831666648379314,-0.3200071599009254
3.4009999999997365,0.0920994657977402,-0.3046177099648236
3.6009999999997144,0.051532006749941905,-0.2732068614218298
3.8009999999996924,0.013133348336177625,-0.24953495682778837
4.000999999999671,-0.022350052925581048,-0.2276286182192127
4.200999999999738,-0.046479209680390966,-0.18572434247372582
4.400999999999804,-0.04709389479472118,-0.1167915320306365
4.600999999999871,-0.0440612707691764,-0.050122348922714555
4.800999999999938,-0.02589348115636458,0.007621869818820517
5.000000000000004,-0.017543147321964797,0.05856716619633327
5.200000000000071,-0.005264396316509009,0.10700450022236084
5.400000000000138,0.010549864133521287,0.14799123274449832
5.600000000000205,0.04847921562671804,0.17074648567089706
5.800000000000272,0.0884784719351506,0.17998017848672584
6.000000000000338,0.14164582743369358,0.1780475323076366
6.200000000000405,0.19984866767360823,0.17211885136419577
6.400000000000472,0.25300135898558507,0.16971464781395296
6.600000000000539,0.3048359136128183,0.15440988784558454
6.800000000000606,0.3465407371078129,0.1209023199799478
7.000000000000672,0.37442456565553184,0.0792961259700209
7.200000000000739,0.3956226080606351,0.04567445960490551
7.400000000000806,0.4131982656294812,0.0039060801499264572
7.600000000000873,0.4195957425977818,-0.047678785133342096
7.8000000000009395,0.422280481407133,-0.10730609642080485
8.000000000001005,0.41871275630804305,-0.1744031145523406
8.200000000000895,0.40737309072641864,-0.24466859956588397
8.400000000000784,0.38538408914412503,-0.3176740384067711
8.600000000000673,0.3466557336041169,-0.3895392856721665
8.800000000000562,0.3050405246392343,-0.44576947879179296
9.000000000000451,0.26340234241533816,-0.4797651474246999
9.20000000000034,0.21226800913252078,-0.491653855021557
9.40000000000023,0.16067200466219148,-0.4962498104914773
9.600000000000119,0.12154037113007247,-0.4642587795532012
9.800000000000008,0.08830619962068167,-0.4287641176616492
10.000999999999896,0.06228007013600705,-0.3873108166247622
10.200999999999786,0.0495966428763011,-0.33919416708875244
10.400999999999675,0.06387094707018712,-0.2817185088510656
10.600999999999564,0.09657665150260131,-0.22249684529391836
10.800999999999453,0.1368932829901551,-0.17748014413144864
11.000999999999342,0.19245300522972708,-0.15584824125650432
11.200999999999231,0.24738593082660498,-0.1491011544991828
11.40099999999912,0.29575787377434354,-0.1612262179761803
11.60099999999901,0.33444528322738726,-0.20293358899221384
11.800999999998899,0.35489623774031565,-0.25147115691434746
12.000999999998788,0.37084860462977326,-0.3086135693996158
12.200999999998677,0.3879500946850069,-0.36316368568818036
12.400999999998566,0.3901509633021452,-0.42237254348218395
12.600999999998455,0.3818256018383483,-0.48279608524425843
12.800999999998345,0.3489218042114464,-0.5397607919595278
13.000999999998234,0.30118533054227065,-0.5728152091288248
13.200999999998123,0.25072399011387936,-0.5875322908817895
13.400999999998012,0.1906067167030384,-0.5879821324838584
13.600999999997901,0.1333314871754872,-0.5749279779371249
13.80099999999779,0.08999177402431446,-0.5501819003638899
14.00099999999768,0.060591588589082014,-0.5129873513065932
14.200999999997569,0.04177467495994166,-0.4703534033891551
14.400999999997458,0.038538319804221816,-0.41409666982188387
14.600999999997347,0.050730236031576385,-0.3473730799755647
14.800999999997236,0.060890299335983264,-0.2823866929366112
15.000999999997125,0.06619610676249721,-0.22331239479479736
15.200999999997014,0.07819393206249356,-0.16379502763855217
15.400999999996904,0.08598449053715367,-0.1059492313598071
15.600999999996793,0.08926774512380944,-0.04488631401159073
15.800999999996682,0.09269389836301113,0.0073934706755755955
16.000999999996573,0.0977315696669763,0.061599957012929835
16.200999999996817,0.11137105804624879,0.11939248560595445
16.40099999999706,0.15301077900508975,0.1692796701233425
16.600999999997306,0.2111698480561797,0.20490223602969654
16.80099999999755,0.268552217946136,0.2166806211816333
17.000999999997795,0.32474961364604693,0.21101566908226255
17.20099999999804,0.37487008731183086,0.1957310393284116
17.400999999998284,0.4085528570951526,0.15511541642919216
17.60099999999853,0.4198641149378446,0.09903855258875732
17.800999999998773,0.41799655757559867,0.03615282866006711
18.000999999999017,0.4135915028975306,-0.023269920347636183
18.20099999999926,0.40831377915988915,-0.08262816100767807
18.400999999999506,0.3804148998181979,-0.14687047448634505
18.60099999999975,0.33050995577667464,-0.21002791325738435
18.799999999999994,0.28243344804313847,-0.24985751884899107
19.000000000000238,0.2309692830724792,-0.2519239171721631
19.200000000000482,0.17556446811211943,-0.24918120321693502
19.400000000000727,0.11514552388067209,-0.22819823480241688
19.60000000000097,0.058040501830114964,-0.1891860722953358
19.800000000001216,-0.0007937717332025051,-0.1535387747412877
20.00000000000146,-0.04684448252978788,-0.1038262524900526
