Time (s),X (m),Y (m)
0.001,-0.0004427414248986554,0.0007899207378008392
0.20000000000000015,0.004210656345344083,-0.004415290471492829
0.4000000000000003,0.00897060732074608,0.00027812061821701656
0.6000000000000004,0.02221792640778249,7.333015978964039e-05
0.8000000000000006,0.04002336716036167,-0.0033037319606277022
1.0000000000000007,0.07019753025399551,-0.022419101459128097
1.2009999999999785,0.09721957757728703,-0.0267299751865828
1.4009999999999565,0.12467369402968445,-0.019820307756529237
1.6009999999999345,0.14966997795391504,-0.024306599363651607
1.8009999999999124,0.17374617490009717,-0.02578685537710814
2.0009999999998906,0.19970521187420398,-0.029646681573503756
2.2009999999998686,0.22897844236080217,-0.026113271800089752
2.4009999999998466,0.25545040279470427,-0.026168133542204784
2.6009999999998246,0.27074752704496907,-0.04590712928863069
2.8009999999998025,0.2825327873623554,-0.07192093099169049
3.0009999999997805,0.27516494775337347,-0.11834235270128797
3.2009999999997585,0.2668310279446763,-0.162103207250392
3.4009999999997365,0.274190626016023,-0.19073477956495874
3.6009999999997144,0.27198712005372705,-0.22279565739642151
3.8009999999996924,0.2699552382213272,-0.25764640797481464
4.000999999999671,0.2675834707396026,-0.29288841441388674
4.200999999999738,0.2767886264047901,-0.31311019664294726
4.400999999999804,0.28046073447794917,-0.34652671555181197
4.600999999999871,0.27721974089941226,-0.37804850062895756
4.800999999999938,0.27790057722511174,-0.40943647263199673
5.000000000000004,0.2808161465916753,-0.4464327791343911
5.200000000000071,0.2799239210603559,-0.4813371411225109
5.400000000000138,0.2735468342915295,-0.5098588773206907
5.600000000000205,0.2567346614450487,-0.5409975524517351
5.800000000000272,0.2443280861444751,-0.573920046349406
6.000000000000338,0.22462263866838172,-0.6060896417670266
6.200000000000405,0.23053221719975048,-0.6391557357988468
6.400000000000472,0.2460791699411724,-0.6680417443870948
6.600000000000539,0.26374149501226574,-0.6909573573579104
6.800000000000606,0.2655172845247672,-0.7161825580984235
7.000000000000672,0.2579378431784217,-0.7455169295830659
7.200000000000739,0.2529206457064867,-0.7791130263194924
7.400000000000806,0.2420251366066594,-0.8127475273319414
7.600000000000873,0.21593774370278226,-0.8466833308208782
7.8000000000009395,0.1790631222655104,-0.8765891888857078
8.000000000001005,0.1321754089798478,-0.8925920695166167
8.200000000000895,0.0977011620018198,-0.9030051623410502
8.400000000000784,0.0628905157177678,-0.9130462225451732
8.600000000000673,0.0268517308380081,-0.9234530156135179
8.800000000000562,-0.012089106993907226,-0.9299252736497252
9.000000000000451,-0.05281338689754906,-0.9154847804540942
9.20000000000034,-0.08946670844130286,-0.8940359357142531
9.40000000000023,-0.1145388279063339,-0.8708175815045681
9.600000000000119,-0.13395657422254612,-0.8498345966622779
9.800000000000008,-0.15054427184380734,-0.8143967817317687
10.000999999999896,-0.16263162360328418,-0.7764387984830214
10.200999999999786,-0.16534224539982706,-0.7332885991907323
10.400999999999675,-0.15673852476360112,-0.6912727914692391
10.600999999999564,-0.1339785422141956,-0.6543238099828885
10.800999999999453,-0.11319987320403288,-0.6203199752407217
11.000999999999342,-0.08496232630209254,-0.5985863507299671
11.200999999999231,-0.05814742959361457,-0.5789009080377153
11.40099999999912,-0.029559863424593717,-0.5610013329338901
11.60099999999901,0.005267462948580206,-0.5385228311359029
11.800999999998899,0.035713190557418444,-0.5246151886463438
12.000999999998788,0.06332414387969892,-0.5152844587998384
12.200999999998677,0.11781740954293728,-0.5215159060864132
12.400999999998566,0.1702135565983777,-0.5160890191597804
12.600999999998455,0.21139619720600125,-0.5116870527304181
12.800999999998345,0.2504460265812108,-0.5072016357622099
13.000999999998234,0.2883691821449813,-0.508853229161891
13.200999999998123,0.32207778524737257,-0.5237497060405987
13.400999999998012,0.34690083387410414,-0.5553467620369983
13.600999999997901,0.37021857821012133,-0.5744391986195525
13.80099999999779,0.3844644035336425,-0.5988279894825144
14.00099999999768,0.3940723267466212,-0.6310134784662129
14.200999999997569,0.3924858217806198,-0.6738871983870388
14.400999999997458,0.385775183786087,-0.7224051994975997
14.600999999997347,0.38184101861738606,-0.7716102455033411
14.800999999997236,0.3734811017428629,-0.8139106101530585
15.000999999997125,0.3550535964882792,-0.8544770779809804
15.200999999997014,0.3426744202237968,-0.8916495230922491
15.400999999996904,0.31704281750577507,-0.9324836633832408
15.600999999996793,0.2860271808396437,-0.9685566950974903
15.800999999996682,0.25059522107180027,-0.9956460910822275
16.000999999996573,0.2144175547438532,-1.0158367955794196
16.200999999996817,0.1948086458969883,-1.041462757569188
16.40099999999706,0.17820261614190522,-1.063022543725699
16.600999999997306,0.13903004647533773,-1.0661734315999283
16.80099999999755,0.10203603920333616,-1.0702434266965422
17.000999999997795,0.05762562295921249,-1.0722800668872083
17.20099999999804,0.016526821792541103,-1.0730276425069953
17.400999999998284,-0.032350503763790096,-1.0702905541041083
17.60099999999853,-0.08066931996630389,-1.0775548114724065
17.800999999998773,-0.1239786284593651,-1.09283546118579
18.000999999999017,-0.1616372854419062,-1.099151532359571
18.20099999999926,-0.2061005024971373,-1.0875218038514365
18.400999999999506,-0.24717562779518268,-1.073138976458656
18.60099999999975,-0.27698439044576545,-1.0511930043757698
18.799999999999994,-0.2927522611086569,-1.027342083728881
19.000000000000238,-0.3094049004759306,-1.0043314797445664
19.200000000000482,-0.32195305744709846,-0.9742877491820422
19.400000000000727,-0.32543653150473634,-0.934331882001985
19.60000000000097,-0.3297986080249576,-0.8985148952243376
19.800000000001216,-0.32545765264536614,-0.8447996406693417
20.00000000000146,-0.33332411618842195,-0.7894447482828553
