Time (s),X (m),Y (m)
0.001,0.00013020853671323254,0.0010272443824616275
0.20000000000000015,0.0010850292013243597,0.0016889305543009586
0.4000000000000003,0.0015161900740493829,0.004821990768976362
0.6000000000000004,0.0015836432029912955,0.003935742862425548
0.8000000000000006,0.0030088697044755074,0.0032409472541257774
1.0000000000000007,0.00487577373731641,0.002299083218803488
1.2009999999999785,0.00684971488466786,0.00039528424939413103
1.4009999999999565,0.009021821831323378,-0.0020104691183896258
1.6009999999999345,0.011398643249259419,-0.004642780690803577
1.8009999999999124,0.013227298050906834,-0.005418719564441622
2.0009999999998906,0.015409118997092663,-0.005904828777319816
2.2009999999998686,0.016119712463101083,-0.006537398550225444
2.4009999999998466,0.016226119141159838,-0.007144662330623878
2.6009999999998246,0.01637367811866765,-0.00781851332861886
2.8009999999998025,0.01653759794858831,-0.008530701570724894
3.0009999999997805,0.01671373437173807,-0.00926112290159407
3.2009999999997585,0.016943843128220316,-0.010037320821481531
3.4009999999997365,0.01722235278031982,-0.011026171486346608
3.6009999999997144,0.017551394188696466,-0.012337995783121492
3.8009999999996924,0.017780169989186006,-0.013107552272904877
4.000999999999671,0.01823573588049677,-0.014790202306606614
4.200999999999738,0.018752171896370986,-0.016791003915621366
4.400999999999804,0.019349839794824256,-0.01872425179356884
4.600999999999871,0.019917319217618912,-0.02046494307698724
4.800999999999938,0.02064608788375597,-0.022346943111330238
5.000000000000004,0.02144886974190509,-0.024240095562960817
5.200000000000071,0.022260403991766157,-0.026023437512884807
5.400000000000138,0.0230876711396125,-0.027811233191420495
5.600000000000205,0.023904864003559446,-0.029559025487105726
5.800000000000272,0.02501194074009586,-0.031524319727490764
6.000000000000338,0.026260018939144092,-0.033202063532629916
6.200000000000405,0.02737200878028492,-0.03504285015023041
6.400000000000472,0.028672915218838038,-0.03696671845621052
6.600000000000539,0.030065013000063406,-0.03855964497626502
6.800000000000606,0.031471546807158204,-0.04069925371006026
7.000000000000672,0.03287783877174808,-0.042647905173334895
7.200000000000739,0.03451369557971621,-0.04433236907578641
7.400000000000806,0.036137102980036105,-0.04650877330639646
7.600000000000873,0.03778445941159165,-0.04850787524519359
7.8000000000009395,0.039536202874507424,-0.0503715474410599
8.000000000001005,0.04146589498770172,-0.05224560025911281
8.200000000000895,0.043163612362601765,-0.0541014104657801
8.400000000000784,0.04509956388981491,-0.056149468852218484
8.600000000000673,0.047173539040181685,-0.058072801905747394
8.800000000000562,0.048860880672278305,-0.05999037478721047
9.000000000000451,0.05080448182635185,-0.0621079836018432
9.20000000000034,0.0527647156336254,-0.0642077066015518
9.40000000000023,0.054936908939147454,-0.06615823384896605
9.600000000000119,0.05704233676820048,-0.06836291127222512
9.800000000000008,0.059165385661985224,-0.07052639935331344
10.000999999999896,0.06132612946949263,-0.07268413265478141
10.200999999999786,0.06364439159785011,-0.07483580499758326
10.400999999999675,0.0658130070802225,-0.07662197950456093
10.600999999999564,0.06821739527994682,-0.07825531780398173
10.800999999999453,0.07064981139847275,-0.07974791647995799
11.000999999999342,0.07274446787488167,-0.08124830678639
11.200999999999231,0.07484458077780622,-0.08229201444733537
11.40099999999912,0.07708976758219117,-0.08349341821660437
11.60099999999901,0.07920212723610813,-0.08450305460244593
11.800999999998899,0.08099904091502094,-0.08529642493293083
12.000999999998788,0.08305260403747745,-0.08638881943373244
12.200999999998677,0.0854207998414936,-0.0875921590041342
12.400999999998566,0.08779016783920157,-0.08866542038415744
12.600999999998455,0.08985629539841834,-0.08957115011788516
12.800999999998345,0.09184550319320012,-0.0911826436501826
13.000999999998234,0.09404721162979805,-0.09292296162058226
13.200999999998123,0.09615269665031045,-0.09453117478406456
13.400999999998012,0.09805681739789265,-0.09598441918733258
13.600999999997901,0.10020953858792304,-0.09761809864488827
13.80099999999779,0.10234587739234056,-0.09917973742953845
14.00099999999768,0.10448172509859333,-0.10073903696335743
14.200999999997569,0.1066408755756002,-0.10227166500522947
14.400999999997458,0.10859295887905782,-0.10297415604855284
14.600999999997347,0.11054098697482725,-0.10372331353808899
14.800999999997236,0.11244758526973676,-0.10444249507789821
15.000999999997125,0.11489484619655484,-0.10553721494059748
15.200999999997014,0.11694135786169173,-0.10686104310075618
15.400999999996904,0.11908702129226491,-0.10827738974532258
15.600999999996793,0.12102597771640992,-0.10950079275970237
15.800999999996682,0.12282456074770763,-0.11062371326011881
16.000999999996573,0.12487539679395422,-0.11188399247324607
16.200999999996817,0.12680277392660372,-0.11307616382565473
16.40099999999706,0.1287488052034347,-0.11424660790513612
16.600999999997306,0.13072413519653506,-0.11543189761232564
16.80099999999755,0.132499126586426,-0.11646870642515414
17.000999999997795,0.13453996720654496,-0.11764564593837991
17.20099999999804,0.1364282630324407,-0.11872771383494639
17.400999999998284,0.13814281307504422,-0.11969557957558263
17.60099999999853,0.13975501317404374,-0.12013508414809439
17.800999999998773,0.14155477969782312,-0.12043462477456857
18.000999999999017,0.14327197817768617,-0.12073327231269898
18.20099999999926,0.1450829101384222,-0.12107451249527632
18.400999999999506,0.1467559419940021,-0.12194162523583427
18.60099999999975,0.14817466228491694,-0.12260389420217653
18.799999999999994,0.14975305654658447,-0.1228382934146512
19.000000000000238,0.150925568454972,-0.12307611152831152
19.200000000000482,0.15232412883455196,-0.12318961316320325
19.400000000000727,0.15367223086145432,-0.12338375903634669
19.60000000000097,0.15520759994042202,-0.12364300760045376
19.800000000001216,0.15660297396995135,-0.1238234832673671
20.00000000000146,0.1580433910544345,-0.12430149502357027
