Time (s),X (m),Y (m)
0.001,0.0011546366250239817,0.000435790549910003
0.20000000000000015,0.0014798898621548972,-0.00023935757166302732
0.4000000000000003,-0.00045273133714047114,-0.001999787756888092
0.6000000000000004,0.005067647994038504,6.098221398419419e-05
0.8000000000000006,0.006400069747946551,-0.0017294519424901856
1.0000000000000007,0.006915360056761663,0.004355978701054941
1.2009999999999785,0.0141149495981879,0.010960207597565436
1.4009999999999565,0.019028513234797186,0.009203946880631995
1.6009999999999345,0.026609366010928826,0.0035892852513550668
1.8009999999999124,0.0321689899460444,0.0015675082762342484
2.0009999999998906,0.03622851577076126,0.008015357981088145
2.2009999999998686,0.051513185841528336,0.011401365473762809
2.4009999999998466,0.06090130752274298,0.014370363880611038
2.6009999999998246,0.0706574567993431,0.010180104589678631
2.8009999999998025,0.08100963321997205,0.012381798925214587
3.0009999999997805,0.08981966717338832,0.013254259119886728
3.2009999999997585,0.10129503420845021,0.016801989416627153
3.4009999999997365,0.11410930690847344,0.01790611679158393
3.6009999999997144,0.11792147034675435,0.017133330755790634
3.8009999999996924,0.13134455366502915,0.020189764760598677
4.000999999999671,0.14203801985678896,0.029085637684111355
4.200999999999738,0.15725245939016583,0.03692749735596081
4.400999999999804,0.16897797974406695,0.042395527243415936
4.600999999999871,0.17974168562580892,0.04665139037965544
4.800999999999938,0.1923499003810064,0.0524615971049319
5.000000000000004,0.20231400531261104,0.05784515629293435
5.200000000000071,0.21286541267975395,0.0640107311619698
5.400000000000138,0.2245831317438674,0.06913026800838856
5.600000000000205,0.23765419343941122,0.07880899587752568
5.800000000000272,0.25074778119562907,0.08390324818938755
6.000000000000338,0.26586981131618864,0.0899687873075224
6.200000000000405,0.28603129148300244,0.09858677563175229
6.400000000000472,0.29733410723269077,0.10371128574959661
6.600000000000539,0.31225485270854186,0.10906136640560328
6.800000000000606,0.3240785139750734,0.11597784650500342
7.000000000000672,0.32925070790677174,0.12692734427006117
7.200000000000739,0.3389420687305003,0.13116282926367256
7.400000000000806,0.34409502454511603,0.13634774782784154
7.600000000000873,0.35871878789434275,0.1422928413445509
7.8000000000009395,0.37034756865909924,0.15042694073931304
8.000000000001005,0.3870002032637065,0.15532291883209817
8.200000000000895,0.404658731159973,0.16450672197828395
8.400000000000784,0.41697720265356153,0.16840752631144895
8.600000000000673,0.43073036287966926,0.17317673029646835
8.800000000000562,0.44567188861963086,0.1824722973214047
9.000000000000451,0.4563052823807134,0.191453893076715
9.20000000000034,0.46675131971670797,0.2018017301509677
9.40000000000023,0.4838245452441849,0.20807934294074437
9.600000000000119,0.49618033968800784,0.2225006308755117
9.800000000000008,0.5115925778858462,0.22832852139066695
10.000999999999896,0.5250112038962614,0.23958297513278629
10.200999999999786,0.5453321588453595,0.25310587178836547
10.400999999999675,0.5583741118979394,0.26543035928111663
10.600999999999564,0.5736789031810282,0.27643425994020515
10.800999999999453,0.5847867639663288,0.283477529107622
11.000999999999342,0.5945690296348062,0.2904471537957067
11.200999999999231,0.6061376675854075,0.3039443073309791
11.40099999999912,0.6263764004838449,0.32049125856599525
11.60099999999901,0.6395348913989516,0.33808793924999425
11.800999999998899,0.65032126662438,0.3481362454280682
12.000999999998788,0.6620752567526895,0.3568318991290542
12.200999999998677,0.6741941913563096,0.368599122121097
12.400999999998566,0.6858542515637132,0.37955379562317515
12.600999999998455,0.6952380790075084,0.39037877078738453
12.800999999998345,0.7044417684743894,0.4017912028633674
13.000999999998234,0.7167114870992648,0.4127715396007172
13.200999999998123,0.7289363444581779,0.4283657223605686
13.400999999998012,0.7391533801152862,0.43917804206125505
13.600999999997901,0.7462048355999823,0.4503089275522976
13.80099999999779,0.7600992698686669,0.4612454691621026
14.00099999999768,0.7733278443117862,0.4778632694076785
14.200999999997569,0.7839231651889704,0.49586835785054717
14.400999999997458,0.7956105314474314,0.5075259879560362
14.600999999997347,0.8070176562207059,0.5206849713237903
14.800999999997236,0.8221639493887005,0.5312059007886444
15.000999999997125,0.831413318484891,0.5460675349724381
15.200999999997014,0.8424426898476354,0.559696644863794
15.400999999996904,0.8526097904540674,0.5815744320306957
15.600999999996793,0.8641025526570887,0.5969709286037735
15.800999999996682,0.8744367584839087,0.6041026805956011
16.000999999996573,0.8838244608046891,0.6134704858625017
16.200999999996817,0.8947234718433412,0.6244413097186726
16.40099999999706,0.9066309037993644,0.6438481736521715
16.600999999997306,0.9200124350950954,0.6606823136522276
16.80099999999755,0.934332969593697,0.6772626872694689
17.000999999997795,0.9476249401362381,0.6940308268498
17.20099999999804,0.962047808136512,0.707202953161176
17.400999999998284,0.974887910311178,0.7231155042265957
17.60099999999853,0.9884474833899357,0.7387579549745611
17.800999999998773,0.9922734186944862,0.7449897378716342
18.000999999999017,0.9978084396266619,0.7535857809625262
18.20099999999926,1.0013225877196499,0.7646958167622689
18.400999999999506,1.0068800438834187,0.7704086068632903
18.60099999999975,1.0168814076247523,0.7858467675881495
18.799999999999994,1.0299301189312366,0.8008733151755237
19.000000000000238,1.039510467878547,0.817239807478301
19.200000000000482,1.0494787501420266,0.827513691634321
19.400000000000727,1.0589424084183439,0.8394818607732355
19.60000000000097,1.07071440394117,0.8486649681608588
19.800000000001216,1.0816232864046365,0.8641061827772811
20.00000000000146,1.0891171439353415,0.8777735207785955
