Time (s),X (m),Y (m)
0.001,0.0011890620069237587,-0.00035268032603768894
0.20000000000000015,0.0011342156386178318,0.0011846313305796739
0.4000000000000003,0.007140229824971622,0.0022839868200802364
0.6000000000000004,0.011845755525742385,0.0013039794678397969
0.8000000000000006,0.019815649817671217,0.0003518357578339448
1.0000000000000007,0.025086271390290186,0.005544313487738512
1.2009999999999785,0.037778457067197756,0.004688121373848001
1.4009999999999565,0.04707142397127185,0.0023875485678340755
1.6009999999999345,0.055950532879877314,-0.0033815810945335215
1.8009999999999124,0.06984184349519244,-0.005766421558225472
2.0009999999998906,0.07708190971024607,-0.010548446363544772
2.2009999999998686,0.08126807422406437,-0.006250264569127745
2.4009999999998466,0.09193522907055364,-0.006471807159059476
2.6009999999998246,0.09693211118458454,-0.00864711950515751
2.8009999999998025,0.10929771809216264,-0.008389723435565415
3.0009999999997805,0.12185406678827534,-0.011707341014177093
3.2009999999997585,0.1339594908961591,-0.01595937503510702
3.4009999999997365,0.15800216113788945,-0.02216703908601957
3.6009999999997144,0.18056233478001876,-0.028214654316816357
3.8009999999996924,0.19974611922387245,-0.03296070144276624
4.000999999999671,0.22182954192850032,-0.04217096569713671
4.200999999999738,0.23522817934573245,-0.04218141667691742
4.400999999999804,0.2555362800429355,-0.04433417276661508
4.600999999999871,0.2762765315843456,-0.0524466073852247
4.800999999999938,0.29511689781386685,-0.06158338264021543
5.000000000000004,0.31356511929198644,-0.07116424510045247
5.200000000000071,0.33391220645140596,-0.08003935493777305
5.400000000000138,0.35290937191984567,-0.08427206282093441
5.600000000000205,0.3723144903083197,-0.08837512471579222
5.800000000000272,0.3937554278891662,-0.09580918919629693
6.000000000000338,0.4094963909059915,-0.1048184179239908
6.200000000000405,0.43474799075684906,-0.11769497973327407
6.400000000000472,0.4629318395715233,-0.12942523722459476
6.600000000000539,0.48577127395454417,-0.1369131529614073
6.800000000000606,0.5072561749293537,-0.14674570510076826
7.000000000000672,0.5214157906382875,-0.1497215060954938
7.200000000000739,0.5323083664567793,-0.15027356379511983
7.400000000000806,0.5535881521041346,-0.15768557332360453
7.600000000000873,0.5746602902513259,-0.1635761633206355
7.8000000000009395,0.592932477959254,-0.17156899180984567
8.000000000001005,0.6111953076876657,-0.17947360695740874
8.200000000000895,0.6371005888378045,-0.1963883663274752
8.400000000000784,0.6583840553618466,-0.20122685291060163
8.600000000000673,0.6796510949476223,-0.2049508505945807
8.800000000000562,0.7010692857272276,-0.2106342990783178
9.000000000000451,0.7198896136849056,-0.2153366810754777
9.20000000000034,0.7391815325161731,-0.2164131925159064
9.40000000000023,0.768356499898292,-0.2268615883935063
9.600000000000119,0.7945088803642252,-0.24144452178763123
9.800000000000008,0.8228072790398487,-0.253353648837479
10.000999999999896,0.8521579108055953,-0.27232442476035007
10.200999999999786,0.8754959974139027,-0.28340968515575377
10.400999999999675,0.8987441346086642,-0.29124125457536704
10.600999999999564,0.9189365423335769,-0.30346822834139336
10.800999999999453,0.947222238993006,-0.3205993937625167
11.000999999999342,0.9745719719989465,-0.33686232207912176
11.200999999999231,0.9994283204821042,-0.34754573202106814
11.40099999999912,1.0227176987664968,-0.35756282621209956
11.60099999999901,1.047180890616985,-0.37602342689718193
11.800999999998899,1.067787218019521,-0.3879327713248506
12.000999999998788,1.0877482426285587,-0.40278783320418343
12.200999999998677,1.0993329537543193,-0.41885865433209574
12.400999999998566,1.1138626856690055,-0.4371826308045682
12.600999999998455,1.128170211841433,-0.4594526035082287
12.800999999998345,1.1350860569228134,-0.4809710704539427
13.000999999998234,1.1403093955319685,-0.4974002645680601
13.200999999998123,1.1411686210403709,-0.5167256873126733
13.400999999998012,1.1387321357249154,-0.5309157168066895
13.600999999997901,1.1354712554517243,-0.5477395948818752
13.80099999999779,1.127347444009315,-0.5700360913225225
14.00099999999768,1.1178272451500129,-0.5929899836815216
14.200999999997569,1.1151180181938476,-0.6095215594264696
14.400999999997458,1.1082909752288512,-0.6329975868708285
14.600999999997347,1.0971450015753725,-0.653636094605257
14.800999999997236,1.090287049332982,-0.6765097469444165
15.000999999997125,1.083868705999025,-0.6964660320521955
15.200999999997014,1.0805368774992594,-0.714209938707105
15.400999999996904,1.080523648495249,-0.7383231202476058
15.600999999996793,1.0741272907285482,-0.7600337396568481
15.800999999996682,1.0662802679943422,-0.7838397472183131
16.000999999996573,1.0631513398588819,-0.8069228836798712
16.200999999996817,1.0594151562069531,-0.8338214481638914
16.40099999999706,1.0494294510049722,-0.861806216273254
16.600999999997306,1.0406694753647618,-0.8903003004015881
16.80099999999755,1.0330114331611848,-0.9167926185830385
17.000999999997795,1.0244835287037664,-0.9415240601005512
17.20099999999804,1.0150308338573897,-0.9655921521749996
17.400999999998284,1.0041134358783173,-0.9954109674800103
17.60099999999853,0.9971369625013542,-1.0188615837639785
17.800999999998773,0.9898373732540445,-1.0402725265241535
18.000999999999017,0.9835720876083964,-1.063328563899025
18.20099999999926,0.9791246804734592,-1.085297401261656
18.400999999999506,0.9667842874141227,-1.1126569498696472
18.60099999999975,0.9618324486292362,-1.1324888261019774
18.799999999999994,0.9524010659922625,-1.1546763102686781
19.000000000000238,0.9422998880035657,-1.1773877634059051
19.200000000000482,0.9246861108108914,-1.2025670879390375
19.400000000000727,0.903938383105851,-1.2289563939603232
19.60000000000097,0.8858372274564819,-1.2522511570634922
19.800000000001216,0.8668144134556688,-1.275904317370425
20.00000000000146,0.8467731499220595,-1.297552224293335
