Time (s),X (m),Y (m)
0.001,0.0009492268646305597,0.0007291460897812449
0.20000000000000015,-0.0036504853160500604,-0.0034526322372222342
0.4000000000000003,0.0012986164055793876,-0.0012045548904530403
0.6000000000000004,0.007063623894696309,0.0029654216808752097
0.8000000000000006,0.01569593828510166,-0.001585822110045133
1.0000000000000007,0.03034330337161043,-0.005914310061105733
1.2009999999999785,0.0512107545484308,-0.012050891638793573
1.4009999999999565,0.06894734435997707,-0.011502157826506935
1.6009999999999345,0.08484843644939838,-0.014564590760250103
1.8009999999999124,0.09619937911653727,-0.028268948126336076
2.0009999999998906,0.1170633653486059,-0.03141612504039785
2.2009999999998686,0.14307958800970277,-0.02726099069809111
2.4009999999998466,0.16847476662231084,-0.020107754971918024
2.6009999999998246,0.20095588296306732,-0.01770461221507204
2.8009999999998025,0.22082672590730767,-0.027786253172791122
3.0009999999997805,0.24972150857094022,-0.02386154811361354
3.2009999999997585,0.27852108117184327,-0.010990133082727838
3.4009999999997365,0.3035036342322809,-0.004930870496345324
3.6009999999997144,0.32806567157373717,-0.0016459080757917285
3.8009999999996924,0.3410523618239995,-0.002489882911493896
4.000999999999671,0.36606229151393677,-0.0017172493680289174
4.200999999999738,0.389801937986481,0.005728935037869493
4.400999999999804,0.41336002519040593,0.009525316017487776
4.600999999999871,0.4357278043604342,0.012765701200244383
4.800999999999938,0.4633493679065972,0.01720788394964796
5.000000000000004,0.5046176981106717,0.02238936735776414
5.200000000000071,0.5375864786491197,0.02011035247053592
5.400000000000138,0.5594379886586613,0.008081154954295204
5.600000000000205,0.5917981821697851,0.001868954552433593
5.800000000000272,0.6294022226517182,0.001791363226179059
6.000000000000338,0.6644012731407646,-0.0012597296543340097
6.200000000000405,0.693883784273787,-0.009493855670293934
6.400000000000472,0.7265481655918951,-0.014724095625375869
6.600000000000539,0.7618352470173668,-0.014931513310888845
6.800000000000606,0.7937476131612057,-0.015743973264421233
7.000000000000672,0.8221787440227569,-0.024740443250115162
7.200000000000739,0.8553532342740547,-0.03358230290461339
7.400000000000806,0.8973736557416558,-0.03747089489059672
7.600000000000873,0.9284581052898702,-0.04147234163267755
7.8000000000009395,0.9532721225476878,-0.04846944908122728
8.000000000001005,0.9897741475168775,-0.0524471814744349
8.200000000000895,1.0252631436623896,-0.057533620122171676
8.400000000000784,1.0729623239831532,-0.05400113941383517
8.600000000000673,1.1247772800861655,-0.05122605210141587
8.800000000000562,1.1621664525290782,-0.05546036596516081
9.000000000000451,1.1946556409266034,-0.06766282616992843
9.20000000000034,1.2318892896742566,-0.07643087784122717
9.40000000000023,1.2717864443407518,-0.08140190232338448
9.600000000000119,1.305820642339323,-0.08616943217086875
9.800000000000008,1.351825334296997,-0.08299581306821585
10.000999999999896,1.4001808977015124,-0.07320788655260062
10.200999999999786,1.4302395087374276,-0.06546641293517633
10.400999999999675,1.4561818447306827,-0.07424806916815262
10.600999999999564,1.489682989208705,-0.09229826992449902
10.800999999999453,1.524797062174392,-0.11264858600059581
11.000999999999342,1.5643669070049806,-0.13827450931255472
11.200999999999231,1.5985060199785377,-0.16527130022569297
11.40099999999912,1.6337129726158313,-0.18808367341816912
11.60099999999901,1.6549494889314948,-0.21018990740936064
11.800999999998899,1.670149254727968,-0.2380438358940163
12.000999999998788,1.705610457046349,-0.26085676919280076
12.200999999998677,1.7252345389970494,-0.28451609487341706
12.400999999998566,1.7312405405121458,-0.3107378027435161
12.600999999998455,1.7546234015249282,-0.3347475573710334
12.800999999998345,1.7776448389747403,-0.3607347402499428
13.000999999998234,1.7902972704525344,-0.38993130366293444
13.200999999998123,1.8145184201813787,-0.42381379077992426
13.400999999998012,1.8483093774491812,-0.4602290695695964
13.600999999997901,1.8958906879702662,-0.5004589658899349
13.80099999999779,1.9386820507146088,-0.5415908336835163
14.00099999999768,1.9660912435540954,-0.575176768503781
14.200999999997569,1.992788412821846,-0.607071627281884
14.400999999997458,2.0245276765061018,-0.6331320179330453
14.600999999997347,2.068178525931637,-0.6544943637204662
14.800999999997236,2.0992435631594084,-0.679783293547788
15.000999999997125,2.121435143155443,-0.7080190374774039
15.200999999997014,2.1387346595999306,-0.736363811093595
15.400999999996904,2.1609953595069293,-0.7644064167694866
15.600999999996793,2.1766928195079003,-0.794184277369385
15.800999999996682,2.2085230599055814,-0.8140717827431216
16.000999999996573,2.2515734392662674,-0.8340985959539916
16.200999999996817,2.285445545135566,-0.8575466570198605
16.40099999999706,2.321090692776968,-0.8762912065144851
16.600999999997306,2.3627127632356673,-0.8885818828803466
16.80099999999755,2.4019823478349003,-0.8973372923387427
17.000999999997795,2.4408281988630716,-0.9093893521209079
17.20099999999804,2.4686570257139895,-0.934886947936785
17.400999999998284,2.493555398251287,-0.9612326688130785
17.60099999999853,2.516609729358286,-0.9838281099272606
17.800999999998773,2.5323051902373717,-1.010917188239207
18.000999999999017,2.5556256883280097,-1.040808209717577
18.20099999999926,2.585078867605857,-1.0724611546184792
18.400999999999506,2.619192386151878,-1.109198274782265
18.60099999999975,2.6528469170038753,-1.147209219997683
18.799999999999994,2.6889083549107524,-1.1769649884408062
19.000000000000238,2.7207052370990064,-1.198688647712182
19.200000000000482,2.7469402162507635,-1.219398630050962
19.400000000000727,2.7850458809076364,-1.2352058881972157
19.60000000000097,2.8300240854464365,-1.259051612439982
19.800000000001216,2.8559943198036235,-1.2865598757618244
20.00000000000146,2.8889294322308974,-1.3131063037673352
