Time (s),X (m),Y (m)
0.001,-4.680521708071185e-05,-0.0009960320817112695
0.20000000000000015,0.0028543718739227524,0.0026518500616091517
0.4000000000000003,0.008433612458778139,0.00586628158571969
0.6000000000000004,0.018055576895834164,0.011593414367922482
0.8000000000000006,0.028064050178609117,0.012942150303963814
1.0000000000000007,0.03766268760011967,0.009432743204246802
1.2009999999999785,0.044010414346335465,-0.005260381301001858
1.4009999999999565,0.05169982402564489,-0.010298489359591618
1.6009999999999345,0.06191985706828811,-0.022020373247438586
1.8009999999999124,0.07472081631871977,-0.02624721913387337
2.0009999999998906,0.09176150497635037,-0.030311160801546524
2.2009999999998686,0.10770618322848922,-0.026205668977645574
2.4009999999998466,0.12160904883407032,-0.024722466655322548
2.6009999999998246,0.13372721035413157,-0.027450342885658837
2.8009999999998025,0.1474710635269751,-0.027908505603675162
3.0009999999997805,0.16280630011371977,-0.030368824437237096
3.2009999999997585,0.17273052550018692,-0.03531015175109983
3.4009999999997365,0.1890868856210418,-0.036153035271841306
3.6009999999997144,0.20820699241335106,-0.025365014702431514
3.8009999999996924,0.22973207164552167,-0.01347951466834851
4.000999999999671,0.24837036272665072,-0.017524111400899503
4.200999999999738,0.2647439760925344,-0.019549149452133003
4.400999999999804,0.27639157521232616,-0.019113373344393433
4.600999999999871,0.2880274673893955,-0.011387235854168492
4.800999999999938,0.3040543908043168,-0.008114476221972306
5.000000000000004,0.32316844973910624,-0.0037598006334881064
5.200000000000071,0.3402487035248428,-0.011352397356246399
5.400000000000138,0.3537729335625827,-0.00556424435243713
5.600000000000205,0.36732814654312396,0.0013301357196181217
5.800000000000272,0.37992828873769424,0.010878019010641614
6.000000000000338,0.3957906055211055,0.01658395022883937
6.200000000000405,0.41204865282258457,0.017645916960188305
6.400000000000472,0.4303901889581862,0.02671848937254719
6.600000000000539,0.4475601349984069,0.03229259519452783
6.800000000000606,0.4653409651436728,0.03258953270935657
7.000000000000672,0.48643606164043657,0.04643480352296265
7.200000000000739,0.506566631250425,0.055075418441967776
7.400000000000806,0.5248805282129752,0.060223322609325836
7.600000000000873,0.5480487717307392,0.06931804192986196
7.8000000000009395,0.5715536275778169,0.07489910055421752
8.000000000001005,0.5929284662370449,0.08430518472874221
8.200000000000895,0.6133599371956947,0.09461704799907894
8.400000000000784,0.6323988119994673,0.09966218124690203
8.600000000000673,0.6493957072263926,0.10171989420954633
8.800000000000562,0.6706735483662292,0.10544139469410127
9.000000000000451,0.6880024141684341,0.1158054549875721
9.20000000000034,0.7114844391302678,0.12386446628049828
9.40000000000023,0.7324152291978261,0.1323717146381967
9.600000000000119,0.7538107169013951,0.1338553831024527
9.800000000000008,0.775651935076802,0.13112372359427285
10.000999999999896,0.7944211833065769,0.13532862668374113
10.200999999999786,0.8154450154934336,0.14235352492147926
10.400999999999675,0.8371654807686338,0.15058857723364666
10.600999999999564,0.8593780504494669,0.1608409572320912
10.800999999999453,0.8807359498459237,0.16493592630337908
11.000999999999342,0.9009568846540159,0.18278663158566974
11.200999999999231,0.9198730697037466,0.1886190855444592
11.40099999999912,0.9406336950479532,0.20275447173748293
11.60099999999901,0.9671867995365541,0.2081301098022227
11.800999999998899,0.9943583880893352,0.2110794215979668
12.000999999998788,1.0162775716389891,0.2044785469768629
12.200999999998677,1.0382995294003705,0.20446247414011984
12.400999999998566,1.056493287841565,0.2119092785364901
12.600999999998455,1.084408519176445,0.2183652530252696
12.800999999998345,1.1139406173139774,0.22611621377176136
13.000999999998234,1.1374330154142687,0.22514633595393588
13.200999999998123,1.1564925666695318,0.23505605367635451
13.400999999998012,1.1835365361146208,0.24340947722789744
13.600999999997901,1.2036234047071153,0.2480258020218947
13.80099999999779,1.2223279440084167,0.2559899708316704
14.00099999999768,1.2413027594899146,0.2661613643523167
14.200999999997569,1.2573402953697486,0.26589917785054734
14.400999999997458,1.2693935468858795,0.2529911536710781
14.600999999997347,1.2913609585578962,0.25927398640293187
14.800999999997236,1.3174354040837268,0.2654378664124939
15.000999999997125,1.3404606960873198,0.2656044636315163
15.200999999997014,1.3656624928593997,0.26452702923941807
15.400999999996904,1.3905445679382562,0.2610577799565443
15.600999999996793,1.4139309951869747,0.2621456763305931
15.800999999996682,1.436711370358137,0.276416774345103
16.000999999996573,1.4567038448244385,0.2846303357016229
16.200999999996817,1.476421125444731,0.29555859064754014
16.40099999999706,1.4974102044979798,0.2872043000528936
16.600999999997306,1.5185692355897185,0.2942784248480223
16.80099999999755,1.5397381169191846,0.302281804659617
17.000999999997795,1.5604315593364178,0.3130835615670445
17.20099999999804,1.57636599103239,0.3069342975379647
17.400999999998284,1.595044863940695,0.30694701882782155
17.60099999999853,1.6160627304587476,0.3180669136481672
17.800999999998773,1.6343183680661855,0.33319878695401595
18.000999999999017,1.6494540388978576,0.338656181550017
18.20099999999926,1.6708007757197696,0.3471005709002528
18.400999999999506,1.6982104638561255,0.33982052690935094
18.60099999999975,1.718665967435731,0.34850749679695087
18.799999999999994,1.7439725142710125,0.3531948115492709
19.000000000000238,1.7713554481087779,0.35931061006593196
19.200000000000482,1.7972416631569015,0.356941691004408
19.400000000000727,1.8169423181994282,0.3514960610778982
19.60000000000097,1.8361551520649508,0.3497379345313446
19.800000000001216,1.8641762077021564,0.35987173739422906
20.00000000000146,1.888311898202491,0.36967593014698685
