Time (s),X (m),Y (m)
0.001,-0.0005698399629515257,0.0006628221997479692
0.20000000000000015,0.005499393305110649,-0.001614575319302905
0.4000000000000003,0.01806569905964286,-0.0006245354577776314
0.6000000000000004,0.03977796094749756,0.006034477346134875
0.8000000000000006,0.06357551624258898,0.003001422339828771
1.0000000000000007,0.09671800319329518,-0.00974059162398541
1.2009999999999785,0.13539369618676333,-0.0168620910943469
1.4009999999999565,0.1780865668898938,-0.03207558294544332
1.6009999999999345,0.21800146584643765,-0.038703597671197916
1.8009999999999124,0.2617482362361678,-0.04671809494759774
2.0009999999998906,0.30290283527644174,-0.05095420839287119
2.2009999999998686,0.340271068599917,-0.06654105139650333
2.4009999999998466,0.3614552191477896,-0.11558123061225017
2.6009999999998246,0.36205929796556524,-0.17327508920742027
2.8009999999998025,0.3572670116603203,-0.230218776977512
3.0009999999997805,0.3446072261104284,-0.28118311001225316
3.2009999999997585,0.31349275414896777,-0.3186045523740445
3.4009999999997365,0.2731874240510999,-0.3439461968666431
3.6009999999997144,0.22952826945853835,-0.35421788415231786
3.8009999999996924,0.1797362555972835,-0.3656915378997849
4.000999999999671,0.11968372720214776,-0.36541234142712314
4.200999999999738,0.06110760482106035,-0.3452089150930435
4.400999999999804,0.010825955943746919,-0.32449420090349773
4.600999999999871,-0.020815628884208858,-0.28863384956579197
4.800999999999938,-0.028745512029559793,-0.22651089876649413
5.000000000000004,-0.023053005671711247,-0.16526144251654118
5.200000000000071,0.004738776219296119,-0.11275975934831123
5.400000000000138,0.032995942313969275,-0.07590426230505297
5.600000000000205,0.06751369330706093,-0.05265624208950466
5.800000000000272,0.1165360197488413,-0.047185824033063824
6.000000000000338,0.18009764265961514,-0.05148068833876052
6.200000000000405,0.24677944452454484,-0.0545535622105468
6.400000000000472,0.3048884046988606,-0.07444271723483828
6.600000000000539,0.3448152567957372,-0.11264101761186739
6.800000000000606,0.3747743607839125,-0.1560194897783573
7.000000000000672,0.4018641987599799,-0.20905240020613375
7.200000000000739,0.40268523723651617,-0.2634455729704062
7.400000000000806,0.363509312960612,-0.30901195283688876
7.600000000000873,0.30854762538066716,-0.34358537651109783
7.8000000000009395,0.24715028266809477,-0.3549951581960058
8.000000000001005,0.17877425852132264,-0.34832648496919183
8.200000000000895,0.1172000789055204,-0.3263071744594345
8.400000000000784,0.07316141508049177,-0.2980131371761673
8.600000000000673,0.046183722220543996,-0.2606614705279908
8.800000000000562,0.026822618606133303,-0.2189963793722443
9.000000000000451,0.017587320039984197,-0.1689898433261417
9.20000000000034,0.026882510523963368,-0.09904687107067722
9.40000000000023,0.04168868265140136,-0.030790221916147446
9.600000000000119,0.08322729661000923,0.0343596496408737
9.800000000000008,0.13449983310712874,0.08327187974275972
10.000999999999896,0.2015253738148611,0.10981316158651648
10.200999999999786,0.28124954971638233,0.11153576233583545
10.400999999999675,0.35826916346731763,0.09688177422919722
10.600999999999564,0.4206853791000312,0.06305448177461744
10.800999999999453,0.4454390875302913,0.016752669635049296
11.000999999999342,0.4437552546580492,-0.03555665357077832
11.200999999999231,0.4084870538005815,-0.07841735451422616
11.40099999999912,0.3607936252623782,-0.09263720205583192
11.60099999999901,0.31469365395407956,-0.11040799353541046
11.800999999998899,0.26287827137885117,-0.10887011105659114
12.000999999998788,0.21188115663987708,-0.08043384664782084
12.200999999998677,0.1646672278281931,-0.0547399285916604
12.400999999998566,0.13423398001692524,-0.009512200948524258
12.600999999998455,0.11915241312924409,0.04157409210190837
12.800999999998345,0.13211004594942108,0.09609207878014167
13.000999999998234,0.17242992350335143,0.1334840854585363
13.200999999998123,0.23046265547709097,0.15444113111689237
13.400999999998012,0.2976772950833344,0.1691588664138412
13.600999999997901,0.365736720012372,0.17845192516271552
13.80099999999779,0.4266478615480763,0.17649830030079106
14.00099999999768,0.48403985445609243,0.14966466814207113
14.200999999997569,0.5209983713119581,0.10906199817944606
14.400999999997458,0.530139010538606,0.06401589091335799
14.600999999997347,0.5274409290605889,0.008067482504115112
14.800999999997236,0.5224832966460129,-0.05737768579782447
15.000999999997125,0.5017002838555237,-0.11833867452532326
15.200999999997014,0.4577423982945517,-0.16669084659205177
15.400999999996904,0.39515945801294766,-0.19044809784575534
15.600999999996793,0.33420346547327817,-0.18962814145347318
15.800999999996682,0.29285777562520754,-0.15497582427540738
16.000999999996573,0.27433278209787215,-0.11363797803157344
16.200999999996817,0.29186953626988954,-0.06890772546207166
16.40099999999706,0.3233161887179442,-0.035968123736090034
16.600999999997306,0.35648721699387076,-0.02248949565732502
16.80099999999755,0.3934608837117729,-0.05143708309260109
17.000999999997795,0.41271997794284976,-0.09188495959619372
17.20099999999804,0.4168346606107264,-0.1427196106259063
17.400999999998284,0.4081098737344105,-0.19197179231683986
17.60099999999853,0.3861283102688226,-0.23995674438445536
17.800999999998773,0.3573477031961197,-0.2769382129379111
18.000999999999017,0.32478750327180456,-0.28451398206783723
18.20099999999926,0.29867974630319943,-0.2574954419344766
18.400999999999506,0.2811666175589328,-0.21136100005868103
18.60099999999975,0.26721818198083347,-0.15982463189708157
18.799999999999994,0.27662573427871034,-0.11122807686165248
19.000000000000238,0.3064796351546722,-0.05650071605052487
19.200000000000482,0.3483432195560904,0.00606990289081913
19.400000000000727,0.3959874020270066,0.06506088602477114
19.60000000000097,0.44908872265470745,0.10516517316233553
19.800000000001216,0.4982213406577558,0.12747760845746559
20.00000000000146,0.5534988074680824,0.1343629826973231
