Time (s),X (m),Y (m)
0.001,0.0010647643868879006,0.0005914538325516247
0.20000000000000015,-0.0019694968336611694,-0.0009860828800774232
0.4000000000000003,0.004790362104781198,0.00033405933431843193
0.6000000000000004,0.01397437055694907,0.002711943048527931
0.8000000000000006,0.023642552757353188,0.0013058318694724941
1.0000000000000007,0.039862223148964586,0.002283967858699234
1.2009999999999785,0.061478417656823346,0.005018923038560341
1.4009999999999565,0.08747524952369759,0.01260622383867713
1.6009999999999345,0.11266620254268918,0.028047007500183272
1.8009999999999124,0.12207192030133449,0.033320792502459624
2.0009999999998906,0.14884657692224484,0.037120409298937555
2.2009999999998686,0.16228326318474984,0.03658354971461086
2.4009999999998466,0.19047781995898277,0.04237342519753073
2.6009999999998246,0.22826759160811416,0.049425828269591465
2.8009999999998025,0.2535706578430605,0.05385260124944866
3.0009999999997805,0.28408040189023437,0.0640970671513813
3.2009999999997585,0.30241263323251427,0.06321187279188052
3.4009999999997365,0.32070465242493207,0.06555627234595315
3.6009999999997144,0.35096878488222966,0.07209546044176962
3.8009999999996924,0.3728368465772603,0.07729747893646957
4.000999999999671,0.3931922297140148,0.08199343153026138
4.200999999999738,0.4240167748749706,0.09114378118268393
4.400999999999804,0.46700990942850684,0.10217974645512987
4.600999999999871,0.5017097944906562,0.11087383369813059
4.800999999999938,0.5348949798216708,0.11834989918993981
5.000000000000004,0.5712187992560129,0.12592800167833348
5.200000000000071,0.6012376638036218,0.13158491444108011
5.400000000000138,0.629480858720695,0.13798231610946185
5.600000000000205,0.6495621049115957,0.13368726587932875
5.800000000000272,0.6860761170644417,0.12145893277239085
6.000000000000338,0.7243612079522261,0.10381768214667048
6.200000000000405,0.7552830535466598,0.08287228983608097
6.400000000000472,0.7757936293442741,0.0654596059697233
6.600000000000539,0.7889644393668616,0.04538707368087548
6.800000000000606,0.8039784052943791,0.023598205555139643
7.000000000000672,0.8271645875695465,0.006272188239741519
7.200000000000739,0.8673619620510956,0.0004239287003775968
7.400000000000806,0.9158757110007808,-0.005727292392414742
7.600000000000873,0.951823867122402,-0.013796630484099967
7.8000000000009395,0.9908048901188602,-0.02819474965304967
8.000000000001005,1.024232791605038,-0.04383687936179029
8.200000000000895,1.0619866340859374,-0.056653964014301963
8.400000000000784,1.091792291488948,-0.06549205318869174
8.600000000000673,1.1284044757192089,-0.07247306159418739
8.800000000000562,1.1479908297614412,-0.08172265592787575
9.000000000000451,1.1732046385042734,-0.0834980564726329
9.20000000000034,1.1993248846795272,-0.08706958241577244
9.40000000000023,1.2278792923157176,-0.10093820944907303
9.600000000000119,1.2626518001483293,-0.11792668414830505
9.800000000000008,1.3028829394749206,-0.13609390267605648
10.000999999999896,1.3475999826694953,-0.15168252274317642
10.200999999999786,1.3822596430791314,-0.1664591715564514
10.400999999999675,1.4134800823480875,-0.1820338726179889
10.600999999999564,1.4534733394261419,-0.20082763743370127
10.800999999999453,1.4897235530838577,-0.22962760398197848
11.000999999999342,1.528376958822989,-0.27221213838295344
11.200999999999231,1.5563135585073726,-0.31473748888389563
11.40099999999912,1.5883506005578865,-0.3504952933505805
11.60099999999901,1.6168298287089855,-0.3808274749582259
11.800999999998899,1.6431531480477506,-0.412099080457345
12.000999999998788,1.6758332533931954,-0.4434963173401278
12.200999999998677,1.7107714036641786,-0.47025613051776566
12.400999999998566,1.7362815250453254,-0.4931368738175677
12.600999999998455,1.7615823353499784,-0.5182049083534633
12.800999999998345,1.7935166652496388,-0.545233141904126
13.000999999998234,1.8268268944901191,-0.5701309925424394
13.200999999998123,1.8602114887319834,-0.5901595283364183
13.400999999998012,1.883072146804446,-0.6084601359490214
13.600999999997901,1.9001556765971586,-0.6267942380406886
13.80099999999779,1.9289846767991508,-0.6431196637540758
14.00099999999768,1.9636688668681388,-0.663748007719318
14.200999999997569,2.0037098663565494,-0.6898621300679525
14.400999999997458,2.0446190095278354,-0.71870894257147
14.600999999997347,2.091026472006497,-0.7471802201387165
14.800999999997236,2.1363171074623835,-0.772300914945444
15.000999999997125,2.1740598019733306,-0.7950865964282887
15.200999999997014,2.2217081918988684,-0.811312471807349
15.400999999996904,2.2606098809870963,-0.8324372502970601
15.600999999996793,2.2982025449231536,-0.8586969153339366
15.800999999996682,2.323951091604493,-0.88807449150159
16.000999999996573,2.3558615991306877,-0.9211367195728845
16.200999999996817,2.389453964290708,-0.9524466203916776
16.40099999999706,2.4117118110036038,-0.9878876936893333
16.600999999997306,2.4457811215788405,-1.0262739030276093
16.80099999999755,2.490457372813169,-1.0571084013037177
17.000999999997795,2.5309278183234882,-1.071679593469732
17.20099999999804,2.5764544732152306,-1.0908646998664813
17.400999999998284,2.611229337618539,-1.108735564320398
17.60099999999853,2.64214634482378,-1.1174402674840265
17.800999999998773,2.680800235605926,-1.1174554372644494
18.000999999999017,2.728052757313476,-1.1130550791321152
18.20099999999926,2.785530705261103,-1.1083663273737403
18.400999999999506,2.827710473806194,-1.1032791093648813
18.60099999999975,2.8710619152473944,-1.1038122495435128
18.799999999999994,2.9104023177769016,-1.1036513365219605
19.000000000000238,2.9487663850079913,-1.1116821229988278
19.200000000000482,2.9836078743622885,-1.1318404536355617
19.400000000000727,3.026925413576454,-1.1601696564917712
19.60000000000097,3.0780989591975803,-1.1965395138432122
19.800000000001216,3.121800579552695,-1.235703699647782
20.00000000000146,3.156662275623233,-1.2685489268062784
