Time (s),X (m),Y (m)
0.001,-0.0005698399629515257,-0.0006628221997479689
0.20000000000000015,0.004079276829856389,0.0023356964717649678
0.4000000000000003,0.005936978469818468,0.0020382386972499908
0.6000000000000004,0.009356245225216523,0.003240456393369581
0.8000000000000006,0.012243285314321568,0.004618468075468971
1.0000000000000007,0.016230651583530327,0.0068159183078746926
1.2009999999999785,0.020991001515127387,0.010166768904117263
1.4009999999999565,0.025841377384769312,0.012554248768465621
1.6009999999999345,0.03117096217938447,0.015288630045447981
1.8009999999999124,0.035974494325974285,0.01826453071345209
2.0009999999998906,0.0411934169604478,0.021729904564651136
2.2009999999998686,0.0467543447571954,0.023971677017397473
2.4009999999998466,0.05103692342381809,0.025918221107041197
2.6009999999998246,0.056527194400505645,0.031045188203478565
2.8009999999998025,0.061278328967430136,0.03479872113208406
3.0009999999997805,0.0663315161253906,0.03911556579472547
3.2009999999997585,0.07168785333595323,0.04368609375423316
3.4009999999997365,0.07638425595880012,0.04623395463873868
3.6009999999997144,0.08166214717994486,0.05258065854592512
3.8009999999996924,0.08678168113253489,0.05839035039602376
4.000999999999671,0.09176199238481746,0.06310232955243333
4.200999999999738,0.09640684869389148,0.06814410370538947
4.400999999999804,0.10051494061030206,0.07309363685897825
4.600999999999871,0.10381102744163352,0.07816387428844646
4.800999999999938,0.10751577416602322,0.08337962706013305
5.000000000000004,0.11028278699982803,0.08869682175685677
5.200000000000071,0.11276598073502264,0.0954925075493283
5.400000000000138,0.11472413922947909,0.10084257839438472
5.600000000000205,0.11621159080224733,0.10602030369118734
5.800000000000272,0.11766471350046505,0.11059510244428887
6.000000000000338,0.11846008911484669,0.11601252270765929
6.200000000000405,0.11934345038864871,0.12277108406006802
6.400000000000472,0.11969184292356638,0.12991954749379075
6.600000000000539,0.11923630627924839,0.13784449973560906
6.800000000000606,0.11878358460748255,0.1453286133388621
7.000000000000672,0.1179731494105916,0.15174495935008886
7.200000000000739,0.1168043200509538,0.15832294847315873
7.400000000000806,0.11428621310940316,0.16619869521028346
7.600000000000873,0.11270848586269544,0.17292915966059105
7.8000000000009395,0.10924073115658678,0.18121561829682406
8.000000000001005,0.10626095521701655,0.1883705171000748
8.200000000000895,0.1032911890710188,0.1959392610247634
8.400000000000784,0.10077082287348706,0.20248725431918876
8.600000000000673,0.09751086820363375,0.2096966500805383
8.800000000000562,0.09309262350787424,0.21635673711070844
9.000000000000451,0.08971812104795468,0.22342704618231232
9.20000000000034,0.08472607972635836,0.23016601018554012
9.40000000000023,0.0802205706245207,0.23696520665145343
9.600000000000119,0.07510260244117044,0.24321986908349041
9.800000000000008,0.06993042613675826,0.25029710702683045
10.000999999999896,0.06506616865564073,0.25649068191280194
10.200999999999786,0.059691622894930185,0.26204321848806256
10.400999999999675,0.05414577696973846,0.2671645023711945
10.600999999999564,0.050068403663422176,0.27106796368337704
10.800999999999453,0.04520220274019592,0.27592142365096367
11.000999999999342,0.04008610851472452,0.28036539059715976
11.200999999999231,0.033528047629969256,0.2844419225640749
11.40099999999912,0.02665957234797586,0.28855074618344023
11.60099999999901,0.01946355577349614,0.29189301002177664
11.800999999998899,0.01474972864816802,0.29386937366210225
12.000999999998788,0.01008990057564065,0.2957944125801585
12.200999999998677,0.0036298919121692972,0.29692565863231934
12.400999999998566,-0.0025037545135758463,0.29809331707772313
12.600999999998455,-0.007711203016945178,0.2988806675525784
12.800999999998345,-0.015255443171354988,0.2991557937921266
13.000999999998234,-0.021832632885086665,0.29880470649940294
13.200999999998123,-0.02791880339866036,0.2978427892303509
13.400999999998012,-0.03500203675478478,0.29620135171334316
13.600999999997901,-0.042691392000180656,0.2943500584782371
13.80099999999779,-0.048967710388406985,0.2922858752705903
14.00099999999768,-0.05792657307491688,0.2901739786323405
14.200999999997569,-0.06516300700977784,0.28786158228367564
14.400999999997458,-0.07118687530842228,0.28638922957761304
14.600999999997347,-0.07904964240394476,0.28294636556506403
14.800999999997236,-0.08780254627144386,0.27846003259988594
15.000999999997125,-0.09577752037009027,0.2743289461899047
15.200999999997014,-0.10345615996412283,0.26989434789242456
15.400999999996904,-0.11026715738075993,0.26536485363679074
15.600999999996793,-0.11670428790089134,0.26023367107580214
15.800999999996682,-0.12419235616533927,0.2550311344649972
16.000999999996573,-0.13004050084027566,0.24987690524002876
16.200999999996817,-0.13611240513036416,0.24483242369557778
16.40099999999706,-0.14177702643865908,0.24016116288633751
16.600999999997306,-0.1463181300995832,0.23564640604738382
16.80099999999755,-0.15145744516089849,0.23040835521091188
17.000999999997795,-0.15674076431942593,0.22416441446225607
17.20099999999804,-0.16087492156543884,0.21898513579158682
17.400999999998284,-0.16476106056538,0.21500849584673862
17.60099999999853,-0.16905215578829066,0.20829748329619072
17.800999999998773,-0.17121557658145295,0.2044530004551892
18.000999999999017,-0.1738731968760399,0.19955923744058468
18.20099999999926,-0.17624147312581454,0.19454319779652615
18.400999999999506,-0.1783997323467847,0.18992788148586603
18.60099999999975,-0.18015375945729079,0.18430731447352244
18.799999999999994,-0.1809123814578987,0.17920255333573196
19.000000000000238,-0.18147902536741362,0.17117315619321227
19.200000000000482,-0.18151265745285836,0.16499529300767402
19.400000000000727,-0.18122295196022967,0.15787908429853842
19.60000000000097,-0.18069953108234407,0.1506359816586382
19.800000000001216,-0.1792035212328256,0.1436647351073293
20.00000000000146,-0.17790511738511242,0.1355741866445349
