Time (s),X (m),Y (m)
0.001,0.0008115346074009382,0.0008446836120385872
0.20000000000000015,0.00013864979070476194,-0.0010039537159332688
0.4000000000000003,7.190276919839904e-05,-0.0018422300364629406
0.6000000000000004,0.001263945067118406,-0.0018758296683207543
0.8000000000000006,0.006415515974585671,0.001596456668249441
1.0000000000000007,0.013855255040834177,0.005371905698262645
1.2009999999999785,0.021831544263485745,0.010448296009806101
1.4009999999999565,0.0284795812142019,0.014788874693951867
1.6009999999999345,0.03280002665651373,0.01776646582367162
1.8009999999999124,0.03519457585851705,0.01950430242991899
2.0009999999998906,0.03727994675701123,0.021045057011814475
2.2009999999998686,0.03921010725128325,0.02251930300084275
2.4009999999998466,0.04203223305193441,0.02325887913252905
2.6009999999998246,0.043674233954576695,0.024480583376592306
2.8009999999998025,0.045898466252940716,0.02631685509467377
3.0009999999997805,0.047797308544159936,0.02795884688391661
3.2009999999997585,0.04934745281633014,0.029336157432395194
3.4009999999997365,0.05108466980897932,0.031284586397962034
3.6009999999997144,0.05290341269219564,0.03418521059901227
3.8009999999996924,0.054448547714604195,0.03562860675359038
4.000999999999671,0.05562859347281976,0.03791512712289023
4.200999999999738,0.056991840554758505,0.04026622642220294
4.400999999999804,0.05817745077330677,0.042471009901082324
4.600999999999871,0.05858708289892123,0.04470173820873197
4.800999999999938,0.0589879851101755,0.04595724435356752
5.000000000000004,0.059137494681548275,0.04761082550721391
5.200000000000071,0.05954828805844389,0.049280588782809186
5.400000000000138,0.05974615744544671,0.051805175221366656
5.600000000000205,0.06015147571157803,0.053670022217566886
5.800000000000272,0.06024554932944091,0.055032899352104724
6.000000000000338,0.06018219868187187,0.05822925760841341
6.200000000000405,0.060081764129595865,0.05907555892701523
6.400000000000472,0.05981856089278315,0.06118471285240175
6.600000000000539,0.060116482892058336,0.06225699223297839
6.800000000000606,0.0601091776676541,0.06315198902898778
7.000000000000672,0.05988229307734844,0.06567672217069291
7.200000000000739,0.05973322643877887,0.06685249633315421
7.400000000000806,0.05948324218378612,0.0696485940568304
7.600000000000873,0.059195058882130225,0.07057624720244962
7.8000000000009395,0.0584356266395628,0.07357013265280134
8.000000000001005,0.058307570979002514,0.07528247807220816
8.200000000000895,0.05793150017979135,0.07684085824219367
8.400000000000784,0.057493405517896966,0.07927071576402187
8.600000000000673,0.05685027816982353,0.08177576895777519
8.800000000000562,0.05558277878169601,0.08429822603634818
9.000000000000451,0.055275791252454264,0.08599879277538797
9.20000000000034,0.0543854621996839,0.08857532693688988
9.40000000000023,0.0537113885642815,0.09112680874287235
9.600000000000119,0.05256099469605726,0.09390119026723766
9.800000000000008,0.0520977016009028,0.09638799434055967
10.000999999999896,0.05134891457936271,0.0988491953801345
10.200999999999786,0.05025944267994673,0.1017064479569336
10.400999999999675,0.049421742438872575,0.10448673700859222
10.600999999999564,0.04836611817333447,0.10696551186082452
10.800999999999453,0.04721950508095829,0.10924806380314217
11.000999999999342,0.04569604097806199,0.11101154757169153
11.200999999999231,0.044016884192308765,0.11293725412301739
11.40099999999912,0.04270496320824239,0.11471802553691116
11.60099999999901,0.04165135964819997,0.11747924110169518
11.800999999998899,0.039778015348752596,0.11925765911997989
12.000999999998788,0.038306059271599836,0.12092879039233632
12.200999999998677,0.03654387862944273,0.1227554315821216
12.400999999998566,0.034719562469041586,0.1245929281691297
12.600999999998455,0.03293683873491298,0.1263750002204086
12.800999999998345,0.031256049616457046,0.1281299329133782
13.000999999998234,0.02958024133523332,0.12973479928976378
13.200999999998123,0.027647352105648206,0.13078733754279692
13.400999999998012,0.025586939708296397,0.1318228715964161
13.600999999997901,0.0236027921516421,0.13262444054647157
13.80099999999779,0.022014000553142624,0.1335278763236873
14.00099999999768,0.02003148942664724,0.13432433393205573
14.200999999997569,0.018914739063806092,0.13528200884499486
14.400999999997458,0.01640426698551434,0.13595263394588245
14.600999999997347,0.013987336279907756,0.13637231978819273
14.800999999997236,0.01143266347409449,0.13643133382558392
15.000999999997125,0.009011785624512726,0.13664161554400428
15.200999999997014,0.0071646639507993125,0.13733566319001428
15.400999999996904,0.005499415488402054,0.13760067583333543
15.600999999996793,0.0028160979227638276,0.13797345013071147
15.800999999996682,0.0005025049765905674,0.1382362090289683
16.000999999996573,-0.0037851104529507172,0.13802483419436723
16.200999999996817,-0.005391111842181453,0.13805520034232255
16.40099999999706,-0.008692723053167293,0.13774998175699688
16.600999999997306,-0.010581477191969259,0.1373428601788193
16.80099999999755,-0.011910701647678712,0.13731092441051487
17.000999999997795,-0.015162495584933948,0.13677956965451016
17.20099999999804,-0.016698153653163048,0.13694505669500182
17.400999999998284,-0.018459027418275483,0.13649877102034236
17.60099999999853,-0.020604362176096368,0.13549283893486164
17.800999999998773,-0.023319664844018477,0.13412839586532407
18.000999999999017,-0.025969544132387275,0.13318827612721623
18.20099999999926,-0.028299868203928106,0.13219112556677493
18.400999999999506,-0.031135608587278457,0.13156216919486083
18.60099999999975,-0.033441186142962966,0.13099381261049656
18.799999999999994,-0.03590703566501539,0.1305217372305193
19.000000000000238,-0.03873187365944945,0.1294642607020101
19.200000000000482,-0.04147467131159295,0.12842168639158894
19.400000000000727,-0.04425233635278237,0.12742015329278583
19.60000000000097,-0.04616104338985075,0.1262974422075904
19.800000000001216,-0.04830842611749538,0.12484082718789001
20.00000000000146,-0.050592613202297965,0.12360845361674141
