Time (s),X (m),Y (m)
0.001,0.0011890620069237587,-0.00035268032603768894
0.20000000000000015,0.0007432863158971043,5.0482593749882786e-05
0.4000000000000003,0.0020947724059001967,-0.0004893120734739728
0.6000000000000004,0.007352766019233231,-1.7703679770713548e-05
0.8000000000000006,0.01772679296730329,-0.004577900560532012
1.0000000000000007,0.0260241642409516,-0.006379141740808952
1.2009999999999785,0.030692810970320023,0.0014195162110297384
1.4009999999999565,0.04939990473066147,0.008308265045509959
1.6009999999999345,0.06104079312342914,0.009168726385810667
1.8009999999999124,0.07721607788275064,0.005904178732052233
2.0009999999998906,0.09532936751996825,0.001320941550980814
2.2009999999998686,0.10891868778261689,-0.007082063725382746
2.4009999999998466,0.12695776780404114,-0.018445831773436856
2.6009999999998246,0.15030441590444693,-0.03221519506530908
2.8009999999998025,0.1669845630969445,-0.03737065950345034
3.0009999999997805,0.18798360374296216,-0.05032514549403875
3.2009999999997585,0.20956787281623712,-0.0691139639257656
3.4009999999997365,0.23215834373488067,-0.07778353901079467
3.6009999999997144,0.25159630559527657,-0.09314049964161285
3.8009999999996924,0.26407877027483806,-0.10439690176061518
4.000999999999671,0.2724733082347071,-0.12199565223090932
4.200999999999738,0.2764131296131743,-0.1360717294387539
4.400999999999804,0.2864974730512338,-0.1483089046678695
4.600999999999871,0.2905719833715699,-0.17346396760923474
4.800999999999938,0.2932154639859559,-0.1943067938183333
5.000000000000004,0.29607993913032843,-0.21196940958989155
5.200000000000071,0.2922815360996137,-0.23907998287430546
5.400000000000138,0.28447758123363864,-0.26215985467038444
5.600000000000205,0.277330271705967,-0.2909223582431605
5.800000000000272,0.2727024626415136,-0.31877237487337085
6.000000000000338,0.26822364267534676,-0.33957040201458566
6.200000000000405,0.2691894794343272,-0.35873834903170027
6.400000000000472,0.2643591772575061,-0.3940928701958685
6.600000000000539,0.2557523301851173,-0.42061118070552106
6.800000000000606,0.2490660940821535,-0.4459715093320819
7.000000000000672,0.24836674754171675,-0.46875610428874337
7.200000000000739,0.24547002859027753,-0.49731064592985896
7.400000000000806,0.2383119997165339,-0.5381840836935418
7.600000000000873,0.22823318933153885,-0.562649400217834
7.8000000000009395,0.21773826252844147,-0.5894041135765085
8.000000000001005,0.20472276853125698,-0.6260054828666867
8.200000000000895,0.19139092230178908,-0.6659619580458064
8.400000000000784,0.1767592982083991,-0.70222669182051
8.600000000000673,0.17081823022142323,-0.7296946814781264
8.800000000000562,0.16389958041458022,-0.7519623735745848
9.000000000000451,0.14919309217859286,-0.7821439745273294
9.20000000000034,0.13752052767280504,-0.8144709802005233
9.40000000000023,0.11604848516554797,-0.8452208594000402
9.600000000000119,0.09033394616144813,-0.8753147792246451
9.800000000000008,0.06706253176403645,-0.9006733522597979
10.000999999999896,0.037642931474793626,-0.9268744275654823
10.200999999999786,0.0042812523876903635,-0.946774380967503
10.400999999999675,-0.021322828332769297,-0.955497987339759
10.600999999999564,-0.05300955499599051,-0.9518896807239979
10.800999999999453,-0.07840579751926188,-0.945558805086433
11.000999999999342,-0.09893955422910182,-0.9432497657769846
11.200999999999231,-0.12545969030717796,-0.9454911889262907
11.40099999999912,-0.16487660000955262,-0.936050040680096
11.60099999999901,-0.1954838220743647,-0.9237187171484668
11.800999999998899,-0.218635078310353,-0.9098328677601331
12.000999999998788,-0.2421800474924134,-0.9003972133632823
12.200999999998677,-0.2687631340440913,-0.8811155184545431
12.400999999998566,-0.3067786577231187,-0.8657647840344326
12.600999999998455,-0.3353906120443501,-0.8568724092445109
12.800999999998345,-0.36538166731985805,-0.8328392418329739
13.000999999998234,-0.3934058443318818,-0.8193353093193217
13.200999999998123,-0.417785059460691,-0.8061903133692752
13.400999999998012,-0.44099349657512826,-0.7953337175697462
13.600999999997901,-0.45899499111779096,-0.772588328680941
13.80099999999779,-0.47280009849112803,-0.7546117892799412
14.00099999999768,-0.4786844221610056,-0.7281301940022082
14.200999999997569,-0.4862436771320658,-0.7043014438465246
14.400999999997458,-0.4913459067126067,-0.6814447795389342
14.600999999997347,-0.4941689859373514,-0.654037832399929
14.800999999997236,-0.5004321954148809,-0.6288228000894424
15.000999999997125,-0.49596670480295285,-0.5975269156296356
15.200999999997014,-0.4927203343115634,-0.5693176466884723
15.400999999996904,-0.48729982545419404,-0.5481365390792232
15.600999999996793,-0.48653191785215283,-0.5281438095366092
15.800999999996682,-0.4800562980062086,-0.4999065762890519
16.000999999996573,-0.46733039548589056,-0.46217200788446117
16.200999999996817,-0.4523578595646975,-0.4197248441839015
16.40099999999706,-0.4368917138912809,-0.3802303967555853
16.600999999997306,-0.4147838714737123,-0.33819261747117574
16.80099999999755,-0.3936684458406758,-0.30121726309763175
17.000999999997795,-0.3790402056500961,-0.2700897298076178
17.20099999999804,-0.3595060986513914,-0.2359641927522659
17.400999999998284,-0.35062842758145657,-0.20474810876861135
17.60099999999853,-0.33808774065466884,-0.17478030428208277
17.800999999998773,-0.32888591937630485,-0.15206097608949382
18.000999999999017,-0.31211532586284124,-0.13446121844730943
18.20099999999926,-0.28738055903863935,-0.10661543409717132
18.400999999999506,-0.2591569862837234,-0.07955701390685463
18.60099999999975,-0.23046987956254417,-0.04884850680694706
18.799999999999994,-0.19043852424157517,-0.017972343024264308
19.000000000000238,-0.14828226240601367,-0.000609950535164848
19.200000000000482,-0.1229050908616083,0.0047830615952883385
19.400000000000727,-0.08238831369216418,-0.0045621869040631275
19.60000000000097,-0.04286984119734429,-0.015663909122472796
19.800000000001216,-0.0063713780248232255,-0.026714915823546587
20.00000000000146,0.02876045807869167,-0.044263777988777356
