Time (s),X (m),Y (m)
0.001,0.0009492268646305597,0.0007291460897812449
0.20000000000000015,0.0012283060781128352,-0.00032555374113923377
0.4000000000000003,0.003133682593853688,-0.008006697551569783
0.6000000000000004,0.008852729186237557,-0.017040914559147642
0.8000000000000006,0.026117795087969672,-0.012213689699539197
1.0000000000000007,0.045983498476249864,-0.007491503573284098
1.2009999999999785,0.07192846939652324,-0.0006039929394806687
1.4009999999999565,0.10358775105693677,0.0018230925350493754
1.6009999999999345,0.14118760845123682,0.0003689643666937661
1.8009999999999124,0.17588070992764318,-0.012137458203425657
2.0009999999998906,0.19821474475966816,-0.03265602089130376
2.2009999999998686,0.20842415898551225,-0.05750280397370889
2.4009999999998466,0.22059020638787794,-0.08434215683562503
2.6009999999998246,0.2367481616733403,-0.11365309996877765
2.8009999999998025,0.24322139964524284,-0.14163753073934157
3.0009999999997805,0.2574932428880311,-0.1816851798864937
3.2009999999997585,0.2802181753215543,-0.2338065732995421
3.4009999999997365,0.31470232689649175,-0.29763150751189166
3.6009999999997144,0.34810267085305524,-0.35951872097969245
3.8009999999996924,0.37955663903151643,-0.4183779119441483
4.000999999999671,0.4125944476143016,-0.4750746252576584
4.200999999999738,0.4566306087109082,-0.5331892829756506
4.400999999999804,0.504412224760122,-0.5925350425076001
4.600999999999871,0.5592169767415807,-0.6526854393758434
4.800999999999938,0.616368398267009,-0.7155024843477018
5.000000000000004,0.6804474455375663,-0.7813830058782609
5.200000000000071,0.74533608213006,-0.8483436996429728
5.400000000000138,0.8024982459915528,-0.9150803799180691
5.600000000000205,0.861696215122486,-0.9760905273660472
5.800000000000272,0.9210966196931849,-1.028706922383296
6.000000000000338,0.9780752109793411,-1.0797352527567994
6.200000000000405,1.0456942864617396,-1.1301031912361923
6.400000000000472,1.1132009330556,-1.1785537853302614
6.600000000000539,1.1824881605130066,-1.2226542397581963
6.800000000000606,1.2367846095537174,-1.2612254450470295
7.000000000000672,1.2719851319755346,-1.3038442300433801
7.200000000000739,1.307938548931134,-1.352782958850988
7.400000000000806,1.3490886719647253,-1.4046565882576258
7.600000000000873,1.3867477022789876,-1.4585489555795208
7.8000000000009395,1.4280151443873956,-1.5145145987491893
8.000000000001005,1.485011150242223,-1.5802088780391619
8.200000000000895,1.545161093374391,-1.6576152867250813
8.400000000000784,1.5910652532109477,-1.7400413877075669
8.600000000000673,1.6180839004837582,-1.8232978257554786
8.800000000000562,1.6136511244286529,-1.9175745585723916
9.000000000000451,1.5859582334660396,-2.0073128855792275
9.20000000000034,1.555621866783424,-2.0991684026337567
9.40000000000023,1.5265361741646113,-2.175493921182688
9.600000000000119,1.4944205647462465,-2.240627181774983
9.800000000000008,1.4639070941395445,-2.2931584974709462
10.000999999999896,1.437806504147714,-2.3588265661335206
10.200999999999786,1.4131787377879994,-2.407923004767243
10.400999999999675,1.3786011616649416,-2.449865747663699
10.600999999999564,1.3298565040958632,-2.5013325155663506
10.800999999999453,1.268720034199532,-2.5621117856561235
11.000999999999342,1.203079996926092,-2.6183838067973904
11.200999999999231,1.1385944729254056,-2.6731950372942874
11.40099999999912,1.0777210903924943,-2.722266026255618
11.60099999999901,1.0108784105967643,-2.7624143563410786
11.800999999998899,0.9439273846142221,-2.81566085289922
12.000999999998788,0.8759432060481406,-2.847064793067562
12.200999999998677,0.8179431364404356,-2.866195010532859
12.400999999998566,0.7675652969993674,-2.903266276912495
12.600999999998455,0.7226186022453873,-2.9645584168666015
12.800999999998345,0.6749924426555723,-3.023231014305991
13.000999999998234,0.6270857081609978,-3.075291769682616
13.200999999998123,0.5757483342673195,-3.128971384468368
13.400999999998012,0.5277529995972392,-3.199244989917651
13.600999999997901,0.48526165032295854,-3.266367065778807
13.80099999999779,0.430367108168635,-3.318085043908102
14.00099999999768,0.36854495576577634,-3.364092967307338
14.200999999997569,0.3011916217441807,-3.4188035017687453
14.400999999997458,0.23498077947112095,-3.484454941719831
14.600999999997347,0.17817153450281228,-3.554607198900755
14.800999999997236,0.12591200596193056,-3.629015307823673
15.000999999997125,0.07279094667755452,-3.7126458604806
15.200999999997014,0.014403342589236635,-3.7884838385921604
15.400999999996904,-0.04518178836696643,-3.8723572810667153
15.600999999996793,-0.10319595598568501,-3.9599739992552574
15.800999999996682,-0.16167311389049294,-4.046833465739815
16.000999999996573,-0.2131947636088681,-4.131688500441801
16.200999999996817,-0.24921918304333043,-4.22354122906354
16.40099999999706,-0.28375572359334383,-4.30448621155377
16.600999999997306,-0.3150805724900867,-4.378682043893572
16.80099999999755,-0.33827524085197697,-4.447588169778798
17.000999999997795,-0.35817078562074683,-4.508615227790294
17.20099999999804,-0.3796045919847933,-4.5754841330073965
17.400999999998284,-0.40812864580872465,-4.649992788598353
17.60099999999853,-0.43435357085863796,-4.724851299172249
17.800999999998773,-0.4579629696202101,-4.784801111236531
18.000999999999017,-0.4805793127527153,-4.858713346602047
18.20099999999926,-0.5006968583968681,-4.934029145925818
18.400999999999506,-0.5277715691457436,-5.014868845008234
18.60099999999975,-0.564108727249168,-5.089529895436925
18.799999999999994,-0.6101025785549338,-5.160835856749267
19.000000000000238,-0.6685283584863391,-5.241532390303126
19.200000000000482,-0.7327944422485498,-5.30834347976138
19.400000000000727,-0.797038694409654,-5.366849038967424
19.60000000000097,-0.8649962594082697,-5.4238480803465
19.800000000001216,-0.9404754774601489,-5.476999273206317
20.00000000000146,-1.0085374041882214,-5.520952573356885
