Time (s),X (m),Y (m)
0.001,0.0003991412691229187,0.0010155025257856582
0.20000000000000015,0.0031786089855534287,-0.003173418255467824
0.4000000000000003,0.019751729882586975,0.0013530853123204475
0.6000000000000004,0.0444562497288765,-0.0016389157713504671
0.8000000000000006,0.08195586120131076,-0.016575690689950413
1.0000000000000007,0.1202090373261419,-0.04878972471220862
1.2009999999999785,0.13778050080431065,-0.09101674011915167
1.4009999999999565,0.14580702449803046,-0.13583156676378527
1.6009999999999345,0.16104525000971492,-0.19044969964197284
1.8009999999999124,0.17965529695060914,-0.25489998460785124
2.0009999999998906,0.20123271844253546,-0.3233060992997278
2.2009999999998686,0.21411063624995302,-0.3970245830867933
2.4009999999998466,0.21615420825905238,-0.4712558047541659
2.6009999999998246,0.21441296313184707,-0.5597966785992126
2.8009999999998025,0.21757139156134117,-0.6469559515666686
3.0009999999997805,0.21768952684236087,-0.7285701456883714
3.2009999999997585,0.21218540029592775,-0.808505222611893
3.4009999999997365,0.19925637902538054,-0.8648561257451071
3.6009999999997144,0.169324232868568,-0.9090305805334467
3.8009999999996924,0.11777423487848318,-0.938269671162921
4.000999999999671,0.05192587778921546,-0.9558279231506246
4.200999999999738,-0.014235540915274129,-0.9675377292359825
4.400999999999804,-0.08652525660841051,-0.9707455501839903
4.600999999999871,-0.16005969315185023,-0.9690728457455107
4.800999999999938,-0.22648725530710448,-0.9546178445304664
5.000000000000004,-0.2732893779523818,-0.9254108754302074
5.200000000000071,-0.29040485118512105,-0.8880291125203775
5.400000000000138,-0.2968639932120221,-0.8259229837799336
5.600000000000205,-0.29615400198600245,-0.7489461397048482
5.800000000000272,-0.29635444040792,-0.6714898519150942
6.000000000000338,-0.3145846357202891,-0.581701357244746
6.200000000000405,-0.33045573552145513,-0.49564696861588053
6.400000000000472,-0.3479606359637492,-0.41420514166576866
6.600000000000539,-0.3676818724547729,-0.32230798110452613
6.800000000000606,-0.3870908101295667,-0.2521817588386179
7.000000000000672,-0.3712688082829325,-0.1974689069606715
7.200000000000739,-0.3222668460155388,-0.14558591418293446
7.400000000000806,-0.27658830398870765,-0.1183065677861732
7.600000000000873,-0.24653101726342883,-0.11750790693381193
7.8000000000009395,-0.2236792494176035,-0.1393062030165371
8.000000000001005,-0.2009667112842889,-0.1691800886648679
8.200000000000895,-0.19355592124453064,-0.1942220379342116
8.400000000000784,-0.20738072457394333,-0.23746270851090984
8.600000000000673,-0.24571922072421554,-0.2987492098095085
8.800000000000562,-0.3101036926548526,-0.3496565871108603
9.000000000000451,-0.3834540429743416,-0.3762755555171541
9.20000000000034,-0.4468683425139697,-0.385458354675078
9.40000000000023,-0.5003113659543741,-0.3764829338340564
9.600000000000119,-0.5707167900685796,-0.35302753508367557
9.800000000000008,-0.6337895294615152,-0.3167580949087814
10.000999999999896,-0.6917520697094963,-0.2609204985353887
10.200999999999786,-0.7460078872338507,-0.19191142556025736
10.400999999999675,-0.7836288620255537,-0.12268694768321023
10.600999999999564,-0.7997355799091208,-0.06649668176556403
10.800999999999453,-0.7998810126422985,-0.020196864889982607
11.000999999999342,-0.7646928074377779,0.016223738708570724
11.200999999999231,-0.7236158576227667,0.0452566828373638
11.40099999999912,-0.6705188846271986,0.08827000746412565
11.60099999999901,-0.6130758331105122,0.12926426480758946
11.800999999998899,-0.5529194314830839,0.16916316398370837
12.000999999998788,-0.4788471205427412,0.21408428387618272
12.200999999998677,-0.40595457826467163,0.2505381155111564
12.400999999998566,-0.34478403819634096,0.26515430741313384
12.600999999998455,-0.2953577708054668,0.26473478976662934
12.800999999998345,-0.2537325893500322,0.24442239299829385
13.000999999998234,-0.20736355093467945,0.20724487168941194
13.200999999998123,-0.17059969397067132,0.16311458971584722
13.400999999998012,-0.15235266665943017,0.10294175461011483
13.600999999997901,-0.14956721036450518,0.03643159738056933
13.80099999999779,-0.18735940808625665,-0.027608594083171244
14.00099999999768,-0.2556704807430501,-0.07728703771804811
14.200999999997569,-0.33171712366197736,-0.11140157819566218
14.400999999997458,-0.4101377029689668,-0.13497142441876953
14.600999999997347,-0.483708537576657,-0.1413543273756267
14.800999999997236,-0.5439782393551715,-0.12840865093036957
15.000999999997125,-0.5945251245000185,-0.095984355900412
15.200999999997014,-0.6364572650325688,-0.05021969947539452
15.400999999996904,-0.659894242080259,-0.008057756126276789
15.600999999996793,-0.6725061495036181,0.04068754213238662
15.800999999996682,-0.6571666460275851,0.08097433308991406
16.000999999996573,-0.6238392912048697,0.1111491066573911
16.200999999996817,-0.5816372698876292,0.11752258509399717
16.40099999999706,-0.5510610679006978,0.10127460440821574
16.600999999997306,-0.5346909357570656,0.06160240400805272
16.80099999999755,-0.5327018135498954,0.012555515505169965
17.000999999997795,-0.5350001094317106,-0.03513944745480702
17.20099999999804,-0.5479889532842415,-0.08418018849457357
17.400999999998284,-0.579298430457607,-0.1325710015084713
17.60099999999853,-0.6301817876727231,-0.16297972295375712
17.800999999998773,-0.6957831516220653,-0.16882555298606125
18.000999999999017,-0.7486358635274271,-0.14361578317540347
18.20099999999926,-0.7727421856971102,-0.0950836818478052
18.400999999999506,-0.789144573349493,-0.03671518406909085
18.60099999999975,-0.7982176007423532,0.03533443334434931
18.799999999999994,-0.808648175338423,0.11702203888694974
19.000000000000238,-0.8211801564547984,0.2046677774433172
19.200000000000482,-0.8328454607278175,0.29205666745532766
19.400000000000727,-0.8340561603499754,0.37771445178541113
19.60000000000097,-0.8301379317607341,0.45446064536693004
19.800000000001216,-0.8029075642564214,0.5087733215407707
20.00000000000146,-0.7485581106852387,0.5494859737526891
