Time (s),X (m),Y (m)
0.001,0.0008829029745972832,-0.0007899207378008392
0.20000000000000015,0.00501011378815272,-0.00458271702957671
0.4000000000000003,0.007607330023826787,-0.007834060355489352
0.6000000000000004,0.011220031194447918,-0.007996940971811509
0.8000000000000006,0.018251137850329644,-0.010608152138476122
1.0000000000000007,0.023640580507315,-0.012267578162347458
1.2009999999999785,0.03338702935217653,-0.0136198686305004
1.4009999999999565,0.04440883966461531,-0.015405254341305644
1.6009999999999345,0.04712577509224612,-0.014410097695974941
1.8009999999999124,0.061019103972196335,-0.019262763404425377
2.0009999999998906,0.06669502875771564,-0.02082893338185869
2.2009999999998686,0.0751601342608925,-0.02180958478689133
2.4009999999998466,0.08649747752574284,-0.02302995865694147
2.6009999999998246,0.09138802319587092,-0.021674578777433562
2.8009999999998025,0.09879457528413102,-0.02300593774521988
3.0009999999997805,0.10536467362699266,-0.023361824662800817
3.2009999999997585,0.11279514045225775,-0.022567116848673376
3.4009999999997365,0.11920333819234442,-0.02201214081736496
3.6009999999997144,0.12521627141078603,-0.020097229631585074
3.8009999999996924,0.12960526880940113,-0.018201605496529084
4.000999999999671,0.13798802647520778,-0.015853449251181543
4.200999999999738,0.14560306730577566,-0.014942247756963418
4.400999999999804,0.1506317031594745,-0.013751531872157207
4.600999999999871,0.16328215758763742,-0.012573315968249996
4.800999999999938,0.16695320482578388,-0.009530133584999712
5.000000000000004,0.17663718116066793,-0.007947304906614107
5.200000000000071,0.18588142502747512,-0.006975637714561695
5.400000000000138,0.19403825163623714,-0.005445320105516902
5.600000000000205,0.1986987228686784,-0.0036753393569682207
5.800000000000272,0.20358199762927143,-0.00013698024867531356
6.000000000000338,0.2135706876936947,0.001957991905198257
6.200000000000405,0.22022443030341668,0.003339593317752195
6.400000000000472,0.2204792369319437,0.006180843750685506
6.600000000000539,0.2289853255267886,0.008241554756704754
6.800000000000606,0.23405942786148168,0.011062899884743098
7.000000000000672,0.23953572549153057,0.013313828164186862
7.200000000000739,0.24171779671952573,0.016810521701349578
7.400000000000806,0.24882077840401345,0.018643169945986755
7.600000000000873,0.25397904502252866,0.02090800101907518
7.8000000000009395,0.2627457505904094,0.023971536003798484
8.000000000001005,0.2690658447796302,0.027289342928673358
8.200000000000895,0.2717493580801772,0.030211725955350478
8.400000000000784,0.27737202430027985,0.03341144064074374
8.600000000000673,0.2838071492941466,0.034871217922584616
8.800000000000562,0.2919005895440419,0.03740695640562791
9.000000000000451,0.2978539333738266,0.041624052879660325
9.20000000000034,0.30233299259488283,0.04446654660238866
9.40000000000023,0.3075432780461798,0.04774390381723563
9.600000000000119,0.31142020618422195,0.05117548876605087
9.800000000000008,0.32078890922603404,0.05398059643162805
10.000999999999896,0.32542416396922397,0.057237033254084364
10.200999999999786,0.33321117303442666,0.05898606928731481
10.400999999999675,0.3391061875199792,0.062152064414871096
10.600999999999564,0.3454888027546491,0.06483106979493866
10.800999999999453,0.3505428813299616,0.0702773620682384
11.000999999999342,0.35677921561162795,0.07426587921511991
11.200999999999231,0.3597138408019339,0.07628031908150923
11.40099999999912,0.366783726509137,0.08206301860531148
11.60099999999901,0.37307605578378694,0.08770446563026471
11.800999999998899,0.3757554544452401,0.09268214436853542
12.000999999998788,0.37880469171525166,0.095981724141675
12.200999999998677,0.3854591647262721,0.09897855519176375
12.400999999998566,0.3882940092366884,0.10190997471406867
12.600999999998455,0.3951397550972995,0.10681427152216501
12.800999999998345,0.404913903572298,0.11132543775677375
13.000999999998234,0.4078465999010166,0.11429234068838712
13.200999999998123,0.41167715993422493,0.11884364018369051
13.400999999998012,0.41522398608209676,0.12272780059162497
13.600999999997901,0.4199285629996727,0.12580317383753245
13.80099999999779,0.42812511665617486,0.12750659028802475
14.00099999999768,0.43743989508958386,0.1325514997617802
14.200999999997569,0.442039094585885,0.13641121534618528
14.400999999997458,0.4464488574497068,0.13920533810841612
14.600999999997347,0.45373135620441407,0.14346274822205624
14.800999999997236,0.4593385942228604,0.14521739394695535
15.000999999997125,0.46575992834673624,0.14801979111876187
15.200999999997014,0.4697973219022245,0.14990984316425418
15.400999999996904,0.47595823323560127,0.15410677615101995
15.600999999996793,0.4811348557371403,0.15842823432743655
15.800999999996682,0.48744862725553256,0.16229938831247664
16.000999999996573,0.4943812682566104,0.16560650935907278
16.200999999996817,0.5016601525249856,0.16900170586450475
16.40099999999706,0.5076568756062593,0.17085080345921286
16.600999999997306,0.5166822916622007,0.1739914320838376
16.80099999999755,0.5219803780498747,0.17818394608708774
17.000999999997795,0.5323761460788982,0.18230589932290014
17.20099999999804,0.5364718974370442,0.18507195128113285
17.400999999998284,0.5419055996199337,0.1887646235715675
17.60099999999853,0.5457532961810745,0.19107804183949392
17.800999999998773,0.5502489201637513,0.19448464375418997
18.000999999999017,0.5575636580996495,0.19971527645466275
18.20099999999926,0.5561894728409885,0.20483336453624998
18.400999999999506,0.5650013738242456,0.20602870705143153
18.60099999999975,0.5746143299279795,0.20811254546428803
18.799999999999994,0.5782516889019333,0.2120790076910587
19.000000000000238,0.587096264716283,0.2155389898347298
19.200000000000482,0.5932472141971107,0.21826595453686393
19.400000000000727,0.5991448023012003,0.22185101030327217
19.60000000000097,0.6064312626277626,0.22573847388494378
19.800000000001216,0.6128952493479926,0.22947924477384002
20.00000000000146,0.6144109375551534,0.23334626090315852
