Time (s),X (m),Y (m)
0.001,-0.0006246028371892732,-0.0005914538325516239
0.20000000000000015,0.0027720355808115065,0.0008185389511602133
0.4000000000000003,0.004830562501754861,0.0004101194292948017
0.6000000000000004,0.006068503906275041,-0.00020958576767618028
0.8000000000000006,0.00832627570399362,0.00032654765581848025
1.0000000000000007,0.009375594354092201,0.0006871663053794748
1.2009999999999785,0.012005111874147918,0.0014646887775967479
1.4009999999999565,0.013999005060531868,0.0017552213910776938
1.6009999999999345,0.015659650667309916,0.0026354559190672503
1.8009999999999124,0.017540029807502043,0.0036410553518375706
2.0009999999998906,0.019245882105076512,0.004445283280802958
2.2009999999998686,0.02113275146482527,0.0056514170334143205
2.4009999999998466,0.02337302561984615,0.007019275273612306
2.6009999999998246,0.02580513388832963,0.009015162057744113
2.8009999999998025,0.027625347967245407,0.009794225025807813
3.0009999999997805,0.029925081917974754,0.01111212971222947
3.2009999999997585,0.03251916011556378,0.012866047187348557
3.4009999999997365,0.03464307940049386,0.015259345932292718
3.6009999999997144,0.03627172153985972,0.018163698610999646
3.8009999999996924,0.03795023391709761,0.021249479930667423
4.000999999999671,0.03951452801116149,0.024520907426273754
4.200999999999738,0.04127972567423006,0.028108068626550884
4.400999999999804,0.04279758302491965,0.03147879302770432
4.600999999999871,0.044240745916053405,0.034917452712207316
4.800999999999938,0.04565435679741279,0.03861986104175778
5.000000000000004,0.0470711667600172,0.042370881277172326
5.200000000000071,0.04818313317240117,0.04583548644115722
5.400000000000138,0.04918473000423677,0.04958915850646946
5.600000000000205,0.050259663564685045,0.053423474362212266
5.800000000000272,0.051091835089913225,0.05714458018558832
6.000000000000338,0.051799517165896806,0.06085971006609799
6.200000000000405,0.05231334749302162,0.06475696912390425
6.400000000000472,0.05272767680704562,0.06884018204083568
6.600000000000539,0.05307224014437973,0.07313127194740913
6.800000000000606,0.05331426821483037,0.07688783216304473
7.000000000000672,0.053480553909049135,0.08029885890203593
7.200000000000739,0.05348098772979587,0.08407600417155182
7.400000000000806,0.05348849659600795,0.08765210282596028
7.600000000000873,0.05332742418586919,0.09089416504408708
7.8000000000009395,0.053068423298504724,0.09429024831676436
8.000000000001005,0.052727908443870104,0.09728691406694773
8.200000000000895,0.052272821306619026,0.10045763327967983
8.400000000000784,0.052037319385361616,0.10287348977509479
8.600000000000673,0.05204024740935412,0.10529067760675011
8.800000000000562,0.05126733718336986,0.10845615725862652
9.000000000000451,0.05118911644310193,0.11084073048121808
9.20000000000034,0.05102611361226663,0.11274188878107351
9.40000000000023,0.05073873591684616,0.11461332096258481
9.600000000000119,0.05003601776553493,0.11664076161711828
9.800000000000008,0.049432687757409936,0.11863005221701824
10.000999999999896,0.04825816529992623,0.12101792805357324
10.200999999999786,0.047118191567976316,0.1234999308223025
10.400999999999675,0.045951738795695245,0.12622092211104108
10.600999999999564,0.044644404695628866,0.12855504831464754
10.800999999999453,0.04300224103686372,0.13099081379710445
11.000999999999342,0.04196383562174043,0.13372217360396949
11.200999999999231,0.04027854944027311,0.13626524289395517
11.40099999999912,0.03835437336409826,0.13899076473410704
11.60099999999901,0.03589006668361515,0.1416092392685057
11.800999999998899,0.03318140455701636,0.1442861114343062
12.000999999998788,0.030218473735392087,0.14685973701611665
12.200999999998677,0.02686383877051525,0.14961042827802803
12.400999999998566,0.023148973498206958,0.15255050603490686
12.600999999998455,0.019600150620722512,0.15502127166901747
12.800999999998345,0.015901296572296622,0.15748670866140432
13.000999999998234,0.011919556023403716,0.15994949539176556
13.200999999998123,0.007764387222907877,0.16246426574178996
13.400999999998012,0.003962596470607406,0.16463373468497833
13.600999999997901,0.0020849345462938215,0.1656792793817189
13.80099999999779,0.0026639929054131533,0.16646651984742714
14.00099999999768,0.0027582724795525014,0.16791213978968492
14.200999999997569,0.0028242228097091478,0.16941560182683876
14.400999999997458,0.003132018440001292,0.17006652124968719
14.600999999997347,0.0044428391703485535,0.1710027124508772
14.800999999997236,0.005636043045380726,0.17169735408581688
15.000999999997125,0.006976379022872274,0.17233880848703534
15.200999999997014,0.007995168429447736,0.17277128986571635
15.400999999996904,0.008570522903639657,0.17332883973799962
15.600999999996793,0.009092362886233413,0.17370927899749344
15.800999999996682,0.00931782132375515,0.17420329871099474
16.000999999996573,0.009569983479013614,0.17456404758185443
16.200999999996817,0.00899881054705395,0.17478791967845478
16.40099999999706,0.006353964198597947,0.17417784441048734
16.600999999997306,0.002668926080317862,0.173214962780062
16.80099999999755,-1.1039476763399007e-05,0.17250351464786035
17.000999999997795,-0.0029313064968717554,0.17176904496501874
17.20099999999804,-0.004832791754992818,0.17144361570243666
17.400999999998284,-0.006868321066710103,0.17096280523418028
17.60099999999853,-0.009218883735499627,0.170171337376736
17.800999999998773,-0.011314702816864473,0.17016130948260805
18.000999999999017,-0.013949964703113635,0.16945681079906397
18.20099999999926,-0.015915762676881273,0.1688479276668486
18.400999999999506,-0.01811056074081823,0.16787831606445283
18.60099999999975,-0.020063545686248144,0.16675341772634122
18.799999999999994,-0.02255113773209553,0.16554511262044558
19.000000000000238,-0.024615934251661975,0.1642500097059902
19.200000000000482,-0.027009870019171867,0.16261651744263464
19.400000000000727,-0.029415015791426396,0.16058373907877074
19.60000000000097,-0.03166755584900032,0.1586483446250948
19.800000000001216,-0.03396377293420391,0.1563682758720238
20.00000000000146,-0.03679115034117678,0.15328281620615772
