Time (s),X (m),Y (m)
0.001,0.0006558713247593165,0.0009345558501746678
0.20000000000000015,0.00356945852168684,-0.0013800921582586907
0.4000000000000003,0.02557177509640011,0.014276505420539765
0.6000000000000004,0.06806100844361,0.03005260546242237
0.8000000000000006,0.11629645038348868,0.03819196745851425
1.0000000000000007,0.15260548621009123,0.035378199559577606
1.2009999999999785,0.18490675994006417,0.0197700634074703
1.4009999999999565,0.21667718392220167,-0.01017018941458589
1.6009999999999345,0.24780513733917647,-0.05254450668117131
1.8009999999999124,0.273921790401898,-0.11170867831185775
2.0009999999998906,0.28983292971790203,-0.18065543804181877
2.2009999999998686,0.30192352646462745,-0.24278322027242372
2.4009999999998466,0.3078580319623622,-0.3150470109580774
2.6009999999998246,0.2990633782226972,-0.3889065636920485
2.8009999999998025,0.2761168944063524,-0.4394324046320929
3.0009999999997805,0.24486000819535156,-0.48833556928572047
3.2009999999997585,0.21236320185899424,-0.5310760534073434
3.4009999999997365,0.173045315894916,-0.5863578985335057
3.6009999999997144,0.13523237877243083,-0.6411239587452434
3.8009999999996924,0.09814187772375717,-0.6948286029663822
4.000999999999671,0.05992656206762758,-0.7305541432126788
4.200999999999738,0.01828843292712986,-0.7584990558317719
4.400999999999804,-0.027824790858267685,-0.7876291463082987
4.600999999999871,-0.06443021951127735,-0.829848247990894
4.800999999999938,-0.10380727343621343,-0.8704175468453049
5.000000000000004,-0.16099155755103947,-0.920999042173827
5.200000000000071,-0.22884764078937844,-0.9663966137409433
5.400000000000138,-0.28585537987876825,-0.9942955541020496
5.600000000000205,-0.3383852404912828,-0.9999456606037657
5.800000000000272,-0.3972153287442482,-0.9867527920411636
6.000000000000338,-0.446718389301553,-0.9562908320097497
6.200000000000405,-0.5022481068598834,-0.9051934688281593
6.400000000000472,-0.5611306893542083,-0.8412494554576073
6.600000000000539,-0.6220585934134134,-0.7804555164738322
6.800000000000606,-0.6787597066328857,-0.7274475860588733
7.000000000000672,-0.7353344948225099,-0.659746102678457
7.200000000000739,-0.7762271229466252,-0.5883983521705007
7.400000000000806,-0.7791862478381868,-0.5279865846230873
7.600000000000873,-0.7546669533413551,-0.4831700018357791
7.8000000000009395,-0.7014747747309785,-0.43396945705814144
8.000000000001005,-0.6367600499505581,-0.39456842237448553
8.200000000000895,-0.5722999095851846,-0.3634245945901444
8.400000000000784,-0.5062001339181843,-0.3409743133583327
8.600000000000673,-0.45026196989942824,-0.3430071112237893
8.800000000000562,-0.4035796342763668,-0.3774653991333213
9.000000000000451,-0.3601118005440712,-0.4405079686666743
9.20000000000034,-0.3250217537592702,-0.5164166241856657
9.40000000000023,-0.2998987187172181,-0.5786659585093324
9.600000000000119,-0.28957679293554706,-0.6413650773424904
9.800000000000008,-0.2774325894144088,-0.7264588328816238
10.000999999999896,-0.27213873421199813,-0.8055580789851324
10.200999999999786,-0.2959548114268838,-0.8707436394621924
10.400999999999675,-0.33451978624562656,-0.9101499939942703
10.600999999999564,-0.3588499978685063,-0.9154006239382636
10.800999999999453,-0.38989979094508964,-0.8940771363452856
11.000999999999342,-0.4082011121078555,-0.8606783938321003
11.200999999999231,-0.40910332257421284,-0.8081955358021252
11.40099999999912,-0.39531261649070687,-0.7764136224902712
11.60099999999901,-0.35486446798944893,-0.7489590409522514
11.800999999998899,-0.30067055536261983,-0.7117833936492198
12.000999999998788,-0.2393064730773323,-0.6589776581005554
12.200999999998677,-0.1753259083197865,-0.6010051231973538
12.400999999998566,-0.10768003372775486,-0.5580485240187705
12.600999999998455,-0.032674018393527994,-0.5182801281939291
12.800999999998345,0.04219161479098244,-0.48327477154534665
13.000999999998234,0.10461313190448965,-0.45160094665811945
13.200999999998123,0.1663307058289754,-0.4337317682943884
13.400999999998012,0.23080347829346978,-0.43487772930921376
13.600999999997901,0.28859962427991087,-0.4560400550618298
13.80099999999779,0.3620569763176813,-0.49302642402550884
14.00099999999768,0.43229502379981666,-0.544914407902324
14.200999999997569,0.4911039208417931,-0.611632498809241
14.400999999997458,0.5214931986706031,-0.6716822890811072
14.600999999997347,0.5162398156227825,-0.7219378447365717
14.800999999997236,0.4844335625396073,-0.7557254844646945
15.000999999997125,0.44446900198881095,-0.7694336573076376
15.200999999997014,0.38519346399733156,-0.7892002257252851
15.400999999996904,0.3205635341138632,-0.8019686429377711
15.600999999996793,0.2627540091006148,-0.8079860698473617
15.800999999996682,0.19957216564415006,-0.8028015479146009
16.000999999996573,0.1497640901205725,-0.7768623230000845
16.200999999996817,0.08711848211673094,-0.7231186372060497
16.40099999999706,0.027665075012717803,-0.6552346992217669
16.600999999997306,-0.033472946937973445,-0.5768977482450584
16.80099999999755,-0.0874557735002895,-0.4966530366216036
17.000999999997795,-0.13906268938697175,-0.41632410559198446
17.20099999999804,-0.1815888262626296,-0.3370761035722333
17.400999999998284,-0.24646012035081585,-0.24952962488200914
17.60099999999853,-0.3208330083635635,-0.15410130083732418
17.800999999998773,-0.39817346728545777,-0.04922107355483679
18.000999999999017,-0.4776718180248432,0.05000456573672002
18.20099999999926,-0.5425546924191569,0.13614228540275514
18.400999999999506,-0.5924780403412339,0.22055314181709812
18.60099999999975,-0.6474999186829428,0.285350195355239
18.799999999999994,-0.7221252521467084,0.3313325359394957
19.000000000000238,-0.8083929708702989,0.36918921702773916
19.200000000000482,-0.8661976432918358,0.39813528556131045
19.400000000000727,-0.9113156756330805,0.4349372358139999
19.60000000000097,-0.9563057099593103,0.49419495596435997
19.800000000001216,-0.9957691669242414,0.5685316570441865
20.00000000000146,-1.0349605452203778,0.6565911047427275
