Time (s),X (m),Y (m)
0.001,0.0001302085367132322,-0.0010272443824616275
0.20000000000000015,0.0017367574305255482,0.0012754524535919525
0.4000000000000003,0.003755754852281521,-0.0004283071057905904
0.6000000000000004,0.005523911973128738,0.0007901189232646925
0.8000000000000006,0.0073073363478977135,0.00067943756623928
1.0000000000000007,0.01020316261078984,0.0010360481166598852
1.2009999999999785,0.012406847109052644,0.00014332759396564566
1.4009999999999565,0.014528225326915282,0.00046888907194304343
1.6009999999999345,0.01682269698807127,0.0015947697228914513
1.8009999999999124,0.019307337571121044,0.0005404676220722478
2.0009999999998906,0.021235308043021896,0.0007569383536711186
2.2009999999998686,0.022813492462466743,0.0020209709287979665
2.4009999999998466,0.023990187586514614,0.002620884837225775
2.6009999999998246,0.024992263482681923,0.004593166062282775
2.8009999999998025,0.02721360846567439,0.003612542420714487
3.0009999999997805,0.02860411121097679,0.004241984620601681
3.2009999999997585,0.030034509296391572,0.0050812709620197336
3.4009999999997365,0.03156664271420885,0.004647961106651202
3.6009999999997144,0.03274767003452462,0.0053346627353975384
3.8009999999996924,0.03397761426360209,0.00654124727833637
4.000999999999671,0.03549338355612624,0.007672052974007163
4.200999999999738,0.03778916652854347,0.008079993566198884
4.400999999999804,0.039897442362575676,0.008314474705094603
4.600999999999871,0.04199309008746823,0.009333900416277052
4.800999999999938,0.04459070830611893,0.01029647810990381
5.000000000000004,0.047461612601829045,0.011172117718744108
5.200000000000071,0.04933724690301936,0.012716882070148348
5.400000000000138,0.05214063764300905,0.014498606291740651
5.600000000000205,0.05345552690164874,0.01640832152006583
5.800000000000272,0.05535672615086373,0.018300665694160233
6.000000000000338,0.057257044076281585,0.020759999990947575
6.200000000000405,0.06052211517642215,0.0230380649336568
6.400000000000472,0.06345342723805904,0.02442995350914645
6.600000000000539,0.06511960235278634,0.0266898650618406
6.800000000000606,0.06712861973187244,0.028046827838777363
7.000000000000672,0.06796770489089957,0.030765074256084064
7.200000000000739,0.07043000310278143,0.03250803080598479
7.400000000000806,0.07181043115661573,0.034936289521089695
7.600000000000873,0.07309939586827943,0.036056508398543526
7.8000000000009395,0.07355813318811945,0.0384840036665226
8.000000000001005,0.07499313214643089,0.04131825466503003
8.200000000000895,0.0762454897359499,0.043401390870807494
8.400000000000784,0.07764261545490506,0.045643813028063036
8.600000000000673,0.0791735919530447,0.04688681423105953
8.800000000000562,0.07941242475071121,0.048729075432054146
9.000000000000451,0.07943326568892013,0.05001404217268472
9.20000000000034,0.07957941122335908,0.05230401914419808
9.40000000000023,0.08025566914888795,0.05394700301329443
9.600000000000119,0.07966981464216097,0.05548182030111849
9.800000000000008,0.0786931422350799,0.056891162840208766
10.000999999999896,0.07804940517397173,0.05926091990439865
10.200999999999786,0.07828083456386432,0.06170913673776082
10.400999999999675,0.07868295210595155,0.0635284118916187
10.600999999999564,0.07754089938137716,0.06540925524483658
10.800999999999453,0.07735361817223313,0.06782973581052948
11.000999999999342,0.07762636487730477,0.06978103303795027
11.200999999999231,0.07623433386997265,0.0713395685448854
11.40099999999912,0.07734505184707614,0.0730055879556641
11.60099999999901,0.07673707376871115,0.07457248365728836
11.800999999998899,0.07670156597325571,0.07638429735452913
12.000999999998788,0.07564768373571008,0.07895565183774901
12.200999999998677,0.07391202079030092,0.0805373787245878
12.400999999998566,0.0739756331738993,0.08261075969799991
12.600999999998455,0.07338250094724218,0.08408478389998505
12.800999999998345,0.07249874527487672,0.08621749011289602
13.000999999998234,0.07136774478724278,0.08781543057355223
13.200999999998123,0.07117683242481551,0.0894659668921539
13.400999999998012,0.07046607290294934,0.09166141055320329
13.600999999997901,0.0693955343890066,0.09309664509751507
13.80099999999779,0.06937632032168564,0.09511208983424847
14.00099999999768,0.06871406149806573,0.0963417056365656
14.200999999997569,0.06792759448306669,0.09768709736176234
14.400999999997458,0.0672774802772128,0.0997380803618401
14.600999999997347,0.0657671915533071,0.10167813000655965
14.800999999997236,0.06450904624255188,0.10324746786035147
15.000999999997125,0.06166365751847761,0.1025422080002775
15.200999999997014,0.05995417755612104,0.1037713349374811
15.400999999996904,0.05884673601285926,0.10457835847986856
15.600999999996793,0.057056740475320875,0.10463683153066256
15.800999999996682,0.054611996445588895,0.10559622477486824
16.000999999996573,0.052272567725735755,0.10519877534124512
16.200999999996817,0.049977102790665896,0.10674427546719323
16.40099999999706,0.0480165962075975,0.10750774004620958
16.600999999997306,0.045405475418004944,0.10817873853296528
16.80099999999755,0.043371458247459097,0.1097603395093727
17.000999999997795,0.04129145270412097,0.11107253582142933
17.20099999999804,0.03933019692777255,0.11151214093287255
17.400999999998284,0.03894099631130508,0.11237211906854772
17.60099999999853,0.037474436781687485,0.11199542584355975
17.800999999998773,0.03637041241544018,0.11155911792693907
18.000999999999017,0.0354733402502519,0.11165608896725025
18.20099999999926,0.034649873163474294,0.11181555916024215
18.400999999999506,0.033507103405374335,0.11119329904378855
18.60099999999975,0.03273708812715136,0.11148440493488025
18.799999999999994,0.031897994048092626,0.11112550080749803
19.000000000000238,0.0308498345538557,0.11062830895172802
19.200000000000482,0.028590346891532174,0.11180866684078312
19.400000000000727,0.026557518965105623,0.11166846950721025
19.60000000000097,0.02423993894371248,0.11198336926647365
19.800000000001216,0.0226253361740925,0.111583765646462
20.00000000000146,0.02153664360084757,0.1111476252812002
