Time (s),X (m),Y (m)
0.001,0.0011130987088041246,-0.000515584144559974
0.20000000000000015,0.0027627923778903536,-0.00016259205867691872
0.4000000000000003,0.005955939109971377,0.0006057305662971589
0.6000000000000004,0.008190044654671571,0.002442959731714021
0.8000000000000006,0.013693936925952057,0.005175288499052991
1.0000000000000007,0.016880848985010827,0.008578737914089007
1.2009999999999785,0.019379398556270376,0.009989992946453344
1.4009999999999565,0.031088354780513302,0.01154327745393444
1.6009999999999345,0.03825746138899444,0.009594675769245388
1.8009999999999124,0.04100099831222436,0.011452863283971557
2.0009999999998906,0.055797769955255774,0.01268932401965788
2.2009999999998686,0.059656318292172154,0.01820452755330029
2.4009999999998466,0.06669460874729624,0.022312502119743203
2.6009999999998246,0.07811560388626242,0.021783096752868214
2.8009999999998025,0.08295652264869421,0.02302548829087055
3.0009999999997805,0.08903985955322712,0.02666141103618381
3.2009999999997585,0.103004957859997,0.02409954244057526
3.4009999999997365,0.10515010471249137,0.02548819481260967
3.6009999999997144,0.11119459147481056,0.021698149379261573
3.8009999999996924,0.12348183151067464,0.019950523015022318
4.000999999999671,0.13626317317458753,0.018878405604940217
4.200999999999738,0.1497864016087791,0.015956000740527006
4.400999999999804,0.15871401642135158,0.01589220617089761
4.600999999999871,0.1672999212384823,0.013055244028453067
4.800999999999938,0.18255942746586665,0.012786073010411587
5.000000000000004,0.19649243181196846,0.013013860654266577
5.200000000000071,0.2091437625972281,0.012867444620585432
5.400000000000138,0.22672274681767027,0.009395352648901158
5.600000000000205,0.2484623837753065,0.005236032730319621
5.800000000000272,0.26775556805060413,0.005944659298548263
6.000000000000338,0.2807776189706355,0.0038525863837705425
6.200000000000405,0.29933254245081503,-0.000249380388695372
6.400000000000472,0.31898223494991096,-0.002976753177973828
6.600000000000539,0.33160576511942674,-0.005756116841794318
6.800000000000606,0.3425762010931016,-0.007571585934449182
7.000000000000672,0.3619794670914907,-0.011300841081592013
7.200000000000739,0.37893811367461033,-0.015445792842276271
7.400000000000806,0.3899765901403242,-0.014208926130870792
7.600000000000873,0.4024909760265294,-0.008885927374283521
7.8000000000009395,0.413826639517467,-0.008066722904780254
8.000000000001005,0.42323251549539986,-0.009601284627190386
8.200000000000895,0.4365743632621881,-0.010957846981453582
8.400000000000784,0.4492173098612437,-0.013920645424338478
8.600000000000673,0.46484334965409346,-0.01878184032619075
8.800000000000562,0.4800865291009556,-0.01939362525549072
9.000000000000451,0.49648018565700214,-0.018642546767571058
9.20000000000034,0.5127973316700002,-0.019346128655313734
9.40000000000023,0.5211575955007891,-0.01991172249699234
9.600000000000119,0.531428878341711,-0.02048115879186683
9.800000000000008,0.5444524233877255,-0.024936507814341993
10.000999999999896,0.5515855040203061,-0.024853491246428695
10.200999999999786,0.5679305500636656,-0.027073088378541332
10.400999999999675,0.5804498727839551,-0.024336357510612826
10.600999999999564,0.5971131161827627,-0.026057497500497497
10.800999999999453,0.6163329611181396,-0.02903261317156783
11.000999999999342,0.6332670680543194,-0.03479350558841438
11.200999999999231,0.647452491536745,-0.03268506766599799
11.40099999999912,0.6565489889745697,-0.03027975473612484
11.60099999999901,0.6677206490819755,-0.029812944431170985
11.800999999998899,0.6840045185449233,-0.03403334855604017
12.000999999998788,0.6994564176457846,-0.03691185979081587
12.200999999998677,0.7172358192683014,-0.040699040628670184
12.400999999998566,0.7363986413869513,-0.053678807852788495
12.600999999998455,0.7617024291075077,-0.06931009502689467
12.800999999998345,0.7845658628981024,-0.07784247663865217
13.000999999998234,0.8064021141267742,-0.08564084024731332
13.200999999998123,0.8238789905849142,-0.0875297236093728
13.400999999998012,0.8387794807682903,-0.08898153536806533
13.600999999997901,0.8532479203867803,-0.09538716222225557
13.80099999999779,0.8647118862376391,-0.09488703051205025
14.00099999999768,0.8748575337031851,-0.09513161771461733
14.200999999997569,0.8921217148687377,-0.100952645625415
14.400999999997458,0.9046427858529473,-0.10838355697614879
14.600999999997347,0.9203790910378838,-0.12008841235191851
14.800999999997236,0.9410982882793402,-0.1319662649081199
15.000999999997125,0.9579185592276062,-0.13976177655954553
15.200999999997014,0.975641254125687,-0.14661666373825674
15.400999999996904,0.9891480379905899,-0.15222060206448476
15.600999999996793,1.0075872724901938,-0.17074961066900027
15.800999999996682,1.0238651143372994,-0.17601025034497847
16.000999999996573,1.0387794175752798,-0.1943958554458608
16.200999999996817,1.0464786203863852,-0.21111029015409102
16.40099999999706,1.05541473740609,-0.22612812570110688
16.600999999997306,1.0653577450231357,-0.2404397966710947
16.80099999999755,1.071077014493272,-0.2592089252657655
17.000999999997795,1.0777555613328735,-0.26982260332073027
17.20099999999804,1.0851896317296343,-0.2870358704872476
17.400999999998284,1.0858941233767518,-0.3107090560731279
17.60099999999853,1.0850303746914982,-0.32797953195676505
17.800999999998773,1.0903676236615258,-0.3394078071081921
18.000999999999017,1.0946334163165978,-0.3534492237717038
18.20099999999926,1.0921725299887388,-0.3754248974505274
18.400999999999506,1.0888288150090166,-0.3908645435101513
18.60099999999975,1.0849746611369753,-0.40643276664633177
18.799999999999994,1.0799039571737483,-0.4316986105427313
19.000000000000238,1.0777028620266271,-0.45010849919768514
19.200000000000482,1.0737391646095782,-0.46544198320588975
19.400000000000727,1.0724370506132213,-0.48109642840747585
19.60000000000097,1.068418215813296,-0.5021715074466628
19.800000000001216,1.065748492239407,-0.5220115810517717
20.00000000000146,1.0646020401621095,-0.5406061081681284
