Time (s),X (m),Y (m)
0.001,0.0012512490639692614,0.0
0.20000000000000015,-0.003291729861661699,0.0005490441973821003
0.4000000000000003,-0.008151790066104038,0.0004373312441911987
0.6000000000000004,-0.010132077049994609,0.0015922927342671086
0.8000000000000006,0.003556063507278279,-0.003368932731524273
1.0000000000000007,0.01880749867770393,-0.0069848582879000025
1.2009999999999785,0.034902017399860936,-0.018271498185324125
1.4009999999999565,0.06904171284885528,-0.04236696744757801
1.6009999999999345,0.11843756246901982,-0.06989738416992751
1.8009999999999124,0.15750291584638673,-0.09006965594869999
2.0009999999998906,0.19310599658544408,-0.10525718955048007
2.2009999999998686,0.23050786578346946,-0.12428611736298148
2.4009999999998466,0.27657136614517736,-0.14856704849276994
2.6009999999998246,0.30196519851270304,-0.1818933319976984
2.8009999999998025,0.30627754123614526,-0.2231272345978516
3.0009999999997805,0.28885214358188666,-0.2708320915341707
3.2009999999997585,0.26561687419968516,-0.3101623387238972
3.4009999999997365,0.2236592496491686,-0.3223151174586462
3.6009999999997144,0.17438324267125113,-0.3142377448502623
3.8009999999996924,0.12541939725678153,-0.29745173133753444
4.000999999999671,0.0852096688309596,-0.26452018154855333
4.200999999999738,0.06973042738824345,-0.21733186938508842
4.400999999999804,0.07701108921599986,-0.16458322234608724
4.600999999999871,0.0951775908459096,-0.10937729519116611
4.800999999999938,0.11677022604175097,-0.060568782553053674
5.000000000000004,0.14087031914354498,-0.009711851132555594
5.200000000000071,0.16480685560450176,0.045205754050981616
5.400000000000138,0.19206434190770635,0.105528603711679
5.600000000000205,0.22973609948790658,0.18047841878916115
5.800000000000272,0.2639961529482822,0.24549072775442182
6.000000000000338,0.3179757006361647,0.29512908300945306
6.200000000000405,0.37926510465232177,0.31580681916763725
6.400000000000472,0.44953592369586826,0.3091635804063424
6.600000000000539,0.523890676392892,0.28293601403017243
6.800000000000606,0.5981926110348226,0.24458543579662767
7.000000000000672,0.6679401859423201,0.2004753157427684
7.200000000000739,0.7217606899932982,0.15900231378328655
7.400000000000806,0.7436982657425252,0.11055008306924166
7.600000000000873,0.7359312485884144,0.059844886169338876
7.8000000000009395,0.7055756877922356,0.01905270941872675
8.000000000001005,0.6664664301828416,-0.0014789703860108574
8.200000000000895,0.6066502638125799,0.0055118691730669305
8.400000000000784,0.5416196544527183,0.02389898924803723
8.600000000000673,0.4707357275698405,0.05277527823906757
8.800000000000562,0.3986183045641062,0.08699047375401076
9.000000000000451,0.32901234359351994,0.1316044417420092
9.20000000000034,0.2561880453872303,0.1733475126575879
9.40000000000023,0.17770675309419698,0.22319484793568325
9.600000000000119,0.10440133222611689,0.27362137296316835
9.800000000000008,0.06454023986966421,0.32642101081922686
10.000999999999896,0.0561341343084361,0.3857691417112018
10.200999999999786,0.06715267761948668,0.4380858960710622
10.400999999999675,0.09243019525607221,0.4694177797733515
10.600999999999564,0.1255551128700326,0.4768831998601179
10.800999999999453,0.17888687042627466,0.4685635163846779
11.000999999999342,0.2495110497594644,0.44372436025136464
11.200999999999231,0.3145869330895809,0.4049119783606117
11.40099999999912,0.3671202103585774,0.36329282819635467
11.60099999999901,0.39527823988879957,0.32662844766015475
11.800999999998899,0.40204832736244395,0.2850548234283332
12.000999999998788,0.39635448027407283,0.24096425659830378
12.200999999998677,0.3699465533468213,0.21251870565577377
12.400999999998566,0.3347439489095985,0.2009227096109811
12.600999999998455,0.2970372096595234,0.20261473067438796
12.800999999998345,0.25984801905305094,0.2124075088407189
13.000999999998234,0.2183465433299619,0.225068920227381
13.200999999998123,0.15816959279467194,0.24078971057506862
13.400999999998012,0.1002597829219817,0.26002618144667733
13.600999999997901,0.034394586477393053,0.2871363467410263
13.80099999999779,-0.031448445175600824,0.32717610661571883
14.00099999999768,-0.08057908834210122,0.3733231533187384
14.200999999997569,-0.10437375602782838,0.4331139486006724
14.400999999997458,-0.1038667658033222,0.4870757077170249
14.600999999997347,-0.09055710941537806,0.54187363456389
14.800999999997236,-0.06731577322957114,0.6016096262026257
15.000999999997125,-0.03247896253635276,0.6602407401004939
15.200999999997014,0.024753802965477877,0.7207409315653229
15.400999999996904,0.08755727608559204,0.7735873932703451
15.600999999996793,0.15880267324328268,0.803570175702093
15.800999999996682,0.2252391634128536,0.8094838739806655
16.000999999996573,0.29205586452633875,0.7956506299388505
16.200999999996817,0.3677660279130382,0.76436792384625
16.40099999999706,0.44550468684630357,0.7245537831486156
16.600999999997306,0.533151654211499,0.6739291573204171
16.80099999999755,0.6162561266382969,0.6205455894706886
17.000999999997795,0.6833164647360009,0.5431626373219564
17.20099999999804,0.7179279914355531,0.47862258491232745
17.400999999998284,0.7131936948312336,0.40987772748269596
17.60099999999853,0.6858705083479348,0.3352348134754403
17.800999999998773,0.6473116187863943,0.25877173335321746
18.000999999999017,0.6065842753442685,0.18171701320975275
18.20099999999926,0.5559895024170176,0.10331613841170847
18.400999999999506,0.49207558020341136,0.04567018189765331
18.60099999999975,0.427717737096294,0.026751284013557596
18.799999999999994,0.3730571784708542,0.027296456870227408
19.000000000000238,0.3396198788053337,0.03796763277474778
19.200000000000482,0.3348284404908,0.057891364287680214
19.400000000000727,0.3500047704511348,0.08538232630041295
19.60000000000097,0.38345238511812657,0.11085512897027672
19.800000000001216,0.4323023640196876,0.13053261908369584
20.00000000000146,0.4809316156067638,0.13953145282725107
