Time (s),X (m),Y (m)
0.001,-0.0007489004572251305,0.00035268032603768894
0.20000000000000015,0.0051063488594488725,-0.0008681305275090432
0.4000000000000003,0.00952548870470798,-0.004009508929843917
0.6000000000000004,0.013759916773417572,-0.0011739276375374971
0.8000000000000006,0.03387704010168375,0.0009652196099679343
1.0000000000000007,0.05994812460480337,0.004698203005776689
1.2009999999999785,0.08381048265994484,-0.0011177016152791662
1.4009999999999565,0.11700517647865862,-0.009845295741554395
1.6009999999999345,0.1386871715335141,-0.017157121031898558
1.8009999999999124,0.15936324086752357,-0.02152132214199536
2.0009999999998906,0.18454579178189676,-0.0208629038720213
2.2009999999998686,0.21703852155371617,-0.030195574352320665
2.4009999999998466,0.2537966877048503,-0.03882710435645879
2.6009999999998246,0.2921270666757083,-0.05078958436309425
2.8009999999998025,0.3272353212442581,-0.06575205090176095
3.0009999999997805,0.3616758128056634,-0.08833821920420916
3.2009999999997585,0.38549810845541804,-0.10870987035708361
3.4009999999997365,0.39852360198484515,-0.13633704399990884
3.6009999999997144,0.4022582613050297,-0.16590741616258411
3.8009999999996924,0.38823304047065593,-0.2010722439896235
4.000999999999671,0.3735472825352255,-0.23815844283970775
4.200999999999738,0.3481261465729481,-0.27597402426978784
4.400999999999804,0.3260355924055354,-0.317406126562983
4.600999999999871,0.30054306216129656,-0.3554996918602867
4.800999999999938,0.28083138655173795,-0.3850764149412111
5.000000000000004,0.24787687749623438,-0.38958906890750467
5.200000000000071,0.21416070256403114,-0.3870187911389284
5.400000000000138,0.1814575965319299,-0.378657216529404
5.600000000000205,0.1585714286662232,-0.37769153867276045
5.800000000000272,0.14388358658153944,-0.37313097425951003
6.000000000000338,0.1407520791610999,-0.34654723658032693
6.200000000000405,0.14829038490298166,-0.30874995495210433
6.400000000000472,0.16091371757299378,-0.2680428382879423
6.600000000000539,0.1717259930952386,-0.22457022394877482
6.800000000000606,0.18236028483354014,-0.18012161163394105
7.000000000000672,0.19824955568945302,-0.13462227228132478
7.200000000000739,0.22100415852886704,-0.09417505736542331
7.400000000000806,0.24155180813674948,-0.05716770739391897
7.600000000000873,0.2651647469828151,-0.02883233183310915
7.8000000000009395,0.2898597733411338,-0.012928177338727049
8.000000000001005,0.3202665844880279,-0.01855106540352321
8.200000000000895,0.34896654677653227,-0.02519627940787827
8.400000000000784,0.39294573492047125,-0.045584528411059214
8.600000000000673,0.44714994110229855,-0.08199706662754247
8.800000000000562,0.4990154627491388,-0.11627475677174257
9.000000000000451,0.5472614826876098,-0.15142364439803868
9.20000000000034,0.5761926703256288,-0.19073901906665075
9.40000000000023,0.592873141899068,-0.23280739085537847
9.600000000000119,0.5927465968454506,-0.27997463627351116
9.800000000000008,0.5771800129932483,-0.3389653781238758
10.000999999999896,0.5472255937783213,-0.3990233543866032
10.200999999999786,0.5254312406230695,-0.4494323897242611
10.400999999999675,0.5015808532297192,-0.4986032924234369
10.600999999999564,0.4585186621701034,-0.5446541889365107
10.800999999999453,0.40762175943967954,-0.5752564947109361
11.000999999999342,0.36236118586629296,-0.5837739370225072
11.200999999999231,0.31744126492722236,-0.5760565213684398
11.40099999999912,0.2726173042153944,-0.5713296516022176
11.60099999999901,0.22553977905541225,-0.5589141095520407
11.800999999998899,0.17684943791010135,-0.543635449566638
12.000999999998788,0.12137668298808113,-0.5265930874313283
12.200999999998677,0.0655082327071718,-0.5134591557846001
12.400999999998566,0.009840819607320962,-0.48854397891301315
12.600999999998455,-0.038315795396629826,-0.4575678250281762
12.800999999998345,-0.06305134027028221,-0.4142960687197634
13.000999999998234,-0.06424248200220248,-0.36824334349663446
13.200999999998123,-0.05472460178100059,-0.3238590446317707
13.400999999998012,-0.03644411417763744,-0.27257044958068877
13.600999999997901,-0.018487147202451135,-0.2188727621427128
13.80099999999779,0.012734658401813875,-0.17794090496760764
14.00099999999768,0.05657206953092762,-0.16350919743840076
14.200999999997569,0.09874289276844855,-0.16357523451545775
14.400999999997458,0.14669885616387437,-0.17415738391638452
14.600999999997347,0.19162185703059306,-0.18158297146100172
14.800999999997236,0.23624295345243396,-0.18428407750713616
15.000999999997125,0.2818035690835865,-0.20352086375773107
15.200999999997014,0.31850140485972545,-0.2393972680209272
15.400999999996904,0.33797857963185546,-0.27489214087133923
15.600999999996793,0.34417371884555975,-0.31551443699140946
15.800999999996682,0.3420781158803216,-0.36484999703377896
16.000999999996573,0.3212738583630082,-0.4173850958012773
16.200999999996817,0.2907253950105337,-0.47229143712927707
16.40099999999706,0.2510106791212714,-0.5262472694556822
16.600999999997306,0.23376610604420708,-0.5792828840503802
16.80099999999755,0.20774008343587583,-0.6277723503491368
17.000999999997795,0.16806163388707485,-0.6687372643600522
17.20099999999804,0.1339935679825722,-0.7080975936622627
17.400999999998284,0.09388896720899303,-0.7397610280317252
17.60099999999853,0.05194224582449856,-0.7614133027714894
17.800999999998773,0.025234647663144198,-0.7701655308826768
18.000999999999017,-0.007510706853832218,-0.7737983545190301
18.20099999999926,-0.051172696248747374,-0.7653194508073029
18.400999999999506,-0.10326145054164633,-0.7487485733870793
18.60099999999975,-0.1561561244711019,-0.7251147496202719
18.799999999999994,-0.2010709125140106,-0.6854813102124206
19.000000000000238,-0.2186529685423249,-0.6293177936864908
19.200000000000482,-0.2154996155074868,-0.5692633236235348
19.400000000000727,-0.20358292910354764,-0.5123097704404143
19.60000000000097,-0.1806200420485286,-0.45673575888331314
19.800000000001216,-0.1583744194452504,-0.4094667539686124
20.00000000000146,-0.12679634769465994,-0.3868810238893325
