Time (s),X (m),Y (m)
0.001,0.0010100015126501532,0.0006628221997479689
0.20000000000000015,-0.0009010456217174006,-0.0022615690989563147
0.4000000000000003,0.0001761877205336683,-0.005169424624901716
0.6000000000000004,-0.00020289393619327416,-0.008756496124631299
0.8000000000000006,0.012650876199136336,-0.002257718840331479
1.0000000000000007,0.021156676813578978,-0.005413255748122507
1.2009999999999785,0.028605195814170318,-0.009397923996222688
1.4009999999999565,0.044726547213400684,-0.00672293862657282
1.6009999999999345,0.06498235612006303,-0.0042248614009859735
1.8009999999999124,0.08213429291833119,-0.0023143764493705338
2.0009999999998906,0.09129788062149582,0.0026164637977004576
2.2009999999998686,0.09218479442255043,0.004553249373768585
2.4009999999998466,0.1035845370859627,0.00849680125114745
2.6009999999998246,0.12673834116896626,0.018049701770920787
2.8009999999998025,0.14583024861164295,0.02266290517869858
3.0009999999997805,0.1652242515534817,0.029081952752026994
3.2009999999997585,0.18619798324887854,0.03192919625715899
3.4009999999997365,0.20798317485621665,0.03369104248787178
3.6009999999997144,0.2239467040303818,0.0351501038173932
3.8009999999996924,0.2358792597404384,0.03461758248585967
4.000999999999671,0.2505600997102669,0.037044404928016396
4.200999999999738,0.2699629291806396,0.04549378703584119
4.400999999999804,0.29501135134434603,0.051179485569729344
4.600999999999871,0.3183011055062741,0.05475859610640468
4.800999999999938,0.34244624906701154,0.06828792769294663
5.000000000000004,0.36780425202346145,0.07320323384888089
5.200000000000071,0.3907390332956102,0.09332543427494715
5.400000000000138,0.41778654644263435,0.0958410550793116
5.600000000000205,0.4400974689391395,0.10894437624229816
5.800000000000272,0.4607917340950863,0.11987485151131475
6.000000000000338,0.4768510320674551,0.12516333146528352
6.200000000000405,0.491414024658891,0.14685616859071735
6.400000000000472,0.5138984137810907,0.16734847010546808
6.600000000000539,0.5377677991237089,0.1860377025842946
6.800000000000606,0.5587898709334564,0.20343451983543706
7.000000000000672,0.5808749656247658,0.2087143214035289
7.200000000000739,0.6017128946460203,0.23299429601642452
7.400000000000806,0.6234341203057905,0.2516378743284159
7.600000000000873,0.6439283289354125,0.26975584226013477
7.8000000000009395,0.662324859963866,0.2999829640840045
8.000000000001005,0.6854136830197551,0.31442987834209485
8.200000000000895,0.7083190099264014,0.33274769512161884
8.400000000000784,0.7268746555476235,0.35761717283248223
8.600000000000673,0.7408152849840218,0.38198971990834535
8.800000000000562,0.7555716924186916,0.40600046733999695
9.000000000000451,0.7727809911203489,0.4365573121740277
9.20000000000034,0.7925940938075614,0.469916282323033
9.40000000000023,0.8083927965253451,0.5044346088252818
9.600000000000119,0.8221901654370931,0.5233595446144985
9.800000000000008,0.835631260866889,0.5492088329501309
10.000999999999896,0.8434967155088511,0.5703406168929462
10.200999999999786,0.8543817644633005,0.5962137705747388
10.400999999999675,0.866081531237738,0.6242475775070858
10.600999999999564,0.8814955397416905,0.6546859760169448
10.800999999999453,0.8991036853376928,0.6801351152126675
11.000999999999342,0.9132796776634807,0.7038979627584743
11.200999999999231,0.9268806577090816,0.7220186618471064
11.40099999999912,0.9411438723993545,0.7506695884166762
11.60099999999901,0.9572185040654457,0.7821980286466846
11.800999999998899,0.9702318791576875,0.8074853670660004
12.000999999998788,0.9844687739191932,0.8312125610291753
12.200999999998677,0.9925865818335995,0.8572860431341031
12.400999999998566,1.001055387937249,0.873533458813966
12.600999999998455,1.0118502220974104,0.8905903408966963
12.800999999998345,1.01801371397323,0.908498802667072
13.000999999998234,1.0223021111759967,0.924987252965961
13.200999999998123,1.0304569744197587,0.9401844434211809
13.400999999998012,1.0423111466308492,0.96203925525726
13.600999999997901,1.0537734593155546,0.9797391649443707
13.80099999999779,1.0597868997413966,1.0025292208625254
14.00099999999768,1.0689826025199076,1.0176723414387676
14.200999999997569,1.0799472476210779,1.0391498678162718
14.400999999997458,1.0865384519231884,1.0647249630798905
14.600999999997347,1.084106949678967,1.101089526162536
14.800999999997236,1.0868412972808232,1.1238907228512984
15.000999999997125,1.086611480532327,1.1472165249003456
15.200999999997014,1.0847713997004522,1.1821150373268505
15.400999999996904,1.0820885064420414,1.2112829541222254
15.600999999996793,1.0877170926302184,1.2324809908281043
15.800999999996682,1.091871427400582,1.2575819807935706
16.000999999996573,1.0971705238212053,1.28186537751023
16.200999999996817,1.101179234599047,1.31471964554821
16.40099999999706,1.1099780351224922,1.3458139379947824
16.600999999997306,1.1270632167531052,1.3753552262867628
16.80099999999755,1.1353266648313007,1.3995343220930148
17.000999999997795,1.1447606641859631,1.427905224421977
17.20099999999804,1.1571708189334977,1.4473704307434483
17.400999999998284,1.167281295092352,1.4735968999922144
17.60099999999853,1.1771835992734816,1.502062070950485
17.800999999998773,1.188744112532573,1.5342667513981776
18.000999999999017,1.2008478870334827,1.5605085350333756
18.20099999999926,1.2106712680271332,1.585049948749619
18.400999999999506,1.2198715453399238,1.6151549014497648
18.60099999999975,1.2206085902696608,1.6393493909722818
18.799999999999994,1.2286583817316858,1.660720126114338
19.000000000000238,1.2421325496310405,1.6807298925732814
19.200000000000482,1.2516630570132048,1.7070035819410974
19.400000000000727,1.2555129523999948,1.7331011871052135
19.60000000000097,1.2552720810057827,1.7639488558662282
19.800000000001216,1.249266006739545,1.807971971686643
20.00000000000146,1.2489947495647902,1.8444925164632089
