Time (s),X (m),Y (m)
0.001,-0.00013259955118837574,0.0009689812320744445
0.20000000000000015,0.0039927388354782,-0.004642696600824604
0.4000000000000003,0.014470542936361014,-0.01036421745675371
0.6000000000000004,0.02544992031094617,-0.007118093264866839
0.8000000000000006,0.036704777729217944,-0.003614629496886613
1.0000000000000007,0.048105011913804736,-0.0016409334866016704
1.2009999999999785,0.06167175028003123,-0.015331671729065929
1.4009999999999565,0.0818099350287989,-0.01770673049348329
1.6009999999999345,0.1055766697537844,-0.00920900227412992
1.8009999999999124,0.12418322174455235,-0.010563367011931536
2.0009999999998906,0.1396841240977254,-0.02549148064012553
2.2009999999998686,0.15659685935040024,-0.042920545975486744
2.4009999999998466,0.17912094357890243,-0.05870094516895653
2.6009999999998246,0.2004706302460345,-0.07359747664536166
2.8009999999998025,0.22381858372617666,-0.08080902761156315
3.0009999999997805,0.24569858259442215,-0.09883453217923278
3.2009999999997585,0.26783394640573627,-0.10519933833816231
3.4009999999997365,0.2888073631262098,-0.11579986057321416
3.6009999999997144,0.31103355658669285,-0.1288816201900133
3.8009999999996924,0.33913770440433477,-0.13359581346403118
4.000999999999671,0.369006260951497,-0.1391526408023567
4.200999999999738,0.4016601993264522,-0.14460683250066053
4.400999999999804,0.4347095358435311,-0.14295307048269787
4.600999999999871,0.46159068753901705,-0.1560545587556349
4.800999999999938,0.47625513470502445,-0.1803951739515497
5.000000000000004,0.4986096142353117,-0.19789861734410125
5.200000000000071,0.5264329613184099,-0.22096052202119418
5.400000000000138,0.5507445203391366,-0.24375604613690463
5.600000000000205,0.5679757223145984,-0.2634284601385821
5.800000000000272,0.5785456719076848,-0.2826921497530475
6.000000000000338,0.5926294443323576,-0.309076966780686
6.200000000000405,0.6092587152078665,-0.3230613714803617
6.400000000000472,0.6242945352729804,-0.34227233484029856
6.600000000000539,0.6443692575219815,-0.3759136042275895
6.800000000000606,0.6651818070624275,-0.40560904116373664
7.000000000000672,0.6801806589085624,-0.4411723847160848
7.200000000000739,0.6966577280078138,-0.4678070434692935
7.400000000000806,0.7156809831440915,-0.495487860536854
7.600000000000873,0.7382500835186059,-0.5161128301616338
7.8000000000009395,0.7634778117133596,-0.5263496131375154
8.000000000001005,0.7906820748831976,-0.5428925987763648
8.200000000000895,0.8083939878391507,-0.5689268481269739
8.400000000000784,0.824547231601151,-0.5905137895474816
8.600000000000673,0.8437372538315043,-0.6173877566459948
8.800000000000562,0.8526932945939416,-0.6571640887534883
9.000000000000451,0.8650312283699677,-0.6901688755697363
9.20000000000034,0.8803946042022306,-0.7190269423202086
9.40000000000023,0.8959200906456496,-0.748278096032183
9.600000000000119,0.9087164975571823,-0.7754831647023354
9.800000000000008,0.9269974382131578,-0.803578019326966
10.000999999999896,0.949493892018798,-0.8235839905597386
10.200999999999786,0.969107930839403,-0.8456438222354468
10.400999999999675,0.9884317550378788,-0.8718146036994914
10.600999999999564,1.0070082725273202,-0.891826486428584
10.800999999999453,1.0246350965239495,-0.9168199705499053
11.000999999999342,1.0348453708454326,-0.9429159269164062
11.200999999999231,1.0538689406031607,-0.9722716448437714
11.40099999999912,1.0714125419257523,-0.9945280463026354
11.60099999999901,1.088278421439674,-1.01883459280749
11.800999999998899,1.1123623132927127,-1.0426593439153826
12.000999999998788,1.143950197348471,-1.0613482403017722
12.200999999998677,1.1742570182342862,-1.081108542613364
12.400999999998566,1.1826790062072265,-1.108191609412452
12.600999999998455,1.1935121832152622,-1.1432556411520298
12.800999999998345,1.2037334660978147,-1.177485091148252
13.000999999998234,1.2039583236294977,-1.2092746945708719
13.200999999998123,1.2155933658489884,-1.232712588191744
13.400999999998012,1.2281113919826103,-1.2530037932704068
13.600999999997901,1.232427711353008,-1.2805882522703045
13.80099999999779,1.250971534617049,-1.3077889637443134
14.00099999999768,1.2597201201205979,-1.3421136719174842
14.200999999997569,1.2575851403440463,-1.3827135409947549
14.400999999997458,1.259437147085202,-1.4251184731945403
14.600999999997347,1.2536444950589518,-1.464862871469777
14.800999999997236,1.2619572206585516,-1.4932449007172992
15.000999999997125,1.2619402989533703,-1.5399533284723488
15.200999999997014,1.271727851862874,-1.5826254178853372
15.400999999996904,1.2854859019854086,-1.6215783605903218
15.600999999996793,1.3082282107465721,-1.6513025536160488
15.800999999996682,1.3334648952578467,-1.6818695852995016
16.000999999996573,1.3466250343743598,-1.7123157349651357
16.200999999996817,1.3564964154269161,-1.7434926802108694
16.40099999999706,1.355111371639901,-1.7801593679835686
16.600999999997306,1.3505680323012081,-1.8175224436539714
16.80099999999755,1.353827805754434,-1.8483792991015475
17.000999999997795,1.3547914790076918,-1.8848675341765428
17.20099999999804,1.3520361434526451,-1.9202324801288586
17.400999999998284,1.3306657017371084,-1.9498656272516077
17.60099999999853,1.3172668015547353,-1.9802271002149119
17.800999999998773,1.3043273623465692,-2.010912009425045
18.000999999999017,1.2864589517206857,-2.0365328268584317
18.20099999999926,1.2557687668593425,-2.0636683682080346
18.400999999999506,1.2404607453536787,-2.0952686131032525
18.60099999999975,1.2289214093642433,-2.121723558159818
18.799999999999994,1.2173534254300753,-2.142636624557611
19.000000000000238,1.1961723729018765,-2.161022508243031
19.200000000000482,1.1738657473796388,-2.179491340776803
19.400000000000727,1.1488038642931568,-2.1975766060994464
19.60000000000097,1.1211200418258438,-2.213908021862407
19.800000000001216,1.0954246796440454,-2.2209821270300307
20.00000000000146,1.0630134128408826,-2.2185784845194396
