Time (s),X (m),Y (m)
0.001,0.0005727611008870025,-0.0009689812320744441
0.20000000000000015,0.0016403104049565885,-0.0009682760046396533
0.4000000000000003,0.0018234747116027015,-0.00022854833183374364
0.6000000000000004,0.001204295972782169,0.002107508927792533
0.8000000000000006,0.0004526299329673778,0.005413231491523711
1.0000000000000007,0.001237164163370642,0.004248581412554027
1.2009999999999785,0.0015874827923460782,0.0032776895869475924
1.4009999999999565,0.0021771508549679693,0.0018072709155832116
1.6009999999999345,0.0025779374511593887,0.0008239482445376541
1.8009999999999124,0.002828711146757791,0.00024545176452531485
2.0009999999998906,0.0031805642645616403,-0.0005855924470683059
2.2009999999998686,0.003585378455067586,-0.0016619211225337987
2.4009999999998466,0.00399362760715698,-0.00269905563236407
2.6009999999998246,0.004259649857912584,-0.0033498802424969686
2.8009999999998025,0.004535799797160245,-0.0038480457137622932
3.0009999999997805,0.004978760805173763,-0.004817087546361254
3.2009999999997585,0.0054431899166954,-0.005895074114657324
3.4009999999997365,0.005906631690873866,-0.006980900365440103
3.6009999999997144,0.006399146471511794,-0.008272875609623422
3.8009999999996924,0.006844373518860946,-0.009210921837463915
4.000999999999671,0.007354072832770828,-0.010381867939624524
4.200999999999738,0.007964699885249808,-0.011735696808916922
4.400999999999804,0.00856369532592355,-0.013120255730915699
4.600999999999871,0.009303837433672009,-0.01486267786492478
4.800999999999938,0.009993130519734807,-0.016471957924677098
5.000000000000004,0.010638865789112925,-0.017917830599506537
5.200000000000071,0.01131009342987331,-0.01933713464195373
5.400000000000138,0.01203801453319177,-0.020899186527976024
5.600000000000205,0.012875754545154643,-0.022718273451160592
5.800000000000272,0.013753727706786357,-0.024600354076851287
6.000000000000338,0.014588004166874188,-0.026344634931546183
6.200000000000405,0.015355459631839624,-0.027924393834896352
6.400000000000472,0.016216046773126193,-0.029597203962040464
6.600000000000539,0.017085167217617585,-0.031318629212794505
6.800000000000606,0.01809866766093454,-0.03327531226070639
7.000000000000672,0.019167400211818113,-0.035357679189789604
7.200000000000739,0.02021916241298989,-0.03735632203786625
7.400000000000806,0.021188393561766796,-0.03916656902754789
7.600000000000873,0.022091043528271643,-0.04079570164305833
7.8000000000009395,0.023050484101094428,-0.042502774244630386
8.000000000001005,0.024029199401771284,-0.044227700774715634
8.200000000000895,0.025085567844976245,-0.04611251020499519
8.400000000000784,0.026242302275461017,-0.04812923694868574
8.600000000000673,0.02732773041155179,-0.05000682005962641
8.800000000000562,0.02839013555275805,-0.05180976396329201
9.000000000000451,0.029416068963278464,-0.05347617883589943
9.20000000000034,0.03045339110266703,-0.055151153609462
9.40000000000023,0.0315655710392618,-0.0569260876232553
9.600000000000119,0.03276990854967501,-0.05882509974920582
9.800000000000008,0.03400759337141581,-0.06076493349572132
10.000999999999896,0.03528906673268196,-0.0627202134306512
10.200999999999786,0.036496831283284424,-0.06454425906426732
10.400999999999675,0.0376944138626216,-0.06627476131117149
10.600999999999564,0.03879711892999973,-0.06783889758426732
10.800999999999453,0.04005184054459275,-0.06962044356676832
11.000999999999342,0.04140463973139114,-0.07148657753415898
11.200999999999231,0.04286765698419296,-0.07345743538706759
11.40099999999912,0.044328297080644063,-0.07542453925413191
11.60099999999901,0.045808301763961556,-0.07737840973575481
11.800999999998899,0.04722275604664285,-0.07921758743423699
12.000999999998788,0.048586723316637416,-0.08093842690292152
12.200999999998677,0.049957458299063874,-0.08263269874130395
12.400999999998566,0.05137868587492172,-0.0843923504906034
12.600999999998455,0.05289329829167439,-0.086209701260698
12.800999999998345,0.054489183009414896,-0.0881223868767393
13.000999999998234,0.05609228019815698,-0.09003883061882954
13.200999999998123,0.057759443169485405,-0.09197705183382693
13.400999999998012,0.05931171838712923,-0.09378539353335333
13.600999999997901,0.060843052139104556,-0.09551097820392693
13.80099999999779,0.062333911954214866,-0.0971694548408148
14.00099999999768,0.06390379871933133,-0.0988963207231523
14.200999999997569,0.06555027454828143,-0.10066742930217512
14.400999999997458,0.06727567775232986,-0.10252778638019061
14.600999999997347,0.06908761850387278,-0.10443656514345236
14.800999999997236,0.07088067513302074,-0.10630831438596494
15.000999999997125,0.07257293591611476,-0.10807152493084075
15.200999999997014,0.07422347681186793,-0.10976441301891575
15.400999999996904,0.07584216701701471,-0.11139585655654835
15.600999999996793,0.07749734058638434,-0.11303531269106581
15.800999999996682,0.079214131227475,-0.11471460243676916
16.000999999996573,0.08101911707166971,-0.11646073695147495
16.200999999996817,0.08289125812946381,-0.11824880481302556
16.40099999999706,0.08474708830983922,-0.12000918371501142
16.600999999997306,0.0865317099454531,-0.12169028612355413
16.80099999999755,0.08820647643515692,-0.1232421308696298
17.000999999997795,0.08986140244459179,-0.12476214893701369
17.20099999999804,0.09154447567412818,-0.12627482267368786
17.400999999998284,0.09328335835149126,-0.12781681426772554
17.60099999999853,0.09510287542497604,-0.12942976315078705
17.800999999998773,0.0969922488409023,-0.1310620090666538
18.000999999999017,0.09888989151620858,-0.13269743420835572
18.20099999999926,0.10077753732496685,-0.1342902221730299
18.400999999999506,0.102560944322207,-0.13579127509292216
18.60099999999975,0.10423030436676725,-0.13721016988220922
18.799999999999994,0.1058760205005274,-0.1385672783694449
19.000000000000238,0.10762407847936933,-0.13998919616429087
19.200000000000482,0.10945199055521536,-0.1414550952205625
19.400000000000727,0.11135848886711801,-0.14295359072226407
19.60000000000097,0.11329419732675171,-0.14446109409390362
19.800000000001216,0.11516767688979279,-0.14592609957946914
20.00000000000146,0.11698060320201804,-0.1473181811791437
