Time (s),X (m),Y (m)
0.001,0.00048696676677933824,-0.0009960320817112695
0.20000000000000015,0.0011880161840541828,0.0012975932902037624
0.4000000000000003,0.012462377245404246,-0.011290303115799913
0.6000000000000004,0.03241913173975344,-0.034908284946623916
0.8000000000000006,0.06628585645700784,-0.06129089249716071
1.0000000000000007,0.10420949581145583,-0.10145646643696242
1.2009999999999785,0.1285108697902527,-0.1513696037125803
1.4009999999999565,0.12356647950784125,-0.21002375822105163
1.6009999999999345,0.11131814166889589,-0.27570673966749176
1.8009999999999124,0.08389952512101762,-0.35040565967788484
2.0009999999998906,0.05182995135988982,-0.43143585097755516
2.2009999999998686,0.013210690092557372,-0.514026736458769
2.4009999999998466,-0.03356125139299867,-0.594713743646464
2.6009999999998246,-0.08716350260798349,-0.6474407299837875
2.8009999999998025,-0.1470879147463569,-0.6572667857780812
3.0009999999997805,-0.21207421836312318,-0.6338091159614747
3.2009999999997585,-0.2855098982587141,-0.5992181533475477
3.4009999999997365,-0.3564604598387534,-0.5471059979770755
3.6009999999997144,-0.425665429658185,-0.4785557780037476
3.8009999999996924,-0.48578049501844484,-0.3994838788071416
4.000999999999671,-0.5346952288917762,-0.31450684855972005
4.200999999999738,-0.556000264518441,-0.22680041801246079
4.400999999999804,-0.5757246017651271,-0.13692666349238283
4.600999999999871,-0.5868740557689929,-0.042010680629544384
4.800999999999938,-0.5960821735945468,0.05598256661417971
5.000000000000004,-0.5778987761688549,0.1461124948343463
5.200000000000071,-0.5407506914093514,0.22679857147103766
5.400000000000138,-0.4910207907403776,0.29662875314493364
5.600000000000205,-0.4371072418975439,0.36815993095936544
5.800000000000272,-0.36786018500717327,0.44007413865210554
6.000000000000338,-0.29811146091129387,0.5217411155500719
6.200000000000405,-0.21139914412765884,0.5937273112888583
6.400000000000472,-0.12734004121527454,0.66374394445864
6.600000000000539,-0.05513684494948606,0.729853233482565
6.800000000000606,0.022184792130545746,0.7770883567461441
7.000000000000672,0.10542966699947307,0.7906819129373965
7.200000000000739,0.19440586832570111,0.776478917784814
7.400000000000806,0.2692805389815777,0.7402361144744265
7.600000000000873,0.3169714039514709,0.6867703768853816
7.8000000000009395,0.3363667575373466,0.6218211990863522
8.000000000001005,0.34203577209721575,0.549752619106645
8.200000000000895,0.31659504218479356,0.46867398336786104
8.400000000000784,0.2685735550151002,0.38377318132356036
8.600000000000673,0.22244804466696513,0.2956625267280934
8.800000000000562,0.17230203213474724,0.20614422683787653
9.000000000000451,0.1029498540458368,0.13209997108468025
9.20000000000034,0.029298377505807903,0.08185044938337123
9.40000000000023,-0.0511654896033905,0.04428194268326992
9.600000000000119,-0.13917900464228258,0.026671220937831554
9.800000000000008,-0.22937131397301372,0.04951772410399091
10.000999999999896,-0.32550019760761256,0.08758833083894098
10.200999999999786,-0.422383216395678,0.12624301244933864
10.400999999999675,-0.5182424098549236,0.17257965636410688
10.600999999999564,-0.613407489097552,0.23055431196462364
10.800999999999453,-0.7013420611579626,0.30189558818336926
11.000999999999342,-0.7851626458297907,0.3822719507365544
11.200999999999231,-0.8688603775891369,0.45172148331535306
11.40099999999912,-0.9491455200845413,0.5284652203711301
11.60099999999901,-1.0231714483027448,0.622361399430735
11.800999999998899,-1.0877076689475078,0.7188864534020887
12.000999999998788,-1.135869526314035,0.8145948914721793
12.200999999998677,-1.171101118153774,0.913172926148784
12.400999999998566,-1.1672450237760332,1.0113900137011043
12.600999999998455,-1.1353729806509407,1.0852305912922215
12.800999999998345,-1.085210372093026,1.123843486918863
13.000999999998234,-1.0234088490546411,1.127372322326499
13.200999999998123,-0.9593612436705853,1.0915931192722998
13.400999999998012,-0.9034024797166282,1.0154884490759324
13.600999999997901,-0.8523922235429301,0.9282120027208115
13.80099999999779,-0.8158994503988801,0.8395338795690385
14.00099999999768,-0.8209899147895336,0.7515226177503351
14.200999999997569,-0.8326042923978477,0.6582492287587732
14.400999999997458,-0.8671187879156764,0.5649563388513916
14.600999999997347,-0.9078352118404354,0.47158874116251104
14.800999999997236,-0.9871120505554186,0.395345594898021
15.000999999997125,-1.0676013915287155,0.328952550412646
15.200999999997014,-1.1564597927176876,0.30129170564962854
15.400999999996904,-1.2529413248425394,0.31576073862067244
15.600999999996793,-1.3502837898297195,0.35453027134736986
15.800999999996682,-1.4448128468130674,0.4001611609973698
16.000999999996573,-1.5228177259717806,0.4595408582808104
16.200999999996817,-1.57833182019035,0.5283123205309088
16.40099999999706,-1.5952072105045896,0.6092213260715805
16.600999999997306,-1.5723709770220655,0.6897467667879496
16.80099999999755,-1.5281337032052718,0.7625163543115395
17.000999999997795,-1.469276159460628,0.8220348348909864
17.20099999999804,-1.3992293851047293,0.8721413471208509
17.400999999998284,-1.3278952998585578,0.9306880020267502
17.60099999999853,-1.2478693369933498,0.9881230266669191
17.800999999998773,-1.1554058716735478,1.0510054352410076
18.000999999999017,-1.0587531480717287,1.1152259933759199
18.20099999999926,-0.9626488705991894,1.1477700049738269
18.400999999999506,-0.8631656727747595,1.153082664808176
18.60099999999975,-0.7593854474658198,1.1384631558914484
18.799999999999994,-0.6608460952880926,1.1030872695078189
19.000000000000238,-0.5618679713082442,1.0523843863086573
19.200000000000482,-0.4845584628580164,0.9926279579569385
19.400000000000727,-0.4378130422628068,0.9226031116795512
19.60000000000097,-0.4490982047766281,0.8471483143310745
19.800000000001216,-0.49030223074878426,0.7753058372913919
20.00000000000146,-0.5552466248279507,0.7309359461379548
