Time (s),X (m),Y (m)
0.001,0.0011546366250239817,-0.00043579054991000363
0.20000000000000015,0.0023572401123529594,2.7111154661351087e-05
0.4000000000000003,0.021502757518057154,-0.004028866858391812
0.6000000000000004,0.04942786973120171,-0.010320512398198584
0.8000000000000006,0.07964159710099113,-0.0145430465126912
1.0000000000000007,0.11988826780333482,-0.02555241432080283
1.2009999999999785,0.15984161835752336,-0.034372745031312386
1.4009999999999565,0.20331807848095845,-0.04353270113884923
1.6009999999999345,0.2491092448136895,-0.05259945192419706
1.8009999999999124,0.2879334202742683,-0.06279716666647851
2.0009999999998906,0.31356270559700056,-0.08842289195794475
2.2009999999998686,0.3301944423941955,-0.12553231462106462
2.4009999999998466,0.344983489882624,-0.15105727950554027
2.6009999999998246,0.3617634400015285,-0.17265880635231498
2.8009999999998025,0.38018745536724885,-0.19960354007536021
3.0009999999997805,0.3905373197862977,-0.23049829661264745
3.2009999999997585,0.3768918835111411,-0.2702943204790574
3.4009999999997365,0.3455501365297177,-0.30477489217136255
3.6009999999997144,0.2964052768147531,-0.3164391246582082
3.8009999999996924,0.25213455209816943,-0.31943394630140987
4.000999999999671,0.2094449380913431,-0.3174051617358624
4.200999999999738,0.1714308257530976,-0.3101724558179367
4.400999999999804,0.13550659575065482,-0.27693410418735914
4.600999999999871,0.11325187953428241,-0.23696672265855354
4.800999999999938,0.10792347913157027,-0.18819712913892697
5.000000000000004,0.10355369349897639,-0.14309123209228902
5.200000000000071,0.10835937359710965,-0.09027933160586407
5.400000000000138,0.1328937318524261,-0.026374665128918322
5.600000000000205,0.16598844315463407,0.04163847838831323
5.800000000000272,0.2112900834169815,0.11723632004464668
6.000000000000338,0.25616393218268296,0.19004864785531275
6.200000000000405,0.30252909344436596,0.2406621782543439
6.400000000000472,0.3489977648074184,0.26829537777184953
6.600000000000539,0.38862222841587435,0.27979607876564067
6.800000000000606,0.4293155500575569,0.27031724570125915
7.000000000000672,0.4754902123662758,0.24776370859885255
7.200000000000739,0.513706359849421,0.21234988171284574
7.400000000000806,0.5426139543247219,0.17788053033663165
7.600000000000873,0.5561664202844213,0.13582181593827816
7.8000000000009395,0.555495289077557,0.0734949026286787
8.000000000001005,0.534356752508922,-0.004161352366054614
8.200000000000895,0.4922022112768923,-0.08724003669437592
8.400000000000784,0.438443900306062,-0.14680442786098566
8.600000000000673,0.37914745450489157,-0.16786967334202696
8.800000000000562,0.3127154818967664,-0.15594169683614098
9.000000000000451,0.24100033617312458,-0.12157432988795108
9.20000000000034,0.1819756471479583,-0.10068743567871545
9.40000000000023,0.1437105854993646,-0.06431600192816317
9.600000000000119,0.12000907409827916,-0.023303144635757892
9.800000000000008,0.11846606404500934,0.03215241260727187
10.000999999999896,0.12905527572934897,0.09641492667958003
10.200999999999786,0.14396123051827417,0.16612108384709784
10.400999999999675,0.18003463709546003,0.22526476881484978
10.600999999999564,0.2319375985043793,0.25879372044861265
10.800999999999453,0.29268785577120915,0.26984642394778396
11.000999999999342,0.35812484322633614,0.252281276754851
11.200999999999231,0.40712217512573545,0.2176783963794833
11.40099999999912,0.4352255932564117,0.17696998544998552
11.60099999999901,0.4481811405937643,0.13910648976149792
11.800999999998899,0.4499388522797114,0.08649198692534178
12.000999999998788,0.43492460144861456,0.026491715145561968
12.200999999998677,0.4054953453904042,-0.04023749466595992
12.400999999998566,0.36467191297450496,-0.10708221843551002
12.600999999998455,0.32656315144059284,-0.16360208205241644
12.800999999998345,0.280426977932474,-0.19746227378494022
13.000999999998234,0.2276968127356321,-0.20640215167437198
13.200999999998123,0.1670761430180808,-0.19814060877591586
13.400999999998012,0.10725463557124401,-0.16160389359054964
13.600999999997901,0.07362288750076583,-0.11450544520994674
13.80099999999779,0.07373794317772343,-0.05183049159334858
14.00099999999768,0.0787013816077606,0.014415336801105072
14.200999999997569,0.09314755829061526,0.08214544347812307
14.400999999997458,0.1411423157844804,0.16030922307947262
14.600999999997347,0.20200663877486125,0.23183532352370512
14.800999999997236,0.2625228084931865,0.27861261056755976
15.000999999997125,0.3192427116788032,0.2906762386106323
15.200999999997014,0.38069156277248883,0.27411129885581764
15.400999999996904,0.43227078716071504,0.24039227849882258
15.600999999996793,0.46460672397506064,0.20695852301374848
15.800999999996682,0.4809615593117673,0.16468418816627564
16.000999999996573,0.4819268278964809,0.11129647845877051
16.200999999996817,0.46876101111536456,0.05560237131514496
16.40099999999706,0.438304475288498,0.0059423078560441244
16.600999999997306,0.4017458126731469,-0.023708922807939146
16.80099999999755,0.35492584503464075,-0.03575009491312268
17.000999999997795,0.30626360812519804,-0.03969485737560098
17.20099999999804,0.257647645053309,-0.04341216463755052
17.400999999998284,0.20748772482132444,-0.037733682011767584
17.60099999999853,0.15159392732923016,-0.018665660542070105
17.800999999998773,0.11174139621693727,0.02574826228495649
18.000999999999017,0.09100279086242369,0.07473363923142033
18.20099999999926,0.07947774025540799,0.12900483076559657
18.400999999999506,0.09491326263891164,0.18969776835749927
18.60099999999975,0.12239923511257936,0.24706781474663228
18.799999999999994,0.1695458980291092,0.29336176488164617
19.000000000000238,0.23140179254306634,0.31543637368291805
19.200000000000482,0.2980428963026664,0.3151413188388445
19.400000000000727,0.365881115583442,0.2942523913559043
19.60000000000097,0.4273647673403974,0.2568860474108768
19.800000000001216,0.45753412151523837,0.20204357969206285
20.00000000000146,0.461616192435255,0.14857758783734867
