Time (s),X (m),Y (m)
0.001,4.1020280575708355e-05,-0.0010155025257856578
0.20000000000000015,0.0010382093483015378,-0.0005856977506339826
0.4000000000000003,0.0023381180494391153,0.0030998906652978425
0.6000000000000004,0.002279157668174437,0.0028419381885091952
0.8000000000000006,0.002399081632938177,0.002688439749567607
1.0000000000000007,0.0023009791355979668,0.003181406568860452
1.2009999999999785,0.003683736738508212,0.0014660773046415324
1.4009999999999565,0.005066985099883074,0.0021964505633112297
1.6009999999999345,0.0066423656893574625,0.0018385820950918021
1.8009999999999124,0.007557649958445272,0.0018065490387225965
2.0009999999998906,0.00915058992018773,0.0034054260600741397
2.2009999999998686,0.010645403700008558,0.000904212874291998
2.4009999999998466,0.012364385647596784,0.0027211256661637396
2.6009999999998246,0.013966964435673577,0.0010744896280691406
2.8009999999998025,0.015041640315547881,0.0031267469015952187
3.0009999999997805,0.01584853454429716,0.0025293722982615914
3.2009999999997585,0.016045916418564125,0.002592300328922652
3.4009999999997365,0.01586869729437893,0.0027123313728817976
3.6009999999997144,0.01562601500188291,0.002475983480744524
3.8009999999996924,0.01533131477649548,0.00284910010076779
4.000999999999671,0.015124292635937581,0.0028868519120377146
4.200999999999738,0.014919980911469804,0.002762814128921672
4.400999999999804,0.014657209636507745,0.0031433212312576603
4.600999999999871,0.014450989701520926,0.003249326939833642
4.800999999999938,0.014270275329884705,0.0030522650872643084
5.000000000000004,0.014007450273746669,0.0033883377743716405
5.200000000000071,0.01379789897052966,0.0035000031627440854
5.400000000000138,0.013633712651922548,0.0032561083441372822
5.600000000000205,0.013377096727065902,0.0035197202998036117
5.800000000000272,0.013172271805805536,0.0036631154752610217
6.000000000000338,0.013018764267650067,0.0034089445255045623
6.200000000000405,0.01277224830769161,0.003588297061778386
6.400000000000472,0.012553277007721814,0.0037849143624356873
6.600000000000539,0.012418145972463348,0.0034955647249689335
6.800000000000606,0.012185388236274155,0.0036404723584272914
7.000000000000672,0.011973420358041751,0.0038478831275324324
7.200000000000739,0.011849271489913491,0.003550489376693494
7.400000000000806,0.011628126475994233,0.003628545351602275
7.600000000000873,0.011397837712588557,0.003849420705155867
7.8000000000009395,0.01128150644301986,0.003583153017451004
8.000000000001005,0.01107499168595754,0.0036182249884787565
8.200000000000895,0.010836922512969315,0.0038655773321606976
8.400000000000784,0.01072285626678071,0.0036062284272660172
8.600000000000673,0.010531754715745969,0.003549268292756649
8.800000000000562,0.010279981338243042,0.0038147238342607966
9.000000000000451,0.010174038680408072,0.003544589659350215
9.20000000000034,0.010002284184909166,0.0034479350025941155
9.40000000000023,0.00975455807120712,0.00372598279457751
9.600000000000119,0.009645047798594698,0.0035098539511185718
9.800000000000008,0.009490523820113634,0.0033414238541071006
10.000999999999896,0.009236927878582902,0.003597006832446779
10.200999999999786,0.009108759888725124,0.0034788760762949522
10.400999999999675,0.008991688164424366,0.0032290626835288112
10.600999999999564,0.0087358933486994,0.003489551739760603
10.800999999999453,0.008594190262140582,0.0034043959260477655
11.000999999999342,0.008502334221114924,0.003125818277355946
11.200999999999231,0.008255042978011412,0.0033536846834445813
11.40099999999912,0.008108451844366125,0.003331941038616357
11.60099999999901,0.008033354599054108,0.003028608139328485
11.800999999998899,0.007793769424711755,0.003218652837022148
12.000999999998788,0.0076282094683779895,0.003273029469321836
12.200999999998677,0.007574561146014053,0.002953391042329418
12.400999999998566,0.0073578455757406114,0.0031015136910204025
12.600999999998455,0.007178379063132308,0.003206741317507742
12.800999999998345,0.007135629089840436,0.0028999598126671945
13.000999999998234,0.006929279239607278,0.002988958200015904
13.200999999998123,0.006736820337336756,0.0031580863247617336
13.400999999998012,0.006705321160731204,0.0028449931144182905
13.600999999997901,0.006527461031520805,0.0028811198646552477
13.80099999999779,0.006311573590695458,0.003092619032985209
14.00099999999768,0.0062811572094949785,0.0028226246119435086
14.200999999997569,0.006130392587937782,0.002797274621875329
14.400999999997458,0.005892733859417722,0.003044211493951916
14.600999999997347,0.005862544430092661,0.0027984614640858495
14.800999999997236,0.00574948616559596,0.0027101592160710315
15.000999999997125,0.005503239089482396,0.00297271084637384
15.200999999997014,0.005458795958807189,0.002772561280351602
15.400999999996904,0.005381632746737507,0.00262216178179852
15.600999999996793,0.005126545647560242,0.002908782508520309
15.800999999996682,0.005060211061183514,0.002789488141955311
16.000999999996573,0.0050107457953568165,0.002573342862697357
16.200999999996817,0.004756319452834247,0.002820672062464727
16.40099999999706,0.004666786146559074,0.0027821569127554325
16.600999999997306,0.004644968585412357,0.0025437625165719456
16.80099999999755,0.004409177052671066,0.0027765142684360077
17.000999999997795,0.00428927641024605,0.002812488370243179
17.20099999999804,0.00429328630256329,0.0025383059063662818
17.400999999998284,0.004068147451151635,0.00273005307835627
17.60099999999853,0.003915681636968463,0.0028551008113464824
17.800999999998773,0.003942446158580904,0.0025958209467865302
18.000999999999017,0.003752504529027271,0.002722375786089311
18.20099999999926,0.003563818815610913,0.002902730104744609
18.400999999999506,0.003604354272526525,0.0026315862339978667
18.60099999999975,0.0034494374973739216,0.002708748041676592
18.799999999999994,0.003237608421006404,0.0029396943705363187
19.000000000000238,0.003272936606700949,0.0027114942607729333
19.200000000000482,0.003138907827525259,0.0027361446014540197
19.400000000000727,0.002915397649936758,0.002968596565247298
19.60000000000097,0.002952067773300771,0.0027618931490206357
19.800000000001216,0.0028639335994254563,0.002723403653075081
20.00000000000146,0.0026245585989083313,0.0029873464746361677
