Time (s),X (m),Y (m)
0.001,0.0010647643868879006,-0.0005914538325516239
0.20000000000000015,0.0004366156499967418,0.0020924546171573358
0.4000000000000003,0.006049567028170622,-6.337351176791165e-05
0.6000000000000004,0.01758538733919765,-0.005345708362498694
0.8000000000000006,0.017847917945509818,-0.0009522834284097729
1.0000000000000007,0.0314994516483603,-0.0055282350824563875
1.2009999999999785,0.04207928572987807,-0.001097649023957502
1.4009999999999565,0.05694599649908111,0.004763903795232069
1.6009999999999345,0.07270790640821798,0.00473113223452247
1.8009999999999124,0.0858929477640699,0.0015268945566858897
2.0009999999998906,0.09838201879389744,0.00390849503459564
2.2009999999998686,0.11589590501743605,0.0013655181189458194
2.4009999999998466,0.1309592615618128,0.0038430247374928598
2.6009999999998246,0.14817115128846892,0.0015690169759141987
2.8009999999998025,0.1645274749827589,0.0038786122836330455
3.0009999999997805,0.18628022965321528,0.00040828005948229817
3.2009999999997585,0.1981998192901085,-0.0028699666379352513
3.4009999999997365,0.20872216409454647,-0.0005027706657646639
3.6009999999997144,0.22310640961524442,-0.0037476945023207356
3.8009999999996924,0.2366629412379147,0.0003466999542963829
4.000999999999671,0.2520791901985476,0.0018224078851491322
4.200999999999738,0.26582204339277243,0.0061337822733243536
4.400999999999804,0.28748173764777774,0.001268684326209687
4.600999999999871,0.31190028909912176,-0.005313106690203454
4.800999999999938,0.32919517858041664,-0.011298529943548817
5.000000000000004,0.3485924192926448,-0.014348157874174339
5.200000000000071,0.3656861933429714,-0.01359331881874331
5.400000000000138,0.383961628212346,-0.01478739135022243
5.600000000000205,0.41413064594443444,-0.02152297609252446
5.800000000000272,0.4350336116065617,-0.0229634625080255
6.000000000000338,0.45147208975374326,-0.025052881237492133
6.200000000000405,0.47194126172218803,-0.03426362013100319
6.400000000000472,0.4918960191796504,-0.03937554618172831
6.600000000000539,0.5130764376838446,-0.04054018140406407
6.800000000000606,0.540247285276542,-0.056989140176695485
7.000000000000672,0.5642594458678794,-0.06502581635438129
7.200000000000739,0.5809989637878228,-0.06866013070686931
7.400000000000806,0.5943915624163918,-0.0691431942665112
7.600000000000873,0.6133815281197916,-0.0690295929314074
7.8000000000009395,0.6294398318802096,-0.07516606150586398
8.000000000001005,0.6420788625037706,-0.07898852096517585
8.200000000000895,0.6631421787263075,-0.0905096024787995
8.400000000000784,0.685362718980223,-0.10100462560820203
8.600000000000673,0.7038983961820902,-0.11188763429322295
8.800000000000562,0.7197130625124402,-0.11288911298722516
9.000000000000451,0.7318938454131062,-0.12494840051135345
9.20000000000034,0.7415533272977435,-0.14253059469263352
9.40000000000023,0.755029585248416,-0.1648489914201853
9.600000000000119,0.7662908423707916,-0.17858559097572263
9.800000000000008,0.773027770447125,-0.1974003726078327
10.000999999999896,0.7790196230911531,-0.2176056383154533
10.200999999999786,0.7814995419833392,-0.23825799804797723
10.400999999999675,0.784720998476126,-0.2612813518179417
10.600999999999564,0.7876609117809155,-0.2848345453705764
10.800999999999453,0.7875546023579543,-0.311516242224764
11.000999999999342,0.7810023298284535,-0.3404321416630995
11.200999999999231,0.7798813989251098,-0.357677542225104
11.40099999999912,0.7759419057668273,-0.3776511693034695
11.60099999999901,0.7762932739124047,-0.3930772861886766
11.800999999998899,0.7734121656982149,-0.4162127248992139
12.000999999998788,0.7740098146160223,-0.44757886066125774
12.200999999998677,0.7718013411537722,-0.4724210064695336
12.400999999998566,0.7730113904603771,-0.4885424208130709
12.600999999998455,0.7749501484138869,-0.5148971361615166
12.800999999998345,0.7727323953616049,-0.5442562115952655
13.000999999998234,0.7648747374638999,-0.5705179286447912
13.200999999998123,0.7615657393548774,-0.5954936801516728
13.400999999998012,0.76077298638556,-0.615183053061966
13.600999999997901,0.7584782585431662,-0.6327583159458675
13.80099999999779,0.7596587874597384,-0.650085289197288
14.00099999999768,0.7513418194038183,-0.6746509991208323
14.200999999997569,0.7393565323304777,-0.7003839282897367
14.400999999997458,0.724823074475739,-0.7303961293290704
14.600999999997347,0.7066220815427273,-0.7556396189913888
14.800999999997236,0.6956437244292988,-0.7770481077720304
15.000999999997125,0.6814439637264322,-0.8035226097808684
15.200999999997014,0.6714898830542936,-0.8335832119168208
15.400999999996904,0.6594244452966489,-0.8550139394431446
15.600999999996793,0.652932472018688,-0.8798936931295265
15.800999999996682,0.6393097540850957,-0.9003618863952578
16.000999999996573,0.6110737589987442,-0.9232392518119271
16.200999999996817,0.5873057423553832,-0.9440491749096163
16.40099999999706,0.5720992680443668,-0.9569056295859465
16.600999999997306,0.5549622233833283,-0.9666063835574665
16.80099999999755,0.5224082216850616,-0.9742658950279259
17.000999999997795,0.4984841684897414,-0.9798097032496208
17.20099999999804,0.4741794749922571,-0.9801526469341992
17.400999999998284,0.4577771379531356,-0.9831764725999637
17.60099999999853,0.4342489314429683,-0.9810576767021589
17.800999999998773,0.40681117142967843,-0.9725389526041219
18.000999999999017,0.3795414492061091,-0.9714387925532456
18.20099999999926,0.35441204069650684,-0.9648250143157817
18.400999999999506,0.3354745896557767,-0.9633034243724099
18.60099999999975,0.31450879898560025,-0.9618558378896234
18.799999999999994,0.29059513781458085,-0.9609238833816677
19.000000000000238,0.2629117562270344,-0.9562315049725278
19.200000000000482,0.2302853686256927,-0.9450583575364134
19.400000000000727,0.20289499371083974,-0.9376901890882774
19.60000000000097,0.18756004611559177,-0.9324304582204764
19.800000000001216,0.16831526264249214,-0.9271468213865245
20.00000000000146,0.14368284508066914,-0.9217764240357688
