Time (s),X (m),Y (m)
0.001,0.0010100015126501532,0.0006628221997479689
0.20000000000000015,-0.0015116400593282015,-0.0023497705724445845
0.4000000000000003,-0.0034337304938207177,-0.006571284951559398
0.6000000000000004,0.0020077762797763845,-0.003703068611204048
0.8000000000000006,0.016597129497366844,0.006026528394073542
1.0000000000000007,0.020832347449139,0.010604637935968015
1.2009999999999785,0.029999147681489504,0.02276308211886578
1.4009999999999565,0.03644683664569528,0.028249029312012817
1.6009999999999345,0.047047131837989815,0.037067919290253624
1.8009999999999124,0.06407713144403639,0.03824676952120273
2.0009999999998906,0.07098686238357291,0.041227027131504
2.2009999999998686,0.08148894262988331,0.046726527125695014
2.4009999999998466,0.10184338560038726,0.052882469764647395
2.6009999999998246,0.11544642925103676,0.061997779329624296
2.8009999999998025,0.12966076794637746,0.07221169587243499
3.0009999999997805,0.14764605081747048,0.08576037692768683
3.2009999999997585,0.1570672330306537,0.08683196011342115
3.4009999999997365,0.16643139873802704,0.09267337621742489
3.6009999999997144,0.18435049046428145,0.10607952825872852
3.8009999999996924,0.1986859141176039,0.1135022291127629
4.000999999999671,0.2122376202176697,0.12821909554929378
4.200999999999738,0.22520126731654774,0.13844947714430775
4.400999999999804,0.2370886896350656,0.1483499612364309
4.600999999999871,0.24884908444018525,0.16112895348196551
4.800999999999938,0.26341277451841844,0.17678202025073886
5.000000000000004,0.27994259778675673,0.190302989057239
5.200000000000071,0.2951277525874741,0.20114593332332534
5.400000000000138,0.3088909815317081,0.21319435989618216
5.600000000000205,0.3229950520498328,0.2274349849414362
5.800000000000272,0.33993150188098603,0.23467991550082698
6.000000000000338,0.3509551199266676,0.2413448379001523
6.200000000000405,0.360545144731956,0.24599313886565538
6.400000000000472,0.3759154125611546,0.2519317785333694
6.600000000000539,0.38887135920120214,0.26140480995559523
6.800000000000606,0.40338493410382553,0.2717393641714928
7.000000000000672,0.41511798792944204,0.2808567248539134
7.200000000000739,0.4250427589866491,0.29247801822481445
7.400000000000806,0.44212624988910526,0.29868858376696045
7.600000000000873,0.4568564114075606,0.3061820124337618
7.8000000000009395,0.4676734135760507,0.3215186318655832
8.000000000001005,0.47634337957344663,0.3344054273403192
8.200000000000895,0.48673446950105215,0.35169849812997744
8.400000000000784,0.4954045013079957,0.3729578809610046
8.600000000000673,0.504623259575615,0.3893378715237964
8.800000000000562,0.5177576760208588,0.39817878875053264
9.000000000000451,0.5331530203850863,0.4173531067919375
9.20000000000034,0.54933720149551,0.43710296273254273
9.40000000000023,0.564523901077499,0.4495177689199836
9.600000000000119,0.5871283643847224,0.46399399514873074
9.800000000000008,0.6054960495703605,0.47839181830910643
10.000999999999896,0.6192076433982369,0.49526495637601614
10.200999999999786,0.6241250798059549,0.5226986129177491
10.400999999999675,0.6295361479867976,0.5468776264570758
10.600999999999564,0.6395893492372304,0.5646642532880644
10.800999999999453,0.6484122396610879,0.5922102982896648
11.000999999999342,0.6575421542447311,0.6053326065477893
11.200999999999231,0.6659807494041142,0.6154365868665471
11.40099999999912,0.6708709222847979,0.6337980812686617
11.60099999999901,0.6716622787999854,0.6502513982812509
11.800999999998899,0.6774557499017905,0.6676783830956464
12.000999999998788,0.6890868363072039,0.6835303083778674
12.200999999998677,0.6990296479823197,0.7018549146900274
12.400999999998566,0.7035591329743772,0.7221363169531557
12.600999999998455,0.7118850851192383,0.7339725157588259
12.800999999998345,0.7233230670265287,0.7478137296417349
13.000999999998234,0.7337183859455155,0.7625002125227511
13.200999999998123,0.7403545134474862,0.7830458193010218
13.400999999998012,0.7532300528648205,0.8022910475330078
13.600999999997901,0.7643944176966515,0.8199441366559594
13.80099999999779,0.7744673085365054,0.8398999914896962
14.00099999999768,0.7817945239005124,0.8600494253016406
14.200999999997569,0.7874962945879569,0.8791175340115658
14.400999999997458,0.7939340729840881,0.8943527962891931
14.600999999997347,0.8030326747688167,0.9037968607184257
14.800999999997236,0.8155826065441122,0.9252132217385823
15.000999999997125,0.8264117737965309,0.946762768720177
15.200999999997014,0.8348584606184857,0.9639757539480676
15.400999999996904,0.8420472873857254,0.9845206673378898
15.600999999996793,0.8412388963158913,1.014305650646473
15.800999999996682,0.8385217971583279,1.0298812134087771
16.000999999996573,0.8435686444405196,1.051048070915332
16.200999999996817,0.8463366146687489,1.071255943492117
16.40099999999706,0.841832222067963,1.0945779227261858
16.600999999997306,0.8444109260046878,1.1167596823118915
16.80099999999755,0.8448756692677983,1.1289838996305994
17.000999999997795,0.8421552554480467,1.1422830070093226
17.20099999999804,0.836784628483671,1.1597820860557289
17.400999999998284,0.8402891547519707,1.179294101617599
17.60099999999853,0.8439235404395234,1.2004132318102265
17.800999999998773,0.839614367203171,1.220747985852612
18.000999999999017,0.8323056950401756,1.2408841336507377
18.20099999999926,0.8280928695438392,1.2634169309889418
18.400999999999506,0.8277383472712337,1.2881266984169748
18.60099999999975,0.8200864591957385,1.3102933265270906
18.799999999999994,0.8173917629121363,1.3310092397401636
19.000000000000238,0.8133370347282745,1.3577973679627862
19.200000000000482,0.8122566102761662,1.3750335358048955
19.400000000000727,0.8042929778200448,1.4037934717044276
19.60000000000097,0.801306098196618,1.4251941421253744
19.800000000001216,0.7898941445642159,1.4490769972311448
20.00000000000146,0.7829038474486266,1.4785541106330826
