Time (s),X (m),Y (m)
0.001,-0.00013259955118837574,-0.0009689812320744441
0.20000000000000015,0.002729773776400516,0.004187095102917238
0.4000000000000003,0.0052203732652022815,0.007814936667022439
0.6000000000000004,0.005978468329246241,0.006976300055771301
0.8000000000000006,0.006784599485913789,0.006889164526840422
1.0000000000000007,0.009458335161853081,0.006975115794120774
1.2009999999999785,0.012467375744212295,0.007263513945302723
1.4009999999999565,0.015297689021908818,0.008025433744672978
1.6009999999999345,0.01819036224169761,0.008660057803363782
1.8009999999999124,0.02178043308881916,0.010239018644915486
2.0009999999998906,0.02492513799458008,0.01240698972738116
2.2009999999998686,0.027853357630672076,0.013422457889048474
2.4009999999998466,0.03187387504580434,0.013719216955036737
2.6009999999998246,0.0350679594644919,0.014794092983729162
2.8009999999998025,0.03822357416184548,0.016149793943687093
3.0009999999997805,0.0417650545415368,0.016958299031173255
3.2009999999997585,0.04537886963986895,0.018869096800092643
3.4009999999997365,0.04876101625114761,0.020344074128020036
3.6009999999997144,0.05192267025096212,0.022575440606276153
3.8009999999996924,0.05534154509235943,0.02600715281888401
4.000999999999671,0.05855098791124921,0.027749946141411515
4.200999999999738,0.06178140270988062,0.03034951283608773
4.400999999999804,0.06605028764498178,0.03284511889851546
4.600999999999871,0.06952835133054505,0.03496670795923468
4.800999999999938,0.07295252299282202,0.03822014503916484
5.000000000000004,0.0761758673914916,0.042102775488045245
5.200000000000071,0.0780158891205628,0.046142907664879045
5.400000000000138,0.07995839612624456,0.05097879279147019
5.600000000000205,0.0821629037445062,0.05509343366479484
5.800000000000272,0.08361765804100764,0.05834643178505074
6.000000000000338,0.08379650582051767,0.06505359249910377
6.200000000000405,0.08637734237872947,0.06745950824157598
6.400000000000472,0.08580458802891569,0.0736564047818439
6.600000000000539,0.08789392713189846,0.07722491874983232
6.800000000000606,0.08825743538491364,0.07999947824670915
7.000000000000672,0.08895969288187287,0.08403044518908653
7.200000000000739,0.08861916808210892,0.08795803737166956
7.400000000000806,0.08856116000074943,0.09133559662213991
7.600000000000873,0.08635712271866221,0.09779830043228102
7.8000000000009395,0.08650246244380146,0.10113824798525095
8.000000000001005,0.08597031712401353,0.10476815012396903
8.200000000000895,0.08354594646852219,0.10902665322401522
8.400000000000784,0.08383141887661892,0.11224587415591435
8.600000000000673,0.08286139588697863,0.11542183375184596
8.800000000000562,0.0819962435339139,0.11844223318190333
9.000000000000451,0.08068929621126995,0.12135631825944226
9.20000000000034,0.07757828060602297,0.12441245845014584
9.40000000000023,0.07648187821785818,0.12749806778487002
9.600000000000119,0.07443103510276634,0.1303643084979281
9.800000000000008,0.07098447359155506,0.1329929966528072
10.000999999999896,0.0671492921384806,0.135499072288579
10.200999999999786,0.06662804284392414,0.13849865106948836
10.400999999999675,0.0621240349909023,0.13967617357895565
10.600999999999564,0.05925704275343347,0.14183193560607307
10.800999999999453,0.05672748544044817,0.14423043455624893
11.000999999999342,0.05585717069952566,0.1456011735765663
11.200999999999231,0.053185250841530654,0.14777934041048885
11.40099999999912,0.05326952524978298,0.150006944143714
11.60099999999901,0.04761186175286552,0.15054560840893816
11.800999999998899,0.04389679533648169,0.15144391695795273
12.000999999998788,0.03621695270625307,0.1500999953482037
12.200999999998677,0.03094148043338578,0.1485751396157435
12.400999999998566,0.025679680601031974,0.14757903630627442
12.600999999998455,0.022231049079755986,0.14739687204231136
12.800999999998345,0.018792701781626422,0.1474321141036976
13.000999999998234,0.014266111286661705,0.14595711512232806
13.200999999998123,0.010938314338301473,0.1458743198368575
13.400999999998012,0.006978327703006327,0.14577962141659115
13.600999999997901,0.0024247669210549646,0.14579245404402708
13.80099999999779,-0.0010858213557823177,0.14518191113575393
14.00099999999768,-0.004826143731110222,0.14436344525721845
14.200999999997569,-0.0093469285383262,0.14284429982675645
14.400999999997458,-0.013063135642278265,0.14238912559367725
14.600999999997347,-0.016994134394838854,0.14099700949531846
14.800999999997236,-0.021589482328822844,0.1396997136254181
15.000999999997125,-0.025486185170475618,0.13830370529995872
15.200999999997014,-0.029449845456812007,0.13691868108079996
15.400999999996904,-0.03393968423653231,0.13541875042857007
15.600999999996793,-0.03813274056867657,0.1334297882811821
15.800999999996682,-0.041493591157457696,0.13195108336414635
16.000999999996573,-0.045239098575403515,0.12893284209357597
16.200999999996817,-0.048573530400921446,0.12640438396569326
16.40099999999706,-0.0515739677866191,0.12141788232823461
16.600999999997306,-0.054776851128690164,0.12035020606626426
16.80099999999755,-0.057388088771612805,0.11580301978870965
17.000999999997795,-0.05985738294111994,0.11174141759089025
17.20099999999804,-0.06233521374806178,0.1079132644081951
17.400999999998284,-0.06521724267631339,0.11018769128400051
17.60099999999853,-0.06728475105324168,0.10722911327455732
17.800999999998773,-0.06998551914835634,0.10677113835838199
18.000999999999017,-0.0693925248882924,0.10058216932374776
18.20099999999926,-0.07063937274903219,0.09532932270407432
18.400999999999506,-0.07251239879289872,0.09379015779902132
18.60099999999975,-0.07248282676260911,0.08923420859339623
18.799999999999994,-0.07336995871261652,0.08619444669864999
19.000000000000238,-0.07248628038419205,0.08084992444821734
19.200000000000482,-0.07264724563588197,0.07694884697707464
19.400000000000727,-0.07287873182754066,0.0739738922672383
19.60000000000097,-0.07026218622150865,0.06901483644059668
19.800000000001216,-0.0690601047377655,0.06430851544794244
20.00000000000146,-0.06714575916215353,0.06038602170006629
