Time (s),X (m),Y (m)
0.001,-0.0005698399629515257,-0.0006628221997479689
0.20000000000000015,-0.002576078462842557,-0.002802617757720306
0.4000000000000003,0.0015278770964982434,-0.0020758457954624825
0.6000000000000004,0.006059528181704925,-5.4195749107010234e-05
0.8000000000000006,0.009011280751864621,-0.0032226073131289526
1.0000000000000007,0.01889675633377196,0.004658656125334544
1.2009999999999785,0.025387303489105444,0.0010394903174573925
1.4009999999999565,0.03288888586732189,0.004235838543572635
1.6009999999999345,0.03834071945768794,8.400192783871672e-05
1.8009999999999124,0.04466136361642711,-0.000959720892700665
2.0009999999998906,0.05270347540142582,0.0019001840322117097
2.2009999999998686,0.062046336649598376,0.005479655597406738
2.4009999999998466,0.06618383283256894,0.0027557739886531337
2.6009999999998246,0.07573334775175734,0.007153466428038038
2.8009999999998025,0.08361628922610875,0.009852293020466715
3.0009999999997805,0.09056587946208301,0.017217369162710966
3.2009999999997585,0.10192142835848478,0.024756452108602847
3.4009999999997365,0.11017582130815533,0.030920984305713762
3.6009999999997144,0.11784006147403862,0.03433437188938243
3.8009999999996924,0.12443761797194733,0.033903880392803724
4.000999999999671,0.13095135640254496,0.04248445146268876
4.200999999999738,0.13892815294697392,0.04988236312211034
4.400999999999804,0.14655514987553714,0.05155780552439479
4.600999999999871,0.15443905023508991,0.05818696130469501
4.800999999999938,0.16235995148656127,0.06268493491702597
5.000000000000004,0.16789059894146588,0.06821311254944132
5.200000000000071,0.17459353975503308,0.07491952665154318
5.400000000000138,0.17917655242680833,0.08032685120723691
5.600000000000205,0.18345567586981,0.08918991656740201
5.800000000000272,0.18851065283766916,0.09607516285230501
6.000000000000338,0.19546037783616302,0.09964871433268549
6.200000000000405,0.20249873696273318,0.10794030642247236
6.400000000000472,0.2117059721248665,0.1140645131265697
6.600000000000539,0.21923979401887478,0.11955805787174201
6.800000000000606,0.2257677560372565,0.12566963313742985
7.000000000000672,0.2325041251796742,0.13177847443307317
7.200000000000739,0.23790721218268826,0.14230669451348277
7.400000000000806,0.24309802704210048,0.15188032797667986
7.600000000000873,0.24528528928010432,0.15927772952249164
7.8000000000009395,0.24876817429023293,0.16998755698062915
8.000000000001005,0.2528408710174172,0.17956388965405695
8.200000000000895,0.25787626607871383,0.18859748733019763
8.400000000000784,0.261487632983338,0.19467209238536218
8.600000000000673,0.2620735440800546,0.2027736100700536
8.800000000000562,0.2615095376149216,0.20986886406863725
9.000000000000451,0.2601271015037674,0.22018342194314489
9.20000000000034,0.2607428489570552,0.22861259392547428
9.40000000000023,0.26134905276458265,0.23710600857526468
9.600000000000119,0.2632906357825108,0.24841700799675612
9.800000000000008,0.26509885876174866,0.2594002106541008
10.000999999999896,0.26104061512486104,0.2706196158720963
10.200999999999786,0.2574820451015377,0.282658038947448
10.400999999999675,0.2571721006336026,0.2909167899998362
10.600999999999564,0.25071988117145066,0.30201628316936774
10.800999999999453,0.24726996338693247,0.31366122897499205
11.000999999999342,0.24985751440851947,0.32141077074503016
11.200999999999231,0.24545272497086806,0.33189060358151307
11.40099999999912,0.24467469928551008,0.3371109425196792
11.60099999999901,0.23846716084531358,0.3462329336992371
11.800999999998899,0.23456379114336656,0.3563468843432527
12.000999999998788,0.22536916165601475,0.3673176559650757
12.200999999998677,0.21912343445802115,0.3782025448546012
12.400999999998566,0.2145297733276002,0.39020664795363724
12.600999999998455,0.21201835564266114,0.39469014479504155
12.800999999998345,0.2066008169846411,0.40209264104993553
13.000999999998234,0.20032943811543125,0.41284705015728035
13.200999999998123,0.19569178798571096,0.4185152281175284
13.400999999998012,0.19343957550687735,0.4239283613892054
13.600999999997901,0.18832590436235352,0.4292972480007634
13.80099999999779,0.17766361138927014,0.4348369687424387
14.00099999999768,0.17015586380191608,0.4406074084611892
14.200999999997569,0.16220095230323697,0.44666715690771336
14.400999999997458,0.15012875547306734,0.45101236981514653
14.600999999997347,0.14658760637725826,0.4551488522399997
14.800999999997236,0.14014873732373664,0.4603649807034679
15.000999999997125,0.1340611595512182,0.4634142866434793
15.200999999997014,0.12351448882524256,0.46445874195234627
15.400999999996904,0.1130297542900751,0.4636296123547216
15.600999999996793,0.10548140039486048,0.46664683542116797
15.800999999996682,0.09548404563494806,0.46776635318137433
16.000999999996573,0.08564295220953543,0.47014305491730735
16.200999999996817,0.07516087219846417,0.4685068746260021
16.40099999999706,0.0629962951306754,0.46694999593481074
16.600999999997306,0.05000703741908606,0.4664401140784426
16.80099999999755,0.04364677374773737,0.4683888552457962
17.000999999997795,0.03491465799131484,0.4677954813309984
17.20099999999804,0.022614175899815993,0.4645789173040878
17.400999999998284,0.011083724363038215,0.46186365506511956
17.60099999999853,0.003642900328509255,0.46413374464258794
17.800999999998773,-0.0063395948390980875,0.4619711544590659
18.000999999999017,-0.019468308019164167,0.456552836789531
18.20099999999926,-0.0280291237365006,0.45742193249616475
18.400999999999506,-0.03835649210587171,0.4544186417495896
18.60099999999975,-0.04908791881094357,0.4503898602062588
18.799999999999994,-0.06028934446788769,0.4401229298670558
19.000000000000238,-0.06928720314898128,0.43693387040014336
19.200000000000482,-0.08176895149834544,0.4289878058702935
19.400000000000727,-0.09275015105965301,0.4227497994861984
19.60000000000097,-0.1046525341068623,0.4141426843756448
19.800000000001216,-0.11064632704816066,0.41243500133197086
20.00000000000146,-0.11554900093239122,0.4105485830526165
