Time (s),X (m),Y (m)
0.001,-0.0005698399629515257,0.0006628221997479692
0.20000000000000015,0.005251920327365997,-0.0021855859655834815
0.4000000000000003,0.01575848307409909,-0.00669242617919927
0.6000000000000004,0.023877069812365613,-0.01732466954518688
0.8000000000000006,0.0443305134950156,-0.025942875511627037
1.0000000000000007,0.06183769555271278,-0.02574756283885083
1.2009999999999785,0.08362896976898651,-0.024805815983370512
1.4009999999999565,0.11178355206192934,-0.030664236687561023
1.6009999999999345,0.1413490576862393,-0.046893401024932474
1.8009999999999124,0.17125304613342957,-0.0657490953436489
2.0009999999998906,0.2021560898737824,-0.09711402278231979
2.2009999999998686,0.2257196412059246,-0.138561074643428
2.4009999999998466,0.23952965145261834,-0.18907054595953732
2.6009999999998246,0.24825470403962663,-0.24703561165119323
2.8009999999998025,0.23817917966179547,-0.3036631054044316
3.0009999999997805,0.22583115958694042,-0.35773506841385605
3.2009999999997585,0.20190408757966424,-0.4033116586788771
3.4009999999997365,0.1740480409203403,-0.43127484821215234
3.6009999999997144,0.1379302295422392,-0.43145581500673585
3.8009999999996924,0.09667424566815795,-0.41041604245906393
4.000999999999671,0.05481004394572626,-0.36263911884681693
4.200999999999738,0.024561463123188205,-0.30664470648409364
4.400999999999804,0.0017747008537885391,-0.2589029999966913
4.600999999999871,-0.011155237442578516,-0.2048067793620937
4.800999999999938,-0.01703078239459639,-0.15346180469456974
5.000000000000004,-0.016945265130175788,-0.09073213895362092
5.200000000000071,-0.017555688529927952,-0.021862368295864423
5.400000000000138,-0.01669463173726968,0.03596695838291974
5.600000000000205,-0.004956809002300221,0.08472281604114759
5.800000000000272,0.02163840320036398,0.1306603779726468
6.000000000000338,0.0484843154246134,0.1744715801982593
6.200000000000405,0.08042078602630681,0.2027855063858686
6.400000000000472,0.1318209999607677,0.221083080155642
6.600000000000539,0.19247304724627154,0.2216719481803727
6.800000000000606,0.2570792502446009,0.2041835498330948
7.000000000000672,0.31837678920860624,0.17305385352195593
7.200000000000739,0.36418276415575856,0.11038788449914683
7.400000000000806,0.3913877244455057,0.04340905141637933
7.600000000000873,0.4010885455531173,-0.0308858702357182
7.8000000000009395,0.4136589300375922,-0.09561263737491567
8.000000000001005,0.4160399055322307,-0.15940490553223782
8.200000000000895,0.3977130154869394,-0.2176212407053992
8.400000000000784,0.3682424964915718,-0.2579049925832083
8.600000000000673,0.32723081304279195,-0.2697804373076819
8.800000000000562,0.2749797153423656,-0.2605955333827047
9.000000000000451,0.2243251259437659,-0.24912893604984823
9.20000000000034,0.18352433938378182,-0.22394531589947633
9.40000000000023,0.15522983513283525,-0.18344363913114503
9.600000000000119,0.13706019317625506,-0.13422357889866185
9.800000000000008,0.12731535658416032,-0.08166959764500967
10.000999999999896,0.12129972266321801,-0.026538938942366065
10.200999999999786,0.11411394339576923,0.0281370721044015
10.400999999999675,0.12501513688237317,0.08347862437301723
10.600999999999564,0.13905757819888576,0.1338054647519555
10.800999999999453,0.16758270570990463,0.17054414165495854
11.000999999999342,0.2123654884343352,0.196213504782238
11.200999999999231,0.2674187619618778,0.20591161688176027
11.40099999999912,0.3281923363854909,0.19049575492153176
11.60099999999901,0.3861535645848815,0.15630224973006632
11.800999999998899,0.43067522610814496,0.10727603458329961
12.000999999998788,0.44902149173628103,0.059827112266478605
12.200999999998677,0.4555824940793246,0.007958575336671837
12.400999999998566,0.4466686506584807,-0.045106313237766336
12.600999999998455,0.41670068568791147,-0.10075466388357165
12.800999999998345,0.4055696317402271,-0.15745213568449226
13.000999999998234,0.38792867131057085,-0.21191991461641232
13.200999999998123,0.35632569491354255,-0.26077742733706444
13.400999999998012,0.3236355443067563,-0.2995447602697867
13.600999999997901,0.2728570046405308,-0.32284204854054105
13.80099999999779,0.21445197069934233,-0.33478371366798426
14.00099999999768,0.157230359556712,-0.34433325896953754
14.200999999997569,0.10303823475455948,-0.32522081152833304
14.400999999997458,0.06630960533353568,-0.27856834270385
14.600999999997347,0.05614880041662387,-0.2270947845208118
14.800999999997236,0.06590073652883503,-0.16798770150586723
15.000999999997125,0.07228352181601183,-0.10853896921648368
15.200999999997014,0.11098953735341202,-0.06017122864366185
15.400999999996904,0.16145809883281143,-0.02656542586387891
15.600999999996793,0.21684916557551523,-0.022896409721223157
15.800999999996682,0.26714547958461626,-0.04498257139836717
16.000999999996573,0.30411986470779423,-0.10219521148408388
16.200999999996817,0.319827710377097,-0.16335741588827227
16.40099999999706,0.3261847844210734,-0.22686460810909503
16.600999999997306,0.31394173341246157,-0.2874376460342174
16.80099999999755,0.26635581158004834,-0.3334254627380804
17.000999999997795,0.21347039595158573,-0.3578787847960223
17.20099999999804,0.15885026139635247,-0.3703191554991497
17.400999999998284,0.10588253933458248,-0.3807967800918556
17.60099999999853,0.05506224399429474,-0.3815912196002341
17.800999999998773,0.007706701522529625,-0.3592168741291809
18.000999999999017,-0.025870437286714114,-0.3231162946832108
18.20099999999926,-0.0417172555061404,-0.27560771131756845
18.400999999999506,-0.0427143782718381,-0.22275927115870936
18.60099999999975,-0.027402798025517185,-0.16777129441737443
18.799999999999994,-0.013761890489261143,-0.11759793212886678
19.000000000000238,0.01889452536621075,-0.08134520194800617
19.200000000000482,0.05680660813272561,-0.05576262962066494
19.400000000000727,0.1022123138837684,-0.03891613793246153
19.60000000000097,0.15129461686374884,-0.043872093321260144
19.800000000001216,0.19942854916532324,-0.0708434641825294
20.00000000000146,0.2379962799394497,-0.10589640359249816
