Time (s),X (m),Y (m)
0.001,0.0010647643868879006,-0.0005914538325516239
0.20000000000000015,0.0040778312688916655,-0.0014127530280275706
0.4000000000000003,0.021109035748295913,-0.012791493013464833
0.6000000000000004,0.04048697292066722,-0.014587460231409194
0.8000000000000006,0.0662392402967606,-0.0077733491170242424
1.0000000000000007,0.09708427866989307,0.002616739837535635
1.2009999999999785,0.12879660506272256,0.013214134841783413
1.4009999999999565,0.1654186311149637,0.011627055489244607
1.6009999999999345,0.20483594235836206,0.005685041787621782
1.8009999999999124,0.24538085089162454,-0.0020824860874573753
2.0009999999998906,0.2808891064284623,-0.016411701059922894
2.2009999999998686,0.303262417980539,-0.037026760727178844
2.4009999999998466,0.3008607486182451,-0.07707824439953595
2.6009999999998246,0.29078861498994957,-0.12213980721826653
2.8009999999998025,0.28293468357690876,-0.16488093852875435
3.0009999999997805,0.25452147137565373,-0.19466766091199544
3.2009999999997585,0.21491623220304956,-0.20828327501987695
3.4009999999997365,0.1646275726350797,-0.19527638443274395
3.6009999999997144,0.11520123465280502,-0.16959944270278307
3.8009999999996924,0.07653684080848923,-0.14365251705264337
4.000999999999671,0.05220324978416452,-0.10585663717476025
4.200999999999738,0.03216132913151985,-0.07472873437391991
4.400999999999804,0.022804537167310956,-0.033391549294880765
4.600999999999871,0.037802989891569855,0.01708088208048258
4.800999999999938,0.0665698819029354,0.06906548236101706
5.000000000000004,0.09249579684729278,0.10889406862726189
5.200000000000071,0.12242900009289061,0.1332735297934646
5.400000000000138,0.16109512179924004,0.1412283144469079
5.600000000000205,0.20811268392900056,0.14312762078096486
5.800000000000272,0.24605031734839944,0.1271987025098145
6.000000000000338,0.2643082268394134,0.09306019099150961
6.200000000000405,0.26027141142287163,0.0490102694991277
6.400000000000472,0.24659793687598255,0.010110706113552912
6.600000000000539,0.22718466204356424,-0.03423206885552865
6.800000000000606,0.211492172209504,-0.08302644613265184
7.000000000000672,0.1901057794982744,-0.1287823822249604
7.200000000000739,0.14990546829325305,-0.1624242721174595
7.400000000000806,0.10073369040332684,-0.18034533050410823
7.600000000000873,0.053506460410525765,-0.18505163783110187
7.8000000000009395,0.00782484961193258,-0.18725672992488704
8.000000000001005,-0.05126528074096592,-0.1774979158358407
8.200000000000895,-0.11276008088695169,-0.15678106344899354
8.400000000000784,-0.16659881191371095,-0.13814370451232644
8.600000000000673,-0.19911813744604517,-0.10249803353438258
8.800000000000562,-0.21063271250504734,-0.04992466863086569
9.000000000000451,-0.20650893168186268,0.013971191174059809
9.20000000000034,-0.19573722897706042,0.08158529557289217
9.40000000000023,-0.17206617959305764,0.15541588195057027
9.600000000000119,-0.14675259678144642,0.22528052804691284
9.800000000000008,-0.12566087860472247,0.29091591514410003
10.000999999999896,-0.0860293928907626,0.3349514005786719
10.200999999999786,-0.03145107250299636,0.3497230579901451
10.400999999999675,0.027473483221573357,0.3471863500727608
10.600999999999564,0.08738812844394853,0.34276313663316593
10.800999999999453,0.14654884897292342,0.315045278382195
11.000999999999342,0.18615247083327172,0.27195805181623284
11.200999999999231,0.20382954296796454,0.2191483456591872
11.40099999999912,0.19471531989130886,0.15365515184151293
11.60099999999901,0.17176311713113415,0.08524679139996699
11.800999999998899,0.14123650130370394,0.024230310174543128
12.000999999998788,0.09501295920380397,-0.011751234765025351
12.200999999998677,0.040858762532798965,-0.02460631245984776
12.400999999998566,-0.026456057004358047,-0.012695321918477968
12.600999999998455,-0.09066911840483868,0.0004037590224561174
12.800999999998345,-0.1583606983766037,0.016119849347292246
13.000999999998234,-0.22412244321609168,0.028796768710002568
13.200999999998123,-0.2964980030772988,0.058124776230088854
13.400999999998012,-0.3619648047549167,0.07957370337862851
13.600999999997901,-0.42502205583275365,0.10608590606557124
13.80099999999779,-0.4880043409335243,0.13688120659074737
14.00099999999768,-0.5406094222969702,0.17490999745945063
14.200999999997569,-0.5704716398541141,0.2284069713017346
14.400999999997458,-0.5768255630378925,0.2907122495187167
14.600999999997347,-0.5626007430966116,0.3583720787832252
14.800999999997236,-0.5415933351207364,0.4196788731894
15.000999999997125,-0.5118382980337423,0.47244997062129546
15.200999999997014,-0.4633787085289281,0.5046964139909771
15.400999999996904,-0.40678128383451795,0.5164532855105632
15.600999999996793,-0.35438458347289853,0.5209794790323776
15.800999999996682,-0.2983009434323635,0.4979698691891477
16.000999999996573,-0.24089546338039297,0.4668184445439353
16.200999999996817,-0.20981738626019317,0.4174452723760111
16.40099999999706,-0.19391057708078702,0.38170251937286365
16.600999999997306,-0.18143739808318182,0.34916879702868586
16.80099999999755,-0.1793495368554375,0.2990568360230826
17.000999999997795,-0.1903696114842134,0.23513932084987715
17.20099999999804,-0.1978462184937732,0.17377567334015404
17.400999999998284,-0.2228625711772864,0.11311973453296138
17.60099999999853,-0.25930192577798866,0.05169287856224657
17.800999999998773,-0.30934044201553845,0.021734837535689812
18.000999999999017,-0.3695015491733485,0.01882236074344327
18.20099999999926,-0.4345510827045689,0.01937234340899192
18.400999999999506,-0.510560591521028,0.044895403018318854
18.60099999999975,-0.5961209062941285,0.08372275324750982
18.799999999999994,-0.6683692460547875,0.13681529742639345
19.000000000000238,-0.7196316594760174,0.20002603059709698
19.200000000000482,-0.74793309160349,0.26836803885561605
19.400000000000727,-0.7554611045817096,0.3458293273165448
19.60000000000097,-0.7377960252487379,0.4283477398106204
19.800000000001216,-0.7174210048226283,0.5078813584371625
20.00000000000146,-0.6872720126936581,0.5810914598558719
