Time (s),X (m),Y (m)
0.001,-0.0007759513068619564,-0.00026688599193002436
0.20000000000000015,0.0035963851790242777,-0.0008936313723933088
0.4000000000000003,0.013719416737573252,0.0012328715052399648
0.6000000000000004,0.03496716811263096,0.0011404995063358354
0.8000000000000006,0.05563368165638406,-0.0012311300905521487
1.0000000000000007,0.07092131390406115,-0.007695357723030002
1.2009999999999785,0.09427303812270058,-0.010145312718816118
1.4009999999999565,0.11459350282989006,-0.015209295710979068
1.6009999999999345,0.138187428719449,-0.028559464754304844
1.8009999999999124,0.17450033656538277,-0.05145347532012116
2.0009999999998906,0.21886876558139756,-0.07782975317384527
2.2009999999998686,0.2573180825375024,-0.10565544479230927
2.4009999999998466,0.29523236187027074,-0.138402541380705
2.6009999999998246,0.3357183275942675,-0.1756803861448784
2.8009999999998025,0.3736867388843846,-0.20926172281121905
3.0009999999997805,0.4091990287678631,-0.24089960488496076
3.2009999999997585,0.4412573242486959,-0.2704934393130679
3.4009999999997365,0.45817950792342915,-0.3043536900384464
3.6009999999997144,0.45911961238784754,-0.3333071622668157
3.8009999999996924,0.4450242416592526,-0.37279914967397565
4.000999999999671,0.4227534440301545,-0.41283882668056515
4.200999999999738,0.39258878620300536,-0.455105069929307
4.400999999999804,0.3606259959320524,-0.502692078221939
4.600999999999871,0.3199444890376452,-0.559511288504749
4.800999999999938,0.2735769371058691,-0.6239534066348241
5.000000000000004,0.22955217873229203,-0.6811867339943174
5.200000000000071,0.18969010914337267,-0.7321699737048185
5.400000000000138,0.1527419965304113,-0.7825172741591613
5.600000000000205,0.1144207318360564,-0.8410017152604904
5.800000000000272,0.07253739836623509,-0.8921076568490522
6.000000000000338,0.027325245576124698,-0.9394762095659506
6.200000000000405,-0.021983679489543863,-0.9899525304510779
6.400000000000472,-0.0761845265429297,-1.0443704114542554
6.600000000000539,-0.13445292891661992,-1.09851737549816
6.800000000000606,-0.19169360511739394,-1.150252628896861
7.000000000000672,-0.24999641068747752,-1.1759463712627913
7.200000000000739,-0.2969089558379804,-1.1702349138965038
7.400000000000806,-0.34080553831759175,-1.148545070868151
7.600000000000873,-0.3886594809504177,-1.1120302271150082
7.8000000000009395,-0.45225000265657345,-1.0693712060040554
8.000000000001005,-0.5142569003390591,-1.0208070621133583
8.200000000000895,-0.5736862904970284,-0.9776466184429019
8.400000000000784,-0.6094401917231462,-0.9316846413270412
8.600000000000673,-0.6084983597666216,-0.8769814329589056
8.800000000000562,-0.5907872138537142,-0.8286749902502633
9.000000000000451,-0.5525747307571403,-0.7742965653301629
9.20000000000034,-0.5117345006466877,-0.7206810881367544
9.40000000000023,-0.46339498658938894,-0.6703160091927466
9.600000000000119,-0.4026921488142999,-0.6344033562738844
9.800000000000008,-0.34974474265455885,-0.6252497833726186
10.000999999999896,-0.3033011093184384,-0.6383453929834344
10.200999999999786,-0.2562069344738906,-0.6659958238310123
10.400999999999675,-0.20594886125722714,-0.7063141920781595
10.600999999999564,-0.1549706556947722,-0.7549048745626812
10.800999999999453,-0.09975707433252885,-0.8061499900554299
11.000999999999342,-0.04738200161981007,-0.8532207706365943
11.200999999999231,-0.00869014211407807,-0.8882997762773345
11.40099999999912,0.004479727808931064,-0.9237931053652243
11.60099999999901,0.00045553731493288327,-0.9557143349264658
11.800999999998899,-0.012482665709592165,-0.9799559621135392
12.000999999998788,-0.034145943112100466,-1.0201645023845205
12.200999999998677,-0.05943180714143029,-1.0562390957629986
12.400999999998566,-0.0810461811839226,-1.1003646000841512
12.600999999998455,-0.09450788436285008,-1.1650321357509308
12.800999999998345,-0.10679097194795462,-1.2328223665696436
13.000999999998234,-0.12244002291677636,-1.3005719283998076
13.200999999998123,-0.1420310767017043,-1.380242342574673
13.400999999998012,-0.16740013213788965,-1.4620855598459497
13.600999999997901,-0.20531692938007956,-1.5441014331725929
13.80099999999779,-0.2560117314441415,-1.6285406123544353
14.00099999999768,-0.3095157413136255,-1.7019978827660478
14.200999999997569,-0.3613857630279499,-1.7688210170375864
14.400999999997458,-0.41274007770097515,-1.8279282582480179
14.600999999997347,-0.4703029401375709,-1.897274717432025
14.800999999997236,-0.5273777146873843,-1.9754641791634673
15.000999999997125,-0.5812326451201658,-2.0552387674310184
15.200999999997014,-0.6420083963686247,-2.139388806497772
15.400999999996904,-0.7029322253806438,-2.220761647320774
15.600999999996793,-0.7671141474675603,-2.301536154023793
15.800999999996682,-0.8308385681433895,-2.382403511221798
16.000999999996573,-0.8915643008587978,-2.458881413795058
16.200999999996817,-0.9568207236389107,-2.5318420505384442
16.40099999999706,-1.0249208334554962,-2.6010730291610233
16.600999999997306,-1.088270686851197,-2.6565295862882508
16.80099999999755,-1.1625211048933344,-2.684000920793634
17.000999999997795,-1.215750083536786,-2.6860926622005743
17.20099999999804,-1.2690089342916053,-2.6697360452287224
17.400999999998284,-1.340046843484896,-2.637856160944931
17.60099999999853,-1.4094754947834423,-2.595791434768084
17.800999999998773,-1.4749858227812027,-2.5481699221778165
18.000999999999017,-1.5424424414695146,-2.5012660531611135
18.20099999999926,-1.6145884561931063,-2.448435166847052
18.400999999999506,-1.6748822497983724,-2.394980475215507
18.60099999999975,-1.7359404679794064,-2.3403329742609342
18.799999999999994,-1.7890870623065667,-2.2949372127053995
19.000000000000238,-1.8231604794865688,-2.2574358786084834
19.200000000000482,-1.8719044632728288,-2.2163327335365537
19.400000000000727,-1.9358062291370417,-2.1679115471423773
19.60000000000097,-1.9985925244442342,-2.118056332647498
19.800000000001216,-2.0550555731202698,-2.0696792459961997
20.00000000000146,-2.117613668555147,-2.0187102486830315
