Time (s),X (m),Y (m)
0.001,0.0003099530129853942,-0.0010272443824616275
0.20000000000000015,0.0020372776332224303,-1.7687539499982085e-05
0.4000000000000003,0.011235935889295518,0.013694092279795568
0.6000000000000004,0.029739707650038923,0.020588172108245918
0.8000000000000006,0.05977101076976295,0.01457370641635685
1.0000000000000007,0.09114591577387253,-0.0017152745453671307
1.2009999999999785,0.10459204287784792,-0.03473107314092833
1.4009999999999565,0.11219461917596997,-0.08535763386610715
1.6009999999999345,0.11340142548215044,-0.14370604181156066
1.8009999999999124,0.11561852304988844,-0.2122189182055246
2.0009999999998906,0.09757063961502453,-0.27916336042201223
2.2009999999998686,0.0824993243867346,-0.3510790319797453
2.4009999999998466,0.07065449424375736,-0.4301536215281679
2.6009999999998246,0.03972308083033256,-0.48146030891699043
2.8009999999998025,-0.008450997023678262,-0.5102729419879174
3.0009999999997805,-0.07763780305677447,-0.5343645993720413
3.2009999999997585,-0.14492841067194756,-0.5396328525750025
3.4009999999997365,-0.17937435567279222,-0.5253437476063252
3.6009999999997144,-0.16548638682158484,-0.49498989676277855
3.8009999999996924,-0.12078654572382691,-0.45359124296941494
4.000999999999671,-0.08011889395602101,-0.4038351077258586
4.200999999999738,-0.045409768601415004,-0.3590839635752588
4.400999999999804,0.005049831161880078,-0.324173872961193
4.600999999999871,0.061329948248641165,-0.3132937695247323
4.800999999999938,0.12665304893285928,-0.32478199215571846
5.000000000000004,0.18214514546119967,-0.35469705753476805
5.200000000000071,0.20535878342782862,-0.40173617275289836
5.400000000000138,0.2031567447633766,-0.4525745280817727
5.600000000000205,0.17772484305942313,-0.488105873134059
5.800000000000272,0.1350100214283256,-0.5051151177993032
6.000000000000338,0.0829938230511136,-0.49457047972784357
6.200000000000405,0.02229661614700662,-0.4679701957325878
6.400000000000472,-0.03510743371614992,-0.42950601328168553
6.600000000000539,-0.0867049937185277,-0.3830040656850155
6.800000000000606,-0.14086863149604173,-0.32894337657007955
7.000000000000672,-0.17407897410918705,-0.2586262408883419
7.200000000000739,-0.18148517255655325,-0.17667833943342376
7.400000000000806,-0.15962142234507737,-0.10396101337186905
7.600000000000873,-0.12249917062288201,-0.03966025683763827
7.8000000000009395,-0.07125500738353986,0.012552361878393736
8.000000000001005,-0.003503890553425529,0.04111046472679991
8.200000000000895,0.06525668315218879,0.045636613283865035
8.400000000000784,0.10251120860468609,0.0306663372825057
8.600000000000673,0.10544111226217792,-0.005725890467855821
8.800000000000562,0.09304921783897491,-0.059288291440904556
9.000000000000451,0.07463949051694616,-0.11777889318619607
9.20000000000034,0.041687596995976156,-0.1558489265490362
9.40000000000023,-0.013084814867421255,-0.17347735579393553
9.600000000000119,-0.0716704939127134,-0.17350752353377613
9.800000000000008,-0.09804982215468881,-0.15564421861668215
10.000999999999896,-0.09936090045178371,-0.11857746519680772
10.200999999999786,-0.08003033036722244,-0.07326302206861317
10.400999999999675,-0.049599846701550224,-0.04661860752119704
10.600999999999564,-0.011585840985040327,-0.051620847353721
10.800999999999453,0.032012258933537874,-0.07638173826407267
11.000999999999342,0.06217063508861355,-0.11633220446480624
11.200999999999231,0.07298345678935761,-0.17302680694529146
11.40099999999912,0.053621181623575716,-0.22945635895728336
11.60099999999901,0.04006766154681036,-0.3060260940240522
11.800999999998899,0.03699729220762058,-0.39803759167207153
12.000999999998788,0.0325259062045004,-0.4819282054357411
12.200999999998677,0.007220142897972244,-0.5187450040294697
12.400999999998566,-0.0445089315543685,-0.53029334902603
12.600999999998455,-0.06573633213503431,-0.5222120418301893
12.800999999998345,-0.08989889632610618,-0.4916384961193098
13.000999999998234,-0.08874364081647027,-0.44968177250695934
13.200999999998123,-0.071871701642206,-0.3993761060513501
13.400999999998012,-0.044254484136766054,-0.34514850903169375
13.600999999997901,-0.00457463741775799,-0.31986342482162944
13.80099999999779,0.05128007822934252,-0.3141350011012214
14.00099999999768,0.1093895590810635,-0.32743398153773956
14.200999999997569,0.16460920639213392,-0.3566859103288404
14.400999999997458,0.20676801674822665,-0.40011497640784827
14.600999999997347,0.22511023860750312,-0.46099767254031
14.800999999997236,0.23173354050642364,-0.5355300052931692
15.000999999997125,0.22802234900266957,-0.6158808451245974
15.200999999997014,0.21114186217814063,-0.6948533806733902
15.400999999996904,0.1890801608625004,-0.7785489834095229
15.600999999996793,0.15342341721412692,-0.840748076243951
15.800999999996682,0.10284884709911249,-0.8937568247394998
16.000999999996573,0.03656373159402404,-0.9247586802879935
16.200999999996817,-0.0454749348589357,-0.9513983636901765
16.40099999999706,-0.12832130467409192,-0.9533567612425374
16.600999999997306,-0.21540631568101298,-0.9573544921091075
16.80099999999755,-0.2919031507620609,-0.9364970156959284
17.000999999997795,-0.35363965069733994,-0.8965053679625423
17.20099999999804,-0.3848270995648298,-0.8382276532087677
17.400999999998284,-0.3754978261515725,-0.7791317313233956
17.60099999999853,-0.34173622921890334,-0.7297732384199069
17.800999999998773,-0.2926392652061102,-0.6891544799116629
18.000999999999017,-0.2300132830341161,-0.6772212219826833
18.20099999999926,-0.17323864927146243,-0.6886461138031232
18.400999999999506,-0.1401697787971894,-0.7238592617243452
18.60099999999975,-0.14418723886629167,-0.7562444251651074
18.799999999999994,-0.17145400662818805,-0.7875537581811802
19.000000000000238,-0.2232219762922787,-0.8096936471389481
19.200000000000482,-0.28429083372057734,-0.8029147484478064
19.400000000000727,-0.36024901548198257,-0.7841606514090206
19.60000000000097,-0.41162710077805137,-0.7531827300078712
19.800000000001216,-0.42103380113353156,-0.702874182959476
20.00000000000146,-0.40586844885392687,-0.6586172797278317
