Time (s),X (m),Y (m)
0.001,-0.0007489004572251305,0.00035268032603768894
0.20000000000000015,0.006290131305281497,-0.0028868050364602316
0.4000000000000003,0.015169922410167767,-0.00802925293503959
0.6000000000000004,0.0307461410960535,-0.013022989556113569
0.8000000000000006,0.06828130884185969,-0.02077572050992265
1.0000000000000007,0.11654042362196035,-0.03941617083760348
1.2009999999999785,0.15902246159965008,-0.050757421685437086
1.4009999999999565,0.1935860295663303,-0.057291572385843904
1.6009999999999345,0.22614110785094665,-0.07711930984233159
1.8009999999999124,0.24894158426490437,-0.10355716388386531
2.0009999999998906,0.25727488585485553,-0.12750804715184946
2.2009999999998686,0.2602792208444425,-0.1474180891687759
2.4009999999998466,0.2594124004289559,-0.17696924691188132
2.6009999999998246,0.24823745204762374,-0.21232509089862553
2.8009999999998025,0.23470061820508878,-0.25523698737640804
3.0009999999997805,0.21607266976447811,-0.2991796284287479
3.2009999999997585,0.19882072725554112,-0.3431641122984883
3.4009999999997365,0.17212372457298308,-0.3885704415569895
3.6009999999997144,0.13635846040776806,-0.414483549855199
3.8009999999996924,0.09834914116203772,-0.41739154596494527
4.000999999999671,0.06278465629301976,-0.4152041727659885
4.200999999999738,0.03255920032765308,-0.4179785823297721
4.400999999999804,-0.00815357343724338,-0.41489814502420835
4.600999999999871,-0.05722152935548634,-0.4020964887029506
4.800999999999938,-0.11279654301184429,-0.38079960058166007
5.000000000000004,-0.1749045983612131,-0.3551419542462123
5.200000000000071,-0.23970538967404412,-0.33345331894414865
5.400000000000138,-0.30453586779595965,-0.30619530101645276
5.600000000000205,-0.3642172717994971,-0.2711403698086448
5.800000000000272,-0.39991989656378757,-0.22035359197402085
6.000000000000338,-0.4136450020013849,-0.16491933176641713
6.200000000000405,-0.4130599355667395,-0.11552333812145041
6.400000000000472,-0.40185635163110345,-0.06402751986525271
6.600000000000539,-0.37609754482700125,0.004891954633131586
6.800000000000606,-0.35331700783748227,0.0747603088238092
7.000000000000672,-0.31875690431955894,0.14724184045917832
7.200000000000739,-0.27548653085636277,0.21746558851256653
7.400000000000806,-0.22697679899129158,0.2856176522059021
7.600000000000873,-0.1809070503445975,0.34630870927399576
7.8000000000009395,-0.13231568691309567,0.3837150767772377
8.000000000001005,-0.0710028088185506,0.3963302438694495
8.200000000000895,-0.010054720067238595,0.39219198716663417
8.400000000000784,0.0554075445523626,0.375991332171901
8.600000000000673,0.11798682536262546,0.3597598402443769
8.800000000000562,0.17778492599209608,0.3363978513198732
9.000000000000451,0.22838810897122566,0.29905082057619026
9.20000000000034,0.25673900685597817,0.24791828362806623
9.40000000000023,0.26997016568681076,0.19168117704078638
9.600000000000119,0.2658804045683712,0.132763298841329
9.800000000000008,0.23431370275250454,0.08720433709443737
10.000999999999896,0.1932415471410495,0.06565425572516399
10.200999999999786,0.14366040947732683,0.06621237194819225
10.400999999999675,0.09477948863008262,0.08452620003428668
10.600999999999564,0.05651798914777381,0.12152399124877439
10.800999999999453,0.04057019467133067,0.161344761817312
11.000999999999342,0.04332339563247856,0.21167593667524517
11.200999999999231,0.06654027486365678,0.2684846421240972
11.40099999999912,0.10200890292306122,0.3384645755462038
11.60099999999901,0.13163461939231408,0.4088001554588918
11.800999999998899,0.16400858244565908,0.4797393007178241
12.000999999998788,0.20093217574484562,0.5489626703141827
12.200999999998677,0.2441575469857918,0.6190118013615884
12.400999999998566,0.29536916774505073,0.6739091522703242
12.600999999998455,0.3460490995521605,0.7041561896729447
12.800999999998345,0.3882876287122937,0.7169026534369616
13.000999999998234,0.4397044870525571,0.7031280001259432
13.200999999998123,0.48517641411889,0.6793268046530716
13.400999999998012,0.5095659042010356,0.6453970667662028
13.600999999997901,0.5007764923092499,0.5987911068893507
13.80099999999779,0.4674052153987739,0.5487354973928819
14.00099999999768,0.4197907690704492,0.5087016905656856
14.200999999997569,0.3751278634272327,0.48361448860883827
14.400999999997458,0.32863449646618864,0.4709387106087233
14.600999999997347,0.27246236187587086,0.47393196897957607
14.800999999997236,0.21292636818421684,0.4844812646226623
15.000999999997125,0.14636956551532868,0.5017537788317167
15.200999999997014,0.08168252418951566,0.5278778233032256
15.400999999996904,0.0297404750520672,0.5664887878204798
15.600999999996793,0.006314499693590499,0.6193409684581372
15.800999999996682,0.009072194726666209,0.6877609140351626
16.000999999996573,0.03050929152713102,0.7649021503027085
16.200999999996817,0.06474847520188502,0.8389764231627134
16.40099999999706,0.09870099824237494,0.9099691548175809
16.600999999997306,0.13466309026355716,0.9804672935413581
16.80099999999755,0.17940832754006958,1.0374537663432897
17.000999999997795,0.22852343878396833,1.070486313812781
17.20099999999804,0.2852508981858079,1.078309318933522
17.400999999998284,0.3487185428297856,1.070625656177543
17.60099999999853,0.411520165691202,1.0443345466585878
17.800999999998773,0.46931868110990627,1.017573530691596
18.000999999999017,0.5102866550278731,0.9718382223797128
18.20099999999926,0.5268146554701242,0.9161891458445942
18.400999999999506,0.521848233975661,0.8567642547517297
18.60099999999975,0.49199557333019883,0.795947138150862
18.799999999999994,0.4564531634296569,0.741960118643217
19.000000000000238,0.40942080038443285,0.7149475545797767
19.200000000000482,0.35119825797783205,0.7135053863012545
19.400000000000727,0.2883381989553419,0.7243082958807388
19.60000000000097,0.2288532129876513,0.7447080107132608
19.800000000001216,0.1656638112093334,0.7721625399293695
20.00000000000146,0.10262686150595601,0.8117952727595364
