Time (s),X (m),Y (m)
0.001,-0.0005090653149319316,0.0007291460897812449
0.20000000000000015,0.002696837536668527,-0.000999667076647136
0.4000000000000003,0.005602426761325569,-0.0027998999672100974
0.6000000000000004,0.013768604347544247,0.00456766946114529
0.8000000000000006,0.018575394315973794,0.024324034848545954
1.0000000000000007,0.03365734307307634,0.04534831525546028
1.2009999999999785,0.05828767915658004,0.050283223944197715
1.4009999999999565,0.09166038176305125,0.03504383405231278
1.6009999999999345,0.12860053862388285,0.013093252193316885
1.8009999999999124,0.1596263422107603,-0.03151703436854897
2.0009999999998906,0.18633983190290154,-0.08727699566987193
2.2009999999998686,0.20741371636835673,-0.13401773935944097
2.4009999999998466,0.22116645097035276,-0.17625739273447086
2.6009999999998246,0.23816039767545752,-0.20964678229684225
2.8009999999998025,0.24122192486707153,-0.23946064829407443
3.0009999999997805,0.23337369147900736,-0.27179761483394044
3.2009999999997585,0.20417059845978758,-0.3024642032958034
3.4009999999997365,0.158064553449523,-0.3298840279694645
3.6009999999997144,0.09273662127084871,-0.34485186187571976
3.8009999999996924,0.03318169075870332,-0.3561445517854592
4.000999999999671,-0.03942969423234738,-0.3532444243664133
4.200999999999738,-0.10846910251814265,-0.3454535178963771
4.400999999999804,-0.1603212121383028,-0.3308706770421996
4.600999999999871,-0.18697345813045607,-0.29780505805636226
4.800999999999938,-0.18524889322184057,-0.2584686625276596
5.000000000000004,-0.17112455636420956,-0.21809033714951356
5.200000000000071,-0.14183893253173502,-0.18579773225404575
5.400000000000138,-0.108001172849648,-0.15938831453217098
5.600000000000205,-0.06619993143888406,-0.14109762135070925
5.800000000000272,-0.0200591626690191,-0.14073449704902238
6.000000000000338,0.02253701079328487,-0.15036666428169715
6.200000000000405,0.061491504442191584,-0.1693458661395375
6.400000000000472,0.08929516427614588,-0.20476542139390022
6.600000000000539,0.1019536181613203,-0.2665986981798933
6.800000000000606,0.11383253590184103,-0.32427628041191353
7.000000000000672,0.1237298675516036,-0.3884073382726258
7.200000000000739,0.13318772278358537,-0.4457522558420254
7.400000000000806,0.12506407335888364,-0.5036288085503557
7.600000000000873,0.09905833534575513,-0.5647545613056603
7.8000000000009395,0.07775689853330331,-0.6245513450104014
8.000000000001005,0.04798416109453121,-0.6742201505686206
8.200000000000895,0.010271012176634762,-0.7092047024254258
8.400000000000784,-0.03167513121120126,-0.7317322024890976
8.600000000000673,-0.076510556901455,-0.7333875657246334
8.800000000000562,-0.12318369784431603,-0.6993589950394964
9.000000000000451,-0.16029306363643678,-0.6529628369105493
9.20000000000034,-0.17098851129709347,-0.6021244567304963
9.40000000000023,-0.14658618872581233,-0.5530162264051858
9.600000000000119,-0.1119951761137528,-0.5155814446414918
9.800000000000008,-0.06432562770792141,-0.499995509247523
10.000999999999896,-0.01571156404354912,-0.5101192364057577
10.200999999999786,0.01419207900555021,-0.5472208786634156
10.400999999999675,0.024490947580490932,-0.5962990278790343
10.600999999999564,0.02433008019799517,-0.6496188017018643
10.800999999999453,0.011257420279736032,-0.7080310960508663
11.000999999999342,-0.03154029893065502,-0.766556468779585
11.200999999999231,-0.09452283122577251,-0.8136055316500741
11.40099999999912,-0.15224896906526303,-0.8441080178864478
11.60099999999901,-0.21520054253356302,-0.8516326946921665
11.800999999998899,-0.27898256878228334,-0.8359832117744355
12.000999999998788,-0.34039201868959973,-0.8210696012918771
12.200999999998677,-0.3920527324395591,-0.7903642064120627
12.400999999998566,-0.4224905604442294,-0.7350462733927735
12.600999999998455,-0.4411994741029474,-0.6829294994592227
12.800999999998345,-0.4440034554704377,-0.6229690275129872
13.000999999998234,-0.4380185863047132,-0.5565023304153474
13.200999999998123,-0.42010787285642487,-0.48534047604913755
13.400999999998012,-0.40185545102448894,-0.40926019699020494
13.600999999997901,-0.38082825489931377,-0.334335396961132
13.80099999999779,-0.3775523534710805,-0.26106567125582547
14.00099999999768,-0.3571604346355274,-0.18430445654044453
14.200999999997569,-0.32730001995671526,-0.10916248800122626
14.400999999997458,-0.29205443053591124,-0.06383523067025937
14.600999999997347,-0.24161961466469178,-0.04654834609137227
14.800999999997236,-0.18697464174399178,-0.06175761378297626
15.000999999997125,-0.13580158381289015,-0.08905828165453153
15.200999999997014,-0.1024648204774506,-0.13613150499398366
15.400999999996904,-0.09130844120191385,-0.2105137919156034
15.600999999996793,-0.0934331256995982,-0.28350607195575284
15.800999999996682,-0.13026328594947784,-0.3516194282367986
16.000999999996573,-0.17806253816621154,-0.41885611519672217
16.200999999996817,-0.2408716349487791,-0.47322480829735836
16.40099999999706,-0.3127416824373607,-0.49134187954838154
16.600999999997306,-0.37817912977716256,-0.495977568689175
16.80099999999755,-0.43762111640254575,-0.4982794323750439
17.000999999997795,-0.5004750313080127,-0.49377367652431814
17.20099999999804,-0.5621816719474947,-0.4816743309930244
17.400999999998284,-0.6225131105940588,-0.4570353894481515
17.60099999999853,-0.6802488194511628,-0.4277954884962633
17.800999999998773,-0.7275630480809419,-0.395479479471942
18.000999999999017,-0.7555140300944456,-0.3441648794536691
18.20099999999926,-0.7622765473872598,-0.28341523613656255
18.400999999999506,-0.7319782077306395,-0.2299639188127918
18.60099999999975,-0.6631700112756591,-0.19812987930854767
18.799999999999994,-0.5848190960581722,-0.18624773594770444
19.000000000000238,-0.5034020507134364,-0.18913515785660912
19.200000000000482,-0.42154490900592667,-0.20712159724881082
19.400000000000727,-0.34470206370665996,-0.23255469655022076
19.60000000000097,-0.26493660175846545,-0.26393905927370653
19.800000000001216,-0.19930173531825687,-0.3079826760088969
20.00000000000146,-0.15175639128858254,-0.35573593119375013
