Time (s),X (m),Y (m)
0.001,-0.0006729371591054978,-0.000515584144559974
0.20000000000000015,0.005020917870663751,0.0009177331466373671
0.4000000000000003,0.008343062583580817,0.0010565856949706404
0.6000000000000004,0.022241979175643058,0.0047054442354789614
0.8000000000000006,0.04049170350044844,0.011025865174676335
1.0000000000000007,0.05739449599675469,0.020596951940075197
1.2009999999999785,0.07573013418541105,0.026489163027322682
1.4009999999999565,0.09137948353056251,0.020028020906697308
1.6009999999999345,0.1223782820175855,0.003023964591090163
1.8009999999999124,0.14899628909801677,-0.01860829721774283
2.0009999999998906,0.16370373156436094,-0.042848461513713
2.2009999999998686,0.18570702887999055,-0.072820752424314
2.4009999999998466,0.21989070565355565,-0.10947199918676745
2.6009999999998246,0.2512941689884203,-0.14510157284486094
2.8009999999998025,0.28494734557337814,-0.1797637029780453
3.0009999999997805,0.31992304636177377,-0.2190494709164406
3.2009999999997585,0.3541782968081055,-0.2617805563245781
3.4009999999997365,0.38687219765011266,-0.30649561363345706
3.6009999999997144,0.4195207529561528,-0.3543795101167383
3.8009999999996924,0.44412031707721095,-0.3991475006321859
4.000999999999671,0.45353450728079886,-0.4385781883620542
4.200999999999738,0.4510030017692324,-0.47560253122454893
4.400999999999804,0.43239091919535155,-0.5152999033789968
4.600999999999871,0.4062330519712362,-0.5530692553951668
4.800999999999938,0.3774562375327729,-0.6004622319901225
5.000000000000004,0.34542232850124416,-0.6428782804138221
5.200000000000071,0.30623863226889986,-0.693955187526203
5.400000000000138,0.26560976484296317,-0.7434040019393574
5.600000000000205,0.22009474183490732,-0.7940171735824233
5.800000000000272,0.17096276104684002,-0.8361655086132682
6.000000000000338,0.11841786512024356,-0.88418573576471
6.200000000000405,0.05762232321406484,-0.9384981533247272
6.400000000000472,-0.00262899132044221,-0.9854720349862411
6.600000000000539,-0.06133483124875964,-1.0286668608214498
6.800000000000606,-0.11988734102607423,-1.071870099446666
7.000000000000672,-0.1774854056411528,-1.1134779215345914
7.200000000000739,-0.23360940244412115,-1.1502391539346868
7.400000000000806,-0.2891627911073601,-1.1778220572260452
7.600000000000873,-0.35521463214292687,-1.1924518500048238
7.8000000000009395,-0.40786831118023115,-1.1902134606041495
8.000000000001005,-0.4580605139497549,-1.1691962918223806
8.200000000000895,-0.5126962062153877,-1.1413127547910211
8.400000000000784,-0.5731143767632146,-1.111168521769227
8.600000000000673,-0.6453523992012828,-1.0674859179584115
8.800000000000562,-0.7085481962046427,-1.0172466347518194
9.000000000000451,-0.7668999333961352,-0.9627052281266576
9.20000000000034,-0.8353612940063712,-0.906832813706288
9.40000000000023,-0.8986569354972033,-0.8515247542816977
9.600000000000119,-0.9533085563077169,-0.7934379237815454
9.800000000000008,-1.0054214242114843,-0.7368859921832054
10.000999999999896,-1.0565466534257306,-0.6782954958441171
10.200999999999786,-1.1038387384219628,-0.6134707975025777
10.400999999999675,-1.127163133541085,-0.548029061368622
10.600999999999564,-1.129746166458378,-0.4876951672114661
10.800999999999453,-1.1130610301499777,-0.43795090475731807
11.000999999999342,-1.0821431023631627,-0.3847367198654056
11.200999999999231,-1.0449605130428479,-0.3267713818745445
11.40099999999912,-1.000945647627443,-0.2657434020224304
11.60099999999901,-0.9538564011981029,-0.20525765086601563
11.800999999998899,-0.9021603986370951,-0.15077286365989334
12.000999999998788,-0.8407141927340925,-0.0947045979864042
12.200999999998677,-0.7737627885756763,-0.04496867158137124
12.400999999998566,-0.716305097397631,-0.013233099888188537
12.600999999998455,-0.6793940538214688,-0.010118370691765655
12.800999999998345,-0.6375624160965014,-0.0314662777875705
13.000999999998234,-0.5875265339495901,-0.07217506166412092
13.200999999998123,-0.5330076057193629,-0.12187057212927155
13.400999999998012,-0.48069553699841067,-0.17476581952920864
13.600999999997901,-0.4222909164421396,-0.23296864622242366
13.80099999999779,-0.3657015248961126,-0.29474190410633305
14.00099999999768,-0.3172845452074329,-0.35254946577396257
14.200999999997569,-0.276990735313631,-0.4025209306606951
14.400999999997458,-0.24503794671844806,-0.45296734840081604
14.600999999997347,-0.21708881806434854,-0.5197512570392566
14.800999999997236,-0.2058664539386333,-0.5891404043183956
15.000999999997125,-0.21890322306413001,-0.6556045860818536
15.200999999997014,-0.2548376383707084,-0.7173022051708149
15.400999999996904,-0.2969185083024183,-0.775770356643376
15.600999999996793,-0.33775953204065107,-0.8213457957735358
15.800999999996682,-0.3705326137481211,-0.8558913816599981
16.000999999996573,-0.3984606669794029,-0.8988794179812162
16.200999999996817,-0.43129460214449783,-0.9626017611811671
16.40099999999706,-0.4734614485510084,-1.02063870011368
16.600999999997306,-0.5247077393846504,-1.0822852982820712
16.80099999999755,-0.5827270272533596,-1.1348171848538195
17.000999999997795,-0.6432776460997921,-1.1795439752118824
17.20099999999804,-0.7032519861992758,-1.2356545681235702
17.400999999998284,-0.7620264973937835,-1.305064570719946
17.60099999999853,-0.8174978750686288,-1.367428817854292
17.800999999998773,-0.8706427972887225,-1.4227165891154445
18.000999999999017,-0.9345149846489543,-1.485840596067771
18.20099999999926,-1.0010502625029307,-1.552798315203624
18.400999999999506,-1.0682625043012148,-1.619621582346598
18.60099999999975,-1.1364333667571302,-1.6803249669439657
18.799999999999994,-1.1996697629298536,-1.727807040805226
19.000000000000238,-1.2637334324126022,-1.7792834160051267
19.200000000000482,-1.326272489336815,-1.8356617871495982
19.400000000000727,-1.3888410423129602,-1.8932147021785288
19.60000000000097,-1.4522766151504567,-1.947660187798827
19.800000000001216,-1.5189301313554924,-2.0104922069412074
20.00000000000146,-1.5819885817004211,-2.0677742363746687
