Time (s),X (m),Y (m)
0.001,-0.0006729371591054965,0.000515584144559974
0.20000000000000015,0.006619138129845357,-0.00344663771144618
0.4000000000000003,0.017363152181584234,-0.0057031730710167365
0.6000000000000004,0.028978493831625908,-0.00038951799785740936
0.8000000000000006,0.05180650180219163,0.0064872601968624715
1.0000000000000007,0.07997463829698881,0.012955597954871763
1.2009999999999785,0.11349561299850003,0.018018565475592458
1.4009999999999565,0.14491595608703634,0.021035314936634
1.6009999999999345,0.17529420901868092,0.025004311026429454
1.8009999999999124,0.205798457564833,0.022594578856365295
2.0009999999998906,0.2418534976618684,0.015001360616079719
2.2009999999998686,0.27907912073766833,0.006295011846883928
2.4009999999998466,0.32550867598619737,-0.012409223054431531
2.6009999999998246,0.37190909849066517,-0.029772444924991454
2.8009999999998025,0.41227736377928004,-0.041377638079782494
3.0009999999997805,0.44836968166429997,-0.0622797429827877
3.2009999999997585,0.47508047063320186,-0.09996220440416717
3.4009999999997365,0.4868437217815851,-0.1465656922453931
3.6009999999997144,0.48770123215259287,-0.1971585250520649
3.8009999999996924,0.4888317107530813,-0.24964526016521754
4.000999999999671,0.47734923391297257,-0.29809793619512787
4.200999999999738,0.4525084869797842,-0.33224612445589924
4.400999999999804,0.4087815051306789,-0.3428478451458802
4.600999999999871,0.3564239283402617,-0.3390501892437334
4.800999999999938,0.3029938749038916,-0.33189163202154603
5.000000000000004,0.24937371332903543,-0.32359712684057235
5.200000000000071,0.19327279491126467,-0.31086387149140043
5.400000000000138,0.14088527757897132,-0.2894742387682507
5.600000000000205,0.1029815196707365,-0.24561881354462256
5.800000000000272,0.09288798803918535,-0.19483481052201
6.000000000000338,0.10406100071391826,-0.14404117260741575
6.200000000000405,0.10966444201162655,-0.09526865773362068
6.400000000000472,0.13135633292973659,-0.04648630937579422
6.600000000000539,0.17206791798431462,-0.004221088318454927
6.800000000000606,0.19716237766936634,0.03066873320291354
7.000000000000672,0.234861872653503,0.05037465515170105
7.200000000000739,0.2903843104126003,0.05145167150792406
7.400000000000806,0.35843429938791743,0.039882720776624254
7.600000000000873,0.4241289460197086,0.02519539469973423
7.8000000000009395,0.4885444039699172,0.004639495965419198
8.000000000001005,0.546152700857832,-0.03075836363223873
8.200000000000895,0.5792182666756662,-0.07827776558737597
8.400000000000784,0.5822469464994047,-0.14718344668695196
8.600000000000673,0.5529510246697892,-0.216550300904416
8.800000000000562,0.5050535395504419,-0.2737361902758788
9.000000000000451,0.45677443416945757,-0.3127494018423771
9.20000000000034,0.41477543831384783,-0.3337749877629396
9.40000000000023,0.3513884331775886,-0.3284445780498821
9.600000000000119,0.28418590363234986,-0.3090712862962775
9.800000000000008,0.2220581103621153,-0.28299317996995244
10.000999999999896,0.16522323891849772,-0.24777127807825688
10.200999999999786,0.12621543226753293,-0.20194620838672023
10.400999999999675,0.10335148681121487,-0.1553759731974606
10.600999999999564,0.09710571793642016,-0.09591479358550588
10.800999999999453,0.10266063961444748,-0.03415910325541871
11.000999999999342,0.11412876557240122,0.03260760200788788
11.200999999999231,0.1269889264728825,0.08771372336554582
11.40099999999912,0.15000370888988984,0.1488747448287136
11.60099999999901,0.18779112934272774,0.21113119411205128
11.800999999998899,0.2314130151346467,0.26644023113012527
12.000999999998788,0.2823667877215947,0.2917189353424143
12.200999999998677,0.3339297453573746,0.29533303217065776
12.400999999998566,0.3895066236053285,0.2823757062129126
12.600999999998455,0.43500192157801126,0.25160129785951724
12.800999999998345,0.46819133519060474,0.22318619036845683
13.000999999998234,0.47383542758125674,0.18737679618609304
13.200999999998123,0.4622910671603405,0.14249056045315517
13.400999999998012,0.4351466434337875,0.09654353224593278
13.600999999997901,0.37611163686442245,0.06636288262321408
13.80099999999779,0.31085134573858986,0.056550098479896956
14.00099999999768,0.2407778136645154,0.06031098249650634
14.200999999997569,0.15417001296479502,0.07832434278126905
14.400999999997458,0.06687152137319234,0.10453162802786038
14.600999999997347,-0.016878694876243737,0.14299796295053427
14.800999999997236,-0.09181984033994456,0.19332076621321964
15.000999999997125,-0.14363685940125243,0.25787218248201044
15.200999999997014,-0.16368412427337434,0.3180436850193418
15.400999999996904,-0.15970201991751848,0.3839337953413448
15.600999999996793,-0.1389311998006114,0.4568530688937808
15.800999999996682,-0.1023935935701089,0.5264124199803799
16.000999999996573,-0.06295133479545077,0.5927080524832766
16.200999999996817,-0.009715417161029185,0.656752636202141
16.40099999999706,0.04954293977742908,0.7071058213117177
16.600999999997306,0.10158116181431452,0.7333375374119602
16.80099999999755,0.15354471442929626,0.7285204893222498
17.000999999997795,0.1908370249211195,0.6920163548031598
17.20099999999804,0.20200007782863658,0.6349592436472918
17.400999999998284,0.19724183348610522,0.5715167113891211
17.60099999999853,0.1775585051817432,0.5120191251273145
17.800999999998773,0.14581090077522466,0.44702105676276743
18.000999999999017,0.10713870457453087,0.3868970999671625
18.20099999999926,0.0610921967029185,0.3407668465175467
18.400999999999506,0.01916564832466263,0.3134741553965692
18.60099999999975,-0.031200373454631256,0.305385127989179
18.799999999999994,-0.08519155660324805,0.3102097988758304
19.000000000000238,-0.14156053387490775,0.3208060368189974
19.200000000000482,-0.19735170511792016,0.33024642101449025
19.400000000000727,-0.26309381461227604,0.3491111176294614
19.60000000000097,-0.328238402936654,0.3722777735981698
19.800000000001216,-0.3842903899527424,0.4135869388881607
20.00000000000146,-0.42294143597605177,0.45178153823410117
