Time (s),X (m),Y (m)
0.001,0.0003099530129853942,0.0010272443824616275
0.20000000000000015,0.003214564491122951,0.0004788271625025535
0.4000000000000003,0.014412055487805253,0.005939697706496402
0.6000000000000004,0.03519971142955291,0.011137812945759967
0.8000000000000006,0.06164325105090055,-0.0019042287801330565
1.0000000000000007,0.08216280727879809,-0.01967414519263604
1.2009999999999785,0.11109371856134655,-0.046811594977312646
1.4009999999999565,0.15440947281636822,-0.07720284731867647
1.6009999999999345,0.18752185036493257,-0.11504037577583033
1.8009999999999124,0.19521072758637723,-0.1509393871948104
2.0009999999998906,0.1823973893115156,-0.1899314887592823
2.2009999999998686,0.15791205336498002,-0.2317428360605069
2.4009999999998466,0.12597530927699424,-0.23303143338459603
2.6009999999998246,0.08597019006312642,-0.21817785141233784
2.8009999999998025,0.03996041942880564,-0.21320703254989762
3.0009999999997805,-0.004537865362847851,-0.20804922003231882
3.2009999999997585,-0.05380325215650844,-0.22331744591165323
3.4009999999997365,-0.11467023541696866,-0.23968293167371252
3.6009999999997144,-0.19573681250289812,-0.2521264926951286
3.8009999999996924,-0.2514215935619892,-0.2535813448369607
4.000999999999671,-0.269899674483011,-0.23263023451175674
4.200999999999738,-0.27654420900913773,-0.18751474995808823
4.400999999999804,-0.2792786671192039,-0.13311637233989854
4.600999999999871,-0.27052039778126974,-0.08534012105217201
4.800999999999938,-0.2539373249683161,-0.041795369634939884
5.000000000000004,-0.21818732920808517,-0.011341726196939678
5.200000000000071,-0.16718314993825176,-0.001275767086140194
5.400000000000138,-0.10634524926357027,-0.003102527732875403
5.600000000000205,-0.04908013078611072,-0.016797572751236445
5.800000000000272,-0.010784887333154738,-0.043273917078594806
6.000000000000338,0.007210349830254641,-0.08304602726242001
6.200000000000405,-0.000835113951261465,-0.10201113335948823
6.400000000000472,-0.02908993412006454,-0.10331918109935063
6.600000000000539,-0.0763650407292669,-0.10790416788207885
6.800000000000606,-0.13727180917703377,-0.1067011706555178
7.000000000000672,-0.183207472615736,-0.09843663582170223
7.200000000000739,-0.19544148768629627,-0.07251932499617036
7.400000000000806,-0.2022108671622189,-0.018811014241750385
7.600000000000873,-0.2036602473229565,0.04598492329875497
7.8000000000009395,-0.18356292362286591,0.09937559116270671
8.000000000001005,-0.14659795835274753,0.13374745139184052
8.200000000000895,-0.09544431278761004,0.14757300301694123
8.400000000000784,-0.03926049169133873,0.14346328942552664
8.600000000000673,0.01954035030394424,0.13471474286357152
8.800000000000562,0.07574285935723071,0.11663716803594319
9.000000000000451,0.1109085340364941,0.08280339451872748
9.20000000000034,0.12135377491625741,0.03284377481779016
9.40000000000023,0.11849218358044938,-0.026900912723517297
9.600000000000119,0.10551057758922215,-0.09465359331470292
9.800000000000008,0.09666133283781815,-0.17032936122731585
10.000999999999896,0.08684301041525837,-0.24553778219698122
10.200999999999786,0.08163955793076563,-0.32319269642798293
10.400999999999675,0.06491851856186953,-0.3869230305326139
10.600999999999564,0.03860824535742766,-0.42705117640077966
10.800999999999453,-0.010410778136759237,-0.45250237919174396
11.000999999999342,-0.07148779308448167,-0.4726627141405678
11.200999999999231,-0.13891591734169173,-0.48994729299087825
11.40099999999912,-0.21460896282440722,-0.5127659910527435
11.60099999999901,-0.2935982138110609,-0.5279159280627692
11.800999999998899,-0.3717626746157226,-0.523100319666864
12.000999999998788,-0.443415443099614,-0.503418594766655
12.200999999998677,-0.4938157245139293,-0.4656624151002957
12.400999999998566,-0.5136475677700878,-0.40906126700754586
12.600999999998455,-0.5198352179288681,-0.33347791230677504
12.800999999998345,-0.5180393095174418,-0.2582810726541017
13.000999999998234,-0.49282015093452214,-0.21500765532545202
13.200999999998123,-0.4471561402002505,-0.19918639220795087
13.400999999998012,-0.41979222915603315,-0.2099703544649559
13.600999999997901,-0.40884451381822146,-0.25214876553207394
13.80099999999779,-0.41820418479771365,-0.30453350164062093
14.00099999999768,-0.4410432755897323,-0.3431383075322603
14.200999999997569,-0.48155727207433113,-0.36710817822823677
14.400999999997458,-0.5316763793880186,-0.4016463111566921
14.600999999997347,-0.5943510589910245,-0.428674958442076
14.800999999997236,-0.6596889105819275,-0.43891708811559815
15.000999999997125,-0.7204403147596488,-0.42706775476785735
15.200999999997014,-0.7621675336359126,-0.38732604036784607
15.400999999996904,-0.7728905510169918,-0.33325037526761475
15.600999999996793,-0.7649578151464052,-0.28741056933893633
15.800999999996682,-0.7455345918199968,-0.25174669570575947
16.000999999996573,-0.7011501333994754,-0.2277073092529625
16.200999999996817,-0.6497404586710744,-0.21240066384321699
16.40099999999706,-0.5988304358771387,-0.221887204297943
16.600999999997306,-0.5449734088719349,-0.2471920114004699
16.80099999999755,-0.4954487152802686,-0.2799548683480172
17.000999999997795,-0.43434162076484395,-0.3175184207010844
17.20099999999804,-0.3891745799185473,-0.3601380929902228
17.400999999998284,-0.3670731623721025,-0.4133922944999242
17.60099999999853,-0.3451350146402761,-0.4738517699770621
17.800999999998773,-0.3206886284669329,-0.5399717186591493
18.000999999999017,-0.3113073437781265,-0.6077259172553263
18.20099999999926,-0.3079270469352045,-0.651600714999223
18.400999999999506,-0.3153125201860978,-0.6604400956430271
18.60099999999975,-0.3437956172064717,-0.6531864882923482
18.799999999999994,-0.3940631534135447,-0.646296397852805
19.000000000000238,-0.4452475066223283,-0.6300567085091254
19.200000000000482,-0.5014702409412911,-0.6032730877662733
19.400000000000727,-0.5362437096739409,-0.5736071280672037
19.60000000000097,-0.5465528951529622,-0.5349727673037629
19.800000000001216,-0.5501367538097837,-0.4795020333232333
20.00000000000146,-0.5445768574415629,-0.4242267299287941
