Time (s),X (m),Y (m)
0.001,0.0006558713247593165,0.0009345558501746678
0.20000000000000015,0.002652747377894385,-0.00013997695617877693
0.4000000000000003,0.006499102574320684,-0.00378781150725559
0.6000000000000004,0.02356634834514347,-0.005549956736633196
0.8000000000000006,0.047121558501902486,-0.0077742731390997195
1.0000000000000007,0.07966689795219274,-0.010038632648841264
1.2009999999999785,0.11857978077935966,-0.018690995355958893
1.4009999999999565,0.15200473120304905,-0.020083798076998116
1.6009999999999345,0.18966926589299746,-0.016329846269204293
1.8009999999999124,0.24083052864693597,-0.004508960998335423
2.0009999999998906,0.29051873175259935,-0.00030621100797000305
2.2009999999998686,0.3353994625137653,0.0022389873196568114
2.4009999999998466,0.37014383298828235,-0.012459697637505249
2.6009999999998246,0.41739591959247113,-0.01716810800762963
2.8009999999998025,0.46450226936131617,-0.013323040702748404
3.0009999999997805,0.521429290575081,-0.00017881411728621537
3.2009999999997585,0.5766572871149825,0.014709207046685572
3.4009999999997365,0.6335478202251662,0.030125323642848513
3.6009999999997144,0.7006906022231869,0.04093710038972276
3.8009999999996924,0.7685572025372855,0.04836747600665687
4.000999999999671,0.8357694636247971,0.05290449348813857
4.200999999999738,0.8993275289621844,0.04442945601791167
4.400999999999804,0.9702695215005961,0.01723221257172889
4.600999999999871,1.0329885759181563,-0.022875655270666744
4.800999999999938,1.0773493597802843,-0.06905677305811424
5.000000000000004,1.096213854952053,-0.11690128769087002
5.200000000000071,1.0938750038699478,-0.17433121849226
5.400000000000138,1.0913604633218483,-0.23800480865265908
5.600000000000205,1.0930053541076816,-0.29916588487005535
5.800000000000272,1.0850513121680239,-0.36053001584274075
6.000000000000338,1.0622347926185274,-0.40038178946573033
6.200000000000405,1.0168420009962646,-0.425989296944849
6.400000000000472,0.9608483420991144,-0.4563196442028918
6.600000000000539,0.9048293866751912,-0.48697016064717435
6.800000000000606,0.8404597468400077,-0.5174388129611479
7.000000000000672,0.7723816764894198,-0.5585689281262954
7.200000000000739,0.71107282561397,-0.6014692180613309
7.400000000000806,0.6604686595495487,-0.6474807360972302
7.600000000000873,0.6182748988046868,-0.6928518334774195
7.8000000000009395,0.5872781086717257,-0.7433290114268231
8.000000000001005,0.5407709639103989,-0.8007624639923494
8.200000000000895,0.477462306764736,-0.8459027470132237
8.400000000000784,0.40521498704777353,-0.8759078873384368
8.600000000000673,0.33041948857587067,-0.896634044654009
8.800000000000562,0.27013394182701017,-0.90823203409126
9.000000000000451,0.21444683726058625,-0.9075233123266788
9.20000000000034,0.17912277429159146,-0.890052046088006
9.40000000000023,0.1442273380520807,-0.8501788724353089
9.600000000000119,0.10966904186899412,-0.7920388982728402
9.800000000000008,0.05588494673579561,-0.7247212486033058
10.000999999999896,-0.0001537951826857038,-0.6593217960606891
10.200999999999786,-0.06452218758714212,-0.5947458522445443
10.400999999999675,-0.13001346978987507,-0.5305946581730554
10.600999999999564,-0.16112016491683684,-0.46470650962159343
10.800999999999453,-0.19208395260479413,-0.39219742433701965
11.000999999999342,-0.23391636254048453,-0.32097296996767244
11.200999999999231,-0.2639899609540759,-0.24800031559608757
11.40099999999912,-0.29798743277082446,-0.16838584579737442
11.60099999999901,-0.3162452579415643,-0.0907812132823857
11.800999999998899,-0.33219430955693535,-0.01149715663687431
12.000999999998788,-0.37525717610765436,0.06655824525343897
12.200999999998677,-0.4229881694058881,0.14526676435374147
12.400999999998566,-0.49473562336625765,0.21580081783034258
12.600999999998455,-0.5533538610967761,0.28304826054111576
12.800999999998345,-0.6184777105474201,0.34207630364590125
13.000999999998234,-0.6802247078558173,0.398503762529015
13.200999999998123,-0.7447651343337052,0.4473651184234793
13.400999999998012,-0.7958566843849408,0.5003357280379985
13.600999999997901,-0.8499401207316798,0.5579277723299153
13.80099999999779,-0.9219376512219783,0.6107209756586576
14.00099999999768,-0.9718789776922633,0.6637536280169252
14.200999999997569,-1.017728443223349,0.7080190859177721
14.400999999997458,-1.0646982944412973,0.7658148184304949
14.600999999997347,-1.1089509103184263,0.824965085081922
14.800999999997236,-1.1738201875905852,0.8898762896968224
15.000999999997125,-1.237322112608174,0.9526196893232726
15.200999999997014,-1.297032933974126,1.0123670718616888
15.400999999996904,-1.3569636091137873,1.0727145555698776
15.600999999996793,-1.428039838212293,1.136188225987444
15.800999999996682,-1.5111445193491988,1.2137643993990406
16.000999999996573,-1.5747519401450067,1.2993698332068517
16.200999999996817,-1.6209753765227581,1.3800250410372767
16.40099999999706,-1.6791704960016267,1.4611415977361562
16.600999999997306,-1.7436285004663556,1.5436891570073346
16.80099999999755,-1.8089740711451072,1.630802977712868
17.000999999997795,-1.8734148716069239,1.7255698679625606
17.20099999999804,-1.9199345106806214,1.8191364410336588
17.400999999998284,-1.957383679057916,1.9102521275305469
17.60099999999853,-2.0007714007033677,1.9991214323971387
17.800999999998773,-2.052669828934966,2.0887547530184576
18.000999999999017,-2.1025293527313345,2.179160344175869
18.20099999999926,-2.1618332465983214,2.2570317907200685
18.400999999999506,-2.2220892824840037,2.3193567800628334
18.60099999999975,-2.2855801026262883,2.3628765242467646
18.799999999999994,-2.3571121143250724,2.4019595007768535
19.000000000000238,-2.4224358424733925,2.445324409120587
19.200000000000482,-2.4868397126567285,2.500441627147552
19.400000000000727,-2.5514960617074203,2.5614869296209175
19.60000000000097,-2.6094307476994283,2.6329407438848507
19.800000000001216,-2.673332043983103,2.7115222720700127
20.00000000000146,-2.723989230974473,2.7984906527039692
