Time (s),X (m),Y (m)
0.001,0.00013020853671323254,0.0010272443824616275
0.20000000000000015,0.00325142993640393,-0.0022893336649893025
0.4000000000000003,0.01102453909761209,-6.758001531580861e-05
0.6000000000000004,0.02763307211369444,-0.006111042780003231
0.8000000000000006,0.05166388084272616,-0.023176648937151722
1.0000000000000007,0.07949507611547658,-0.05446034306411448
1.2009999999999785,0.09804107967920155,-0.09767108418948896
1.4009999999999565,0.09551626480526526,-0.1479176829901866
1.6009999999999345,0.07716733905334977,-0.20406388971754771
1.8009999999999124,0.049046520961691854,-0.262694468439602
2.0009999999998906,0.024470359534908115,-0.32661300262769666
2.2009999999998686,-2.1868385046687057e-06,-0.3949089265698271
2.4009999999998466,-0.027193285295098922,-0.4613137357026294
2.6009999999998246,-0.06061588128777094,-0.4996385381274901
2.8009999999998025,-0.1121728325991858,-0.5091286069763231
3.0009999999997805,-0.15532880501944982,-0.49610212017600674
3.2009999999997585,-0.17461431020973858,-0.4661215355301918
3.4009999999997365,-0.16290896402627636,-0.4215971486010235
3.6009999999997144,-0.14305923847424554,-0.37154847707781996
3.8009999999996924,-0.10720565645494931,-0.3362879952411529
4.000999999999671,-0.05907095926908639,-0.3075615140789599
4.200999999999738,0.0011053768514158943,-0.3048039641554905
4.400999999999804,0.05573549048207217,-0.3232664836862284
4.600999999999871,0.08725527254045902,-0.3550976265213015
4.800999999999938,0.09413679585592248,-0.3987193479683418
5.000000000000004,0.08499823575097709,-0.4316359430411705
5.200000000000071,0.04885170767006239,-0.4463686182069615
5.400000000000138,-0.0073062252003124935,-0.43738603932949616
5.600000000000205,-0.07538135973745352,-0.41389737100764673
5.800000000000272,-0.09735785045506509,-0.3765660459845816
6.000000000000338,-0.09109928949669885,-0.3264602116817685
6.200000000000405,-0.06353141149592662,-0.27518399395900156
6.400000000000472,-0.018234613034656417,-0.2352552355346686
6.600000000000539,0.03654153362713224,-0.20105133787641463
6.800000000000606,0.1025811871888198,-0.17419147853099864
7.000000000000672,0.17466749002826007,-0.16114309184511977
7.200000000000739,0.22606556959308158,-0.1729019498281164
7.400000000000806,0.24702066188895053,-0.2024589546539619
7.600000000000873,0.25704202386279956,-0.2478817411389781
7.8000000000009395,0.25000274072374445,-0.2964677121085003
8.000000000001005,0.2276381497973955,-0.3257863875787437
8.200000000000895,0.17912803773561242,-0.3438179160505788
8.400000000000784,0.11724082962854389,-0.3496032984840878
8.600000000000673,0.0506416783357524,-0.3388185903789144
8.800000000000562,0.014822041791334277,-0.3085696035825405
9.000000000000451,0.0022938378884485872,-0.25850194700606816
9.20000000000034,0.011330304498591086,-0.19116477080511904
9.40000000000023,0.03179214262733088,-0.11431536819566313
9.600000000000119,0.0688122440861873,-0.04809459867603117
9.800000000000008,0.11429133034831587,-0.004255144898217228
10.000999999999896,0.1677741635752346,0.01910328452859102
10.200999999999786,0.23407009137458748,0.021128160186347503
10.400999999999675,0.30500658407283565,0.013610886561178192
10.600999999999564,0.370756618086845,-0.0067620142954738505
10.800999999999453,0.39784728079965354,-0.042931202753992564
11.000999999999342,0.3962467581995016,-0.08516987194102739
11.200999999999231,0.37933246577464286,-0.1329589080015658
11.40099999999912,0.34393994484389284,-0.16528988044679122
11.60099999999901,0.2962658066925595,-0.16587546054233684
11.800999999998899,0.24118760033774794,-0.14165021204255304
12.000999999998788,0.17875206743206679,-0.10650976889466107
12.200999999998677,0.11323309289731939,-0.06804990331519159
12.400999999998566,0.043031419453666134,-0.0377945496998083
12.600999999998455,-0.013454979953506417,-0.0016354153122990827
12.800999999998345,-0.04410228708852434,0.04842160295645827
13.000999999998234,-0.0659320005030412,0.1132357807508267
13.200999999998123,-0.072432939040786,0.1928274614313692
13.400999999998012,-0.059612706369081316,0.2539952479355178
13.600999999997901,-0.024983241741361344,0.2888345133364205
13.80099999999779,0.02891696176771569,0.2994079908350502
14.00099999999768,0.08639745263299685,0.28829124296649694
14.200999999997569,0.14497173008141767,0.26366014980315194
14.400999999997458,0.1636106647128716,0.22411122148834384
14.600999999997347,0.15957186814870544,0.1752007112946298
14.800999999997236,0.13629468626082897,0.1266979895587059
15.000999999997125,0.09461009702021957,0.10617526811121471
15.200999999997014,0.051676790135857846,0.1081155087769981
15.400999999996904,0.02405891613872192,0.126335838210503
15.600999999996793,0.020483045274248688,0.13522380627130756
15.800999999996682,0.037170062972431396,0.11683962255446564
16.000999999996573,0.06899874831915988,0.07964241945343449
16.200999999996817,0.1000764929034338,0.036208902331679935
16.40099999999706,0.09484531595835985,-0.01753321637283826
16.600999999997306,0.08808391506732319,-0.08602815073560174
16.80099999999755,0.06972987743832419,-0.15693923633233126
17.000999999997795,0.0327767057448399,-0.2076407213044848
17.20099999999804,-0.024969571059732264,-0.23365531459526998
17.400999999998284,-0.08563744777312758,-0.23131188004068842
17.60099999999853,-0.13860270500345942,-0.2113321036807128
17.800999999998773,-0.15136058922546441,-0.1732466868151768
18.000999999999017,-0.14551294290868033,-0.14037934925667153
18.20099999999926,-0.11742168484840018,-0.13972663059871596
18.400999999999506,-0.07244875093043478,-0.1535209231856365
18.60099999999975,-0.03708112411805136,-0.1916221642371244
18.799999999999994,-0.0002976832566577564,-0.23546807940670264
19.000000000000238,0.03317388172864533,-0.2909133934259534
19.200000000000482,0.03641030885574454,-0.3505316090233737
19.400000000000727,0.02145042616432153,-0.4207410162544038
19.60000000000097,0.002207218771269782,-0.5055267168198834
19.800000000001216,-0.027648877541938167,-0.5782019528690497
20.00000000000146,-0.07050966250442463,-0.6266082485713068
