Time (s),X (m),Y (m)
0.001,-0.0005090653149319316,0.0007291460897812449
0.20000000000000015,0.004884960196849834,-0.0025974756612208026
0.4000000000000003,0.006210510245880724,0.00022876548274745502
0.6000000000000004,0.023191320632256596,-0.00963376005513022
0.8000000000000006,0.038304061598476574,-0.011953799708457634
1.0000000000000007,0.04639744850286401,-0.007399940769309738
1.2009999999999785,0.058078160704460265,-0.012054797044004752
1.4009999999999565,0.0718510905710375,-0.010684071867736983
1.6009999999999345,0.08876763155112932,-0.01713719160648552
1.8009999999999124,0.11103788210315554,-0.02905609032800099
2.0009999999998906,0.13645739475828247,-0.03400159583856741
2.2009999999998686,0.15796330027829805,-0.03624822266593555
2.4009999999998466,0.17676274476277554,-0.03240582211406725
2.6009999999998246,0.1992038191835108,-0.033291304886152104
2.8009999999998025,0.2178279059674906,-0.04696659320149529
3.0009999999997805,0.23543831591723935,-0.06802348726223002
3.2009999999997585,0.25438333689053355,-0.08244715536521371
3.4009999999997365,0.27067398035898876,-0.08951415990742011
3.6009999999997144,0.28267556697267865,-0.100754453969502
3.8009999999996924,0.2999623525835083,-0.11325916109131862
4.000999999999671,0.31990622676671576,-0.1265446276807503
4.200999999999738,0.32792917148200473,-0.15470347401951093
4.400999999999804,0.3283271757367608,-0.18158202553212868
4.600999999999871,0.33954839859693225,-0.21494281773398247
4.800999999999938,0.34744215833832226,-0.24644422893426565
5.000000000000004,0.35260895296161104,-0.28084748277300925
5.200000000000071,0.356107819542573,-0.31733376003296093
5.400000000000138,0.35781784918107706,-0.3544525701353244
5.600000000000205,0.3572368965074195,-0.38678568760430887
5.800000000000272,0.36574896532321327,-0.4145510984661738
6.000000000000338,0.3675580535307752,-0.44045448989357144
6.200000000000405,0.35758118880568157,-0.4704111744399654
6.400000000000472,0.35326916790103535,-0.5006986462793985
6.600000000000539,0.3406140009075681,-0.5338876476719331
6.800000000000606,0.3226969215279209,-0.5671164109673018
7.000000000000672,0.30553557958274474,-0.6014127154546199
7.200000000000739,0.28024430716623466,-0.6356447377140011
7.400000000000806,0.27098796400122477,-0.6647583884963375
7.600000000000873,0.2602964224169958,-0.6971260577290945
7.8000000000009395,0.2505916294520328,-0.7266394098136817
8.000000000001005,0.23831686393214935,-0.7477461203423138
8.200000000000895,0.216037810669829,-0.7689829358932008
8.400000000000784,0.1988429936830538,-0.7871094969917257
8.600000000000673,0.17769276680766716,-0.804396286962475
8.800000000000562,0.16273114277826742,-0.8156710215430021
9.000000000000451,0.13590062001191117,-0.8291378505026483
9.20000000000034,0.11888843711315483,-0.8416681850389107
9.40000000000023,0.11046672769025859,-0.8640244669782977
9.600000000000119,0.09274102885494735,-0.8805281213628096
9.800000000000008,0.06391521949902651,-0.8912442801083006
10.000999999999896,0.03760975976515359,-0.9002259260184181
10.200999999999786,0.0035318013250714227,-0.9040043854334354
10.400999999999675,-0.031722675035982584,-0.9071921848014096
10.600999999999564,-0.07426513598391649,-0.8913894661580173
10.800999999999453,-0.11903072750787366,-0.8784872573021527
11.000999999999342,-0.15628527553626162,-0.8749069390709756
11.200999999999231,-0.18734305812960883,-0.8743739708016689
11.40099999999912,-0.2138894160554881,-0.8607808727764463
11.60099999999901,-0.23433151813645073,-0.8420801898029863
11.800999999998899,-0.24851182609995723,-0.8196533751503335
12.000999999998788,-0.252526482751293,-0.7800816901249928
12.200999999998677,-0.2555872280729085,-0.7453351065419344
12.400999999998566,-0.2547101975633612,-0.7092120001982753
12.600999999998455,-0.259172093964111,-0.6772045720364693
12.800999999998345,-0.25379756847455087,-0.6435056988412297
13.000999999998234,-0.24262415023785325,-0.6069445600152769
13.200999999998123,-0.23598585135106667,-0.5817509490248579
13.400999999998012,-0.2251274688361728,-0.5494236959814081
13.600999999997901,-0.21927627115991993,-0.5164196314538261
13.80099999999779,-0.2149681500935682,-0.4840950918360418
14.00099999999768,-0.20334878157878908,-0.4501219399972951
14.200999999997569,-0.17781827770777833,-0.4204732894433358
14.400999999997458,-0.14384774703169753,-0.39740968698279183
14.600999999997347,-0.10262477726873008,-0.3866722546527199
14.800999999997236,-0.060566383172530124,-0.3855332318432782
15.000999999997125,-0.021017667047370316,-0.3857717183853242
15.200999999997014,0.013988275827018762,-0.3854240866580249
15.400999999996904,0.049450410976774786,-0.38579432133229935
15.600999999996793,0.09197059701951589,-0.3866387389160535
15.800999999996682,0.12529747856120277,-0.3817782955676846
16.000999999996573,0.15395547375314783,-0.3766154690546982
16.200999999996817,0.18173892949698187,-0.3783719073273754
16.40099999999706,0.20507009677578447,-0.379102010311842
16.600999999997306,0.2305400425783506,-0.37495378456788314
16.80099999999755,0.2558840114839635,-0.38287784939264263
17.000999999997795,0.2803097031728782,-0.39151567939934423
17.20099999999804,0.2984187420353407,-0.4089194783768488
17.400999999998284,0.3210957036499381,-0.4219513710236658
17.60099999999853,0.3461968369866227,-0.43941333505205765
17.800999999998773,0.36443991317546626,-0.4555533475637891
18.000999999999017,0.38075314558062484,-0.47840544011750546
18.20099999999926,0.3920333317839231,-0.5058804672009357
18.400999999999506,0.3991461292323993,-0.5440629473173894
18.60099999999975,0.41375517295875724,-0.565314368520478
18.799999999999994,0.42396279531846487,-0.5953173857891996
19.000000000000238,0.4376116290292451,-0.6215232920201879
19.200000000000482,0.4384625645604254,-0.6566950524989513
19.400000000000727,0.4257848841676724,-0.6925300447468385
19.60000000000097,0.4302293382785673,-0.7281996196382935
19.800000000001216,0.43614668529513956,-0.7575611399183143
20.00000000000146,0.43811421510221954,-0.7890302704547578
