Time (s),X (m),Y (m)
0.001,-0.0007759513068619564,-0.00026688599193002436
0.20000000000000015,0.0001938110178517185,-0.00020365975527994272
0.4000000000000003,0.000385974685280117,-0.00029074267610480005
0.6000000000000004,0.020617502530280434,0.0018299670589729791
0.8000000000000006,0.03818354660831667,0.005429268328857253
1.0000000000000007,0.061174047965102236,0.009488326923197489
1.2009999999999785,0.08793855367413722,0.009065580261090023
1.4009999999999565,0.10722738112060938,-0.0011691452562472913
1.6009999999999345,0.13046470080030612,-0.014752550727078848
1.8009999999999124,0.15540680702041285,-0.030354242199485897
2.0009999999998906,0.18203631547620414,-0.04974628511085366
2.2009999999998686,0.21319200902084126,-0.07264615419605058
2.4009999999998466,0.25013439956850186,-0.09591238072183249
2.6009999999998246,0.29033988320955656,-0.12289937341714977
2.8009999999998025,0.32615976695629345,-0.14938524053265018
3.0009999999997805,0.36668235713998015,-0.18298271201003252
3.2009999999997585,0.40461439579063446,-0.21381117238962108
3.4009999999997365,0.44403575014357516,-0.2455456446780261
3.6009999999997144,0.48785657011159567,-0.28231943094793244
3.8009999999996924,0.5396352510107486,-0.3229576551998635
4.000999999999671,0.5885815279481438,-0.36555069497424025
4.200999999999738,0.6431071169282464,-0.4205612038958991
4.400999999999804,0.7034311322056837,-0.47689962244470674
4.600999999999871,0.7610646864767222,-0.5377116776494076
4.800999999999938,0.8022276533877701,-0.5981765582231392
5.000000000000004,0.8140227861573331,-0.6555679606639213
5.200000000000071,0.8061788957407062,-0.7053208472937021
5.400000000000138,0.7877246984288798,-0.7514835052882824
5.600000000000205,0.7546002271976701,-0.8065139046773765
5.800000000000272,0.7078071794970038,-0.8638324261656388
6.000000000000338,0.6483121633879698,-0.9213079032909925
6.200000000000405,0.5843612539792314,-0.980940962979552
6.400000000000472,0.5161312303949019,-1.034115574172201
6.600000000000539,0.44794429952615106,-1.0717115546540896
6.800000000000606,0.3862240639098047,-1.0857461783920954
7.000000000000672,0.3270938173553726,-1.071461468752445
7.200000000000739,0.2656338136831406,-1.0395071958504656
7.400000000000806,0.20375396490079334,-0.9925763684972876
7.600000000000873,0.163069805947158,-0.933903783445532
7.8000000000009395,0.14827810728036128,-0.8790105542958225
8.000000000001005,0.15519569155460522,-0.8317488448134603
8.200000000000895,0.17163764266917986,-0.7901592481653882
8.400000000000784,0.20605874159246834,-0.7425688429651173
8.600000000000673,0.23897182547221646,-0.6995496697415305
8.800000000000562,0.28692285436483744,-0.6709858688091802
9.000000000000451,0.33170909475457583,-0.6636589955142947
9.20000000000034,0.3762365713402243,-0.6731657421471609
9.40000000000023,0.42560533920845717,-0.689779074091824
9.600000000000119,0.4735125901021683,-0.7100387050829542
9.800000000000008,0.5231615057683572,-0.7386258323126234
10.000999999999896,0.57881535477403,-0.7764088211176448
10.200999999999786,0.6378686529103175,-0.8184042455376729
10.400999999999675,0.6989810745527492,-0.8669616240793621
10.600999999999564,0.762456585963379,-0.9232153065250547
10.800999999999453,0.817080856584602,-0.9709691710448246
11.000999999999342,0.8549468252668223,-1.0295892093295942
11.200999999999231,0.8780147598324325,-1.083344154086927
11.40099999999912,0.8820475913003726,-1.1360741934738874
11.60099999999901,0.862931510116247,-1.1964741828526235
11.800999999998899,0.8294965467951193,-1.2603131004950434
12.000999999998788,0.7891290899158728,-1.3227527505953902
12.200999999998677,0.7455159857173519,-1.3783387762463457
12.400999999998566,0.6985322167665005,-1.4376980946329998
12.600999999998455,0.6506915918551736,-1.4939261947778266
12.800999999998345,0.5866917436060833,-1.5479494630962796
13.000999999998234,0.5167415716149507,-1.597281838698642
13.200999999998123,0.4577691132255374,-1.6216391151981115
13.400999999998012,0.4053616885195249,-1.617752507464658
13.600999999997901,0.3476692015683357,-1.5938094061143921
13.80099999999779,0.28993333077451466,-1.5516495348586148
14.00099999999768,0.23408203238121708,-1.5059437379783125
14.200999999997569,0.18865284993624667,-1.4625246688240676
14.400999999997458,0.1361750075883287,-1.4214148752986033
14.600999999997347,0.08567621687716136,-1.3768172860142374
14.800999999997236,0.022535274604661693,-1.3196507787416685
15.000999999997125,-0.04806706180436121,-1.2478730807327951
15.200999999997014,-0.11361989079248812,-1.1699910429176175
15.400999999996904,-0.1518948693380747,-1.0939672076928728
15.600999999996793,-0.15420146066044838,-1.032008118020693
15.800999999996682,-0.13480011478614012,-0.9692852661563205
16.000999999996573,-0.10392375345240612,-0.9159243887782692
16.200999999996817,-0.06568771276625189,-0.8589926950114436
16.40099999999706,-0.017014069926664703,-0.7940017502088458
16.600999999997306,0.032005644839075385,-0.7362425650842577
16.80099999999755,0.08399736138121981,-0.6767085951257003
17.000999999997795,0.13194337706938417,-0.6138695434566528
17.20099999999804,0.1847948151833004,-0.5364900551752337
17.400999999998284,0.24326877775389355,-0.4533961835253159
17.60099999999853,0.30008803268400497,-0.3739113565978371
17.800999999998773,0.35584325144438333,-0.299792529263892
18.000999999999017,0.41039774482063546,-0.2256195156639533
18.20099999999926,0.46132738592783784,-0.16025465385195684
18.400999999999506,0.5121814622486008,-0.09159978111955222
18.60099999999975,0.5637016793980855,-0.023498978476634347
18.799999999999994,0.6193156251143512,0.04743537739271675
19.000000000000238,0.6907055132291046,0.11611744803491343
19.200000000000482,0.7708534499029804,0.17312299105978396
19.400000000000727,0.8454957069272514,0.19557635657539096
19.60000000000097,0.9199859624318377,0.1834767025714205
19.800000000001216,0.9908895349558083,0.1516785145504132
20.00000000000146,1.0556073948311073,0.10934708224424369
