Time (s),X (m),Y (m)
0.001,0.0009492268646305597,0.0007291460897812449
0.20000000000000015,-0.00045560540747711643,-0.0023589724320752462
0.4000000000000003,0.001974391632806629,-0.0016202562242131685
0.6000000000000004,0.0036245321701640692,-0.0021945408623031248
0.8000000000000006,0.007373563384713465,-0.0024614629717417532
1.0000000000000007,0.011048754094288555,-0.0010158656107210474
1.2009999999999785,0.014776284727898449,0.00128549323592711
1.4009999999999565,0.01854108143412522,0.0024510609028862485
1.6009999999999345,0.02343853016432839,0.005872979320097785
1.8009999999999124,0.028742328294826737,0.010842538241563924
2.0009999999998906,0.033143313602777044,0.013985996373130673
2.2009999999998686,0.037761907938401604,0.016621485244805004
2.4009999999998466,0.043639325231257305,0.020977372535889976
2.6009999999998246,0.04835437399713693,0.023988442477507158
2.8009999999998025,0.05383048830920079,0.02662090707653117
3.0009999999997805,0.0611858954463434,0.03338777621100729
3.2009999999997585,0.06629734417020437,0.038780601015066224
3.4009999999997365,0.07141017530281239,0.041581723474863795
3.6009999999997144,0.07711058364723625,0.046345414984639906
3.8009999999996924,0.08256843118058145,0.0539982008493536
4.000999999999671,0.08764092325051366,0.057954803553417866
4.200999999999738,0.09283887621459377,0.0637927331372205
4.400999999999804,0.09808128070673931,0.07132589120736525
4.600999999999871,0.10228442057950514,0.07621616260465555
4.800999999999938,0.10634087183757071,0.08299154419485845
5.000000000000004,0.10999026997405438,0.08742152609495314
5.200000000000071,0.11308067353024764,0.0947857295162986
5.400000000000138,0.11606077724088966,0.10076075460849596
5.600000000000205,0.11842820533504204,0.10611110392482612
5.800000000000272,0.12119347190676472,0.1129046453021447
6.000000000000338,0.12314691611907587,0.11909145180538629
6.200000000000405,0.12451247818473404,0.12540683112909176
6.400000000000472,0.12568970472929972,0.13206741767168154
6.600000000000539,0.1266472523633759,0.138761980218383
6.800000000000606,0.12688397303671795,0.14548444901577845
7.000000000000672,0.12691393082826471,0.15340745413535814
7.200000000000739,0.1270972394682881,0.16156356517221984
7.400000000000806,0.12716504053170308,0.16808995434530835
7.600000000000873,0.12682502139849525,0.17618917689963629
7.8000000000009395,0.12441148546773252,0.18542693945758423
8.000000000001005,0.12379127260344111,0.1949747626917452
8.200000000000895,0.11956729162548185,0.20372187105472317
8.400000000000784,0.11691550312957394,0.21181689887335534
8.600000000000673,0.11212971156824146,0.22085367141209516
8.800000000000562,0.10781788790752211,0.23029252163309177
9.000000000000451,0.10955926276285637,0.2371559914122757
9.20000000000034,0.11577617018817374,0.24013532744435287
9.40000000000023,0.12055850486087602,0.24460088651574194
9.600000000000119,0.12425956239237163,0.2491259596272197
9.800000000000008,0.1291807937067787,0.252851805009203
10.000999999999896,0.1341818625228372,0.2566615610245115
10.200999999999786,0.1408907055579174,0.2594270101971627
10.400999999999675,0.146031253217976,0.2624620340529437
10.600999999999564,0.15077743281631992,0.26568609710569874
10.800999999999453,0.15542101677454256,0.2688172276540545
11.000999999999342,0.15896870638967817,0.2728913314687561
11.200999999999231,0.1637929015585052,0.27680420937007827
11.40099999999912,0.1686206166414553,0.28059220921490285
11.60099999999901,0.17216334270180148,0.2842918390748191
11.800999999998899,0.1756494411057186,0.28843779727990376
12.000999999998788,0.1813162522176711,0.29210679425950914
12.200999999998677,0.18588530180528398,0.2960475277704358
12.400999999998566,0.19069736389050432,0.300804825532635
12.600999999998455,0.19386193168977658,0.30597973136091433
12.800999999998345,0.19617626973003102,0.3112662449612132
13.000999999998234,0.19869926049094655,0.31673545510688644
13.200999999998123,0.2036985652031143,0.32183684488064124
13.400999999998012,0.20464823225209533,0.32733491389608355
13.600999999997901,0.20914877040652968,0.33327166006449666
13.80099999999779,0.2107225064240313,0.3385747161896447
14.00099999999768,0.2122428131023363,0.34455517787715045
14.200999999997569,0.21607074516428712,0.35021782139105256
14.400999999997458,0.219618470866313,0.3560713858358121
14.600999999997347,0.22154844255036946,0.3614127325304338
14.800999999997236,0.22053226326628644,0.3672519388696562
15.000999999997125,0.2226370381113043,0.3737029490135005
15.200999999997014,0.22300882243489636,0.37948109557737547
15.400999999996904,0.22307648087356458,0.3856646260285791
15.600999999996793,0.22552672471689844,0.39156784648537063
15.800999999996682,0.22396308441929985,0.39720598257300554
16.000999999996573,0.2232287542126905,0.40296831912240283
16.200999999996817,0.22097437603025474,0.40862790890889356
16.40099999999706,0.22060535841989204,0.4147542147898239
16.600999999997306,0.21897807867324,0.4202131227089173
16.80099999999755,0.21702654988609085,0.42557501292566946
17.000999999997795,0.2145337347842678,0.43105047266645913
17.20099999999804,0.2122377185024395,0.4368962953829555
17.400999999998284,0.2110251641993811,0.4429578561796163
17.60099999999853,0.20702790174720834,0.44750595078420086
17.800999999998773,0.19916388091154108,0.44941790338964505
18.000999999999017,0.19163061715005753,0.4497355558912016
18.20099999999926,0.1826171022438172,0.44916795580955987
18.400999999999506,0.1735294599916751,0.4475801760422525
18.60099999999975,0.1658494666289759,0.4460787145000493
18.799999999999994,0.1573125408680872,0.4440467523807813
19.000000000000238,0.14793218758641768,0.43895347200022866
19.200000000000482,0.1388501661111034,0.4339394759882131
19.400000000000727,0.1291658190378822,0.42785377220862497
19.60000000000097,0.11967931298328038,0.4236298323497776
19.800000000001216,0.10957179857309367,0.4215982669695132
20.00000000000146,0.10295466667626708,0.42337660255076415
