Time (s),X (m),Y (m)
0.001,0.0008115346074009382,0.0008446836120385872
0.20000000000000015,0.00015694176642207924,-0.0027679900916658924
0.4000000000000003,0.0026273375366239267,-0.001980385659171696
0.6000000000000004,0.0019146348713029253,-0.0019548603715440612
0.8000000000000006,0.006290933921809832,-0.0006855961845230435
1.0000000000000007,0.00923813290095204,-0.00027955994496449795
1.2009999999999785,0.01210168278325349,0.0009640481896153949
1.4009999999999565,0.01508376198561153,0.002085894994988955
1.6009999999999345,0.019115834029279136,0.004887309291947258
1.8009999999999124,0.023100972498509998,0.007711684634090363
2.0009999999998906,0.027658914895911588,0.012746808521203839
2.2009999999998686,0.031715163730732604,0.01476277857790599
2.4009999999998466,0.0364324484903838,0.01799553486428515
2.6009999999998246,0.04022362928126113,0.021447731678604243
2.8009999999998025,0.044783297817956785,0.025005111673027266
3.0009999999997805,0.048819261816831064,0.029870280781040502
3.2009999999997585,0.053148135762807434,0.03345861724796268
3.4009999999997365,0.05715079897277214,0.036122865725320606
3.6009999999997144,0.0610224119715519,0.04121414719356408
3.8009999999996924,0.0649202793819635,0.043773973704700764
4.000999999999671,0.0692183523196718,0.047601981096248906
4.200999999999738,0.07320779347018762,0.05094121714028103
4.400999999999804,0.07653032185917749,0.055179643104108334
4.600999999999871,0.0795310029401782,0.06226687012091128
4.800999999999938,0.08297833047998124,0.0681614447456253
5.000000000000004,0.08610177313449287,0.07067488709174188
5.200000000000071,0.08840453644099217,0.07808502231229668
5.400000000000138,0.09149906928477293,0.08284392937892963
5.600000000000205,0.09421751152333199,0.08815538188726536
5.800000000000272,0.0959440777938812,0.0945466918225835
6.000000000000338,0.0974020703021476,0.10059954505267509
6.200000000000405,0.09924343189251941,0.10696058087849136
6.400000000000472,0.09975143609902794,0.11383179889576915
6.600000000000539,0.10203569380796335,0.1196598987582046
6.800000000000606,0.10183058707216541,0.1260469028675957
7.000000000000672,0.10239952627383275,0.1335001340192848
7.200000000000739,0.10455746564921584,0.13929155228313114
7.400000000000806,0.10183295670041802,0.14874958756005197
7.600000000000873,0.10342838888892575,0.15536927745168044
7.8000000000009395,0.10156837546564691,0.16320426598006066
8.000000000001005,0.10155002885654793,0.17170393266766457
8.200000000000895,0.09776095027406795,0.18001685177036014
8.400000000000784,0.09233936889658659,0.1896725213614477
8.600000000000673,0.09390828049518292,0.19633061636950552
8.800000000000562,0.09631856097315923,0.20394421770706594
9.000000000000451,0.09677350001165354,0.21223550116506376
9.20000000000034,0.09688928654615064,0.21998032865606212
9.40000000000023,0.09663098949768267,0.22746783328833436
9.600000000000119,0.09686081360019122,0.23465481927046938
9.800000000000008,0.09635724658133862,0.24177326992407483
10.000999999999896,0.09546850326350148,0.24883069133883476
10.200999999999786,0.09725754707073615,0.2554014627262587
10.400999999999675,0.09727396833338736,0.2621961484935477
10.600999999999564,0.09681437605527911,0.269046990225488
10.800999999999453,0.09826421228727848,0.27510007266475617
11.000999999999342,0.10136584023765764,0.2806971239592743
11.200999999999231,0.10435640359250554,0.28709410912272104
11.40099999999912,0.10781430064267399,0.29312845448971026
11.60099999999901,0.11002706776606798,0.3003172309000968
11.800999999998899,0.11483498027824629,0.30665011806335113
12.000999999998788,0.1158141381403526,0.31311326858511895
12.200999999998677,0.11294568141029933,0.32052256906231297
12.400999999998566,0.11031958233390732,0.3273739337997463
12.600999999998455,0.10972766071469456,0.3345589666534127
12.800999999998345,0.1098008362161552,0.3416507178170411
13.000999999998234,0.11126353397719245,0.34912496076583144
13.200999999998123,0.1123738690695929,0.3569748226555722
13.400999999998012,0.11326259533050635,0.36479779851465083
13.600999999997901,0.11165396098410604,0.37171707757339795
13.80099999999779,0.10771923257316829,0.3765623591938747
14.00099999999768,0.10152296240785229,0.38130265610505054
14.200999999997569,0.09274110658385995,0.38304836862616176
14.400999999997458,0.08632866379289722,0.3860419432128405
14.600999999997347,0.07877647897336398,0.38878537848990874
14.800999999997236,0.07056012174209586,0.3912391593408237
15.000999999997125,0.06203142624407488,0.3931138269822735
15.200999999997014,0.05510927098453143,0.3959153176838984
15.400999999996904,0.04622269013408678,0.3947138180452633
15.600999999996793,0.03886507874190485,0.396693142661343
15.800999999996682,0.029870288641986,0.3958148551790675
16.000999999996573,0.02091418780414231,0.39349038970671646
16.200999999996817,0.013171586177564035,0.39296559574781015
16.40099999999706,0.0039834955468230245,0.39229395848765325
16.600999999997306,-0.003545313855699087,0.39278483264572345
16.80099999999755,-0.012079355136869583,0.39045137541964414
17.000999999997795,-0.020006448060783666,0.390993680424849
17.20099999999804,-0.02842333644176237,0.39056760206730207
17.400999999998284,-0.035218361084229884,0.3939540199804596
17.60099999999853,-0.042714855139331195,0.3956842733956888
17.800999999998773,-0.05142185174546877,0.3964276956719377
18.000999999999017,-0.05853865279516942,0.39891777771334336
18.20099999999926,-0.06615525379353619,0.399644598138933
18.400999999999506,-0.07180095886196726,0.40431674723127586
18.60099999999975,-0.07748920742525074,0.40770945152830323
18.799999999999994,-0.08439008454189484,0.4081337013325498
19.000000000000238,-0.08998312130294019,0.41181693019120075
19.200000000000482,-0.09676351405020155,0.414189674467908
19.400000000000727,-0.10324692031960553,0.4165393377756105
19.60000000000097,-0.10960226766900448,0.4196499328909058
19.800000000001216,-0.11604778889448732,0.4236279505890123
20.00000000000146,-0.12307702623456597,0.42395461939244716
