Time (s),X (m),Y (m)
0.001,0.0001302085367132322,-0.0010272443824616275
0.20000000000000015,0.0014222979079244172,0.00367608893867173
0.4000000000000003,0.0026106603380692604,0.003191615199135153
0.6000000000000004,0.006173758482037396,0.0053572258763356076
0.8000000000000006,0.008639439674034933,0.00402340061042543
1.0000000000000007,0.010627965060165138,0.0032181560232533556
1.2009999999999785,0.013220649885491636,0.004016558096612843
1.4009999999999565,0.01596320357399917,0.0061284757160877555
1.6009999999999345,0.019783880415854927,0.004383312072225126
1.8009999999999124,0.023599010498075265,0.0007650296070945473
2.0009999999998906,0.027630855267713323,0.003384520756937461
2.2009999999998686,0.03178099043233904,0.004793217641688444
2.4009999999998466,0.035395844463051204,0.008485710745302051
2.6009999999998246,0.03905721602648449,0.006331498396861176
2.8009999999998025,0.04302850001916687,0.00756196709886085
3.0009999999997805,0.047540151585040796,0.011353741800317412
3.2009999999997585,0.0512300518988969,0.009927762780008153
3.4009999999997365,0.05471718424466674,0.020605894438897456
3.6009999999997144,0.05888712258069867,0.022106276844283627
3.8009999999996924,0.06298525771382339,0.01760424412932392
4.000999999999671,0.06756080720485905,0.02080452700296663
4.200999999999738,0.07238504758544996,0.02110700172796246
4.400999999999804,0.07726533191003272,0.016103688309866592
4.600999999999871,0.08189246704869466,0.016188329547491904
4.800999999999938,0.08701892489833037,0.018081477237253254
5.000000000000004,0.09270530781409982,0.01934584371426992
5.200000000000071,0.09691746411004862,0.014330848582323752
5.400000000000138,0.1025277391203519,0.013571164873965482
5.600000000000205,0.1072934174632242,0.016767321834006806
5.800000000000272,0.11201569599653101,0.01918819928844073
6.000000000000338,0.11804345891658898,0.023015429819359244
6.200000000000405,0.12196400972620691,0.022476030525312666
6.400000000000472,0.12705524108276844,0.02105051971820859
6.600000000000539,0.1322469333208809,0.01699808587816121
6.800000000000606,0.13785749286561447,0.025655537216712872
7.000000000000672,0.14279044818841066,0.031225279485641806
7.200000000000739,0.14831407997345028,0.03182631930825406
7.400000000000806,0.15362618705158254,0.028765026658996332
7.600000000000873,0.15973959508507093,0.03404070871263215
7.8000000000009395,0.1643736236746529,0.03128397658948494
8.000000000001005,0.16911682643133155,0.028727940516705085
8.200000000000895,0.17468210600487116,0.032628934545245694
8.400000000000784,0.1796702097029916,0.031099463084805653
8.600000000000673,0.18474283181224804,0.034417636875154076
8.800000000000562,0.18950061987457956,0.032373329771447835
9.000000000000451,0.19516743120188193,0.03494951272550918
9.20000000000034,0.2013610494688648,0.03604918221883813
9.40000000000023,0.2070435962726525,0.037875046430114113
9.600000000000119,0.21311415402937087,0.03866604651350737
9.800000000000008,0.21762623662041622,0.0358945344824847
10.000999999999896,0.22276530605417802,0.03512914312456719
10.200999999999786,0.2284020023100593,0.0394029969759593
10.400999999999675,0.23410796428681482,0.03950849124590076
10.600999999999564,0.24022522762071447,0.04113642539207309
10.800999999999453,0.24544198866129752,0.0432302926944909
11.000999999999342,0.250738691484558,0.04339851431273218
11.200999999999231,0.25543785243437495,0.044855904110611806
11.40099999999912,0.2613603097475826,0.047040072424632984
11.60099999999901,0.2660277808311516,0.04271030731116561
11.800999999998899,0.2711898788500453,0.045465387317582345
12.000999999998788,0.2771945479354772,0.044108507349524886
12.200999999998677,0.28242435350431255,0.044980250002774974
12.400999999998566,0.2875478290429778,0.04594882478783572
12.600999999998455,0.29330500538739285,0.047084317831528666
12.800999999998345,0.2989511257804672,0.04456038226286485
13.000999999998234,0.3036815037944108,0.04667574000436953
13.200999999998123,0.30878261130005547,0.04683352473291775
13.400999999998012,0.31329746326699165,0.046961604694123846
13.600999999997901,0.3184005488941661,0.05130678047028709
13.80099999999779,0.323666887503135,0.05274439556758455
14.00099999999768,0.3291300293447014,0.05000991971133402
14.200999999997569,0.333379286614843,0.054995199921867265
14.400999999997458,0.3382797809761796,0.05385329297402684
14.600999999997347,0.3434648220783817,0.04811610434774471
14.800999999997236,0.34875322369018275,0.04980891039245058
15.000999999997125,0.35421053528040064,0.050391594199215704
15.200999999997014,0.35932128396105173,0.05330232461628503
15.400999999996904,0.3646251728976378,0.05234230494660891
15.600999999996793,0.36973630099077337,0.052312363773626976
15.800999999996682,0.37471820647935267,0.05407393188520556
16.000999999996573,0.38020516635599827,0.05486915710115685
16.200999999996817,0.3858861708330143,0.055343353905913696
16.40099999999706,0.3910811809516039,0.05287085735288909
16.600999999997306,0.39549523901088934,0.059634071544848
16.80099999999755,0.40095098276280156,0.05735310574001808
17.000999999997795,0.4050400817270595,0.05763511339077197
17.20099999999804,0.4106911478160679,0.05951696223021575
17.400999999998284,0.41539649746059537,0.05662859895452635
17.60099999999853,0.4213195232735165,0.057993283419446984
17.800999999998773,0.4259144011134329,0.05819718473999128
18.000999999999017,0.4319774883928127,0.05792922107497252
18.20099999999926,0.4370602616300136,0.05805162942247532
18.400999999999506,0.44193051540730827,0.05663042361772355
18.60099999999975,0.44614379825213735,0.058040618139509635
18.799999999999994,0.450685982258259,0.06174968556851978
19.000000000000238,0.45607692154523705,0.06065572889066049
19.200000000000482,0.4608602425005599,0.0595098283528431
19.400000000000727,0.46590966608042805,0.06057504327552899
19.60000000000097,0.4706428981013985,0.06030487329027195
19.800000000001216,0.47579479714937883,0.06301696594057757
20.00000000000146,0.48135763237307194,0.06068174745719935
