Time (s),X (m),Y (m)
0.001,-0.0006729371591054965,0.000515584144559974
0.20000000000000015,0.005010532999336841,-0.0014606384096082891
0.4000000000000003,0.013827326891917844,0.004082916351251859
0.6000000000000004,0.02758905494936004,0.008741176913551616
0.8000000000000006,0.044536181850741326,0.008437110050058564
1.0000000000000007,0.07111331181754851,0.0018026507387004095
1.2009999999999785,0.10832066755613581,-0.02217315666591385
1.4009999999999565,0.14029746512632021,-0.034875754126466534
1.6009999999999345,0.16363919118422368,-0.046794759890148856
1.8009999999999124,0.19077736287760333,-0.07474441020311337
2.0009999999998906,0.21167429637969007,-0.09711560200358274
2.2009999999998686,0.2241923114273342,-0.11003472445488499
2.4009999999998466,0.2241437680842878,-0.12732056719121226
2.6009999999998246,0.21661249235519262,-0.15716084827256321
2.8009999999998025,0.20888415922033332,-0.19893514867038956
3.0009999999997805,0.20385839372590364,-0.23816272966567167
3.2009999999997585,0.1885379786340886,-0.2740225246964329
3.4009999999997365,0.16938600862775371,-0.30814913536440014
3.6009999999997144,0.15702391573423266,-0.34314689327485437
3.8009999999996924,0.15331982718703008,-0.38060467948666626
4.000999999999671,0.13680513766084143,-0.42405133411025303
4.200999999999738,0.12182942040905399,-0.46798100872082293
4.400999999999804,0.11980107892343582,-0.5148082869638733
4.600999999999871,0.09239216611072613,-0.5463031010522266
4.800999999999938,0.05500552177243953,-0.5595964550078782
5.000000000000004,0.020344129068933656,-0.5665777085461308
5.200000000000071,-0.018997116457819672,-0.5646419816624584
5.400000000000138,-0.05311141868221176,-0.5676306368317198
5.600000000000205,-0.08465552536849315,-0.571812237342629
5.800000000000272,-0.11967129332044586,-0.5623294036106714
6.000000000000338,-0.16202683558879258,-0.5425434637943671
6.200000000000405,-0.21180155747062102,-0.5204145685247479
6.400000000000472,-0.26557320315239247,-0.49405609614757967
6.600000000000539,-0.3156962741698924,-0.46913587680014085
6.800000000000606,-0.35914551052165217,-0.4401801237390681
7.000000000000672,-0.3907017140872448,-0.3960090632835518
7.200000000000739,-0.4059124498588858,-0.34943021562671234
7.400000000000806,-0.4088586564916994,-0.30860237693318876
7.600000000000873,-0.3941835077047483,-0.2625776947573365
7.8000000000009395,-0.37505493222705316,-0.21186726085159324
8.000000000001005,-0.3387199909580837,-0.16477477603239468
8.200000000000895,-0.2939930355951189,-0.1389682194690141
8.400000000000784,-0.24288938442259483,-0.1314159499012216
8.600000000000673,-0.18566762479865145,-0.13452356902443457
8.800000000000562,-0.134307556556179,-0.1420859205303334
9.000000000000451,-0.07566205259857171,-0.1650059437278629
9.20000000000034,-0.01771012496982377,-0.20515418386291062
9.40000000000023,0.025741870929673043,-0.2618464460651525
9.600000000000119,0.040867166272202174,-0.3129424868210208
9.800000000000008,0.04122624205598538,-0.3583638743925813
10.000999999999896,0.031837898988808615,-0.4029004804902355
10.200999999999786,0.004255431964603021,-0.4519897531969536
10.400999999999675,-0.027819926505516946,-0.4968479549618474
10.600999999999564,-0.06320518316820395,-0.5284634130808503
10.800999999999453,-0.10421678828511657,-0.5430286509728657
11.000999999999342,-0.16138838585716225,-0.5409468246545666
11.200999999999231,-0.21856750146032886,-0.5270435000485467
11.40099999999912,-0.27180089599065743,-0.5184276473157677
11.60099999999901,-0.3192195929075467,-0.504141041939101
11.800999999998899,-0.3743424408401757,-0.4848469842142109
12.000999999998788,-0.4303827198042049,-0.4746981775292471
12.200999999998677,-0.48445195524416956,-0.4604226189533859
12.400999999998566,-0.536596474293298,-0.4411945792115347
12.600999999998455,-0.5927422303129967,-0.4049157034345727
12.800999999998345,-0.647301025790219,-0.3748208081987519
13.000999999998234,-0.6943063547071184,-0.3494958951594925
13.200999999998123,-0.7226738257478822,-0.3154631524104537
13.400999999998012,-0.7352973639310374,-0.28053517283758916
13.600999999997901,-0.7271132637956764,-0.23312045218046304
13.80099999999779,-0.7005744486032529,-0.17654049500455163
14.00099999999768,-0.6646238102754731,-0.12301133270544024
14.200999999997569,-0.6277834630024901,-0.08897959410615248
14.400999999997458,-0.5914137087587665,-0.07496795472171307
14.600999999997347,-0.5499089201159189,-0.07275459288127306
14.800999999997236,-0.5035346748325206,-0.08204590439525103
15.000999999997125,-0.4602067770050181,-0.09567554247128576
15.200999999997014,-0.41486574694749234,-0.10232639156891576
15.400999999996904,-0.3696977960335951,-0.11228299749630269
15.600999999996793,-0.31733626881060784,-0.15409149452878368
15.800999999996682,-0.2661375678684358,-0.18042954561994018
16.000999999996573,-0.24362218423222035,-0.21715103889031914
16.200999999996817,-0.24035733668314962,-0.2625490668685849
16.40099999999706,-0.24457251685362388,-0.31611300365806255
16.600999999997306,-0.25962723753819056,-0.3718089845138209
16.80099999999755,-0.2738645389710268,-0.4256614615439642
17.000999999997795,-0.29587706509654943,-0.47719854522260235
17.20099999999804,-0.3291647702489246,-0.5217534063006951
17.400999999998284,-0.3708341941748345,-0.5469907880874093
17.60099999999853,-0.4110661726596916,-0.5617479181901509
17.800999999998773,-0.448757427668595,-0.5629384722829198
18.000999999999017,-0.49119998932388914,-0.5532541154780098
18.20099999999926,-0.5414026010474746,-0.5432721285494974
18.400999999999506,-0.5941997686393159,-0.5252021322008137
18.60099999999975,-0.6406946254774528,-0.49423603094104207
18.799999999999994,-0.6746153449638727,-0.44778710859586246
19.000000000000238,-0.6785841245495267,-0.378186691730366
19.200000000000482,-0.6652831158882635,-0.30159685869639147
19.400000000000727,-0.6443817212097508,-0.22905789343574556
19.60000000000097,-0.6321154824557246,-0.17031536239441203
19.800000000001216,-0.6243524767716775,-0.11614604548815272
20.00000000000146,-0.589392086105003,-0.06577377830613015
