Time (s),X (m),Y (m)
0.001,0.0001302085367132322,-0.0010272443824616275
0.20000000000000015,0.0030845719222850378,0.0033614232628700834
0.4000000000000003,0.01151258211882703,0.008438397617659727
0.6000000000000004,0.030189912531245776,0.023835011004896746
0.8000000000000006,0.05994978603632164,0.042239410662691046
1.0000000000000007,0.09746925858681917,0.047927537630836056
1.2009999999999785,0.1393042639151011,0.043359617384600896
1.4009999999999565,0.17593591690394128,0.027970924152757322
1.6009999999999345,0.2091711481083373,-0.0017380979801395662
1.8009999999999124,0.22135979674121406,-0.039479242769866946
2.0009999999998906,0.2215147508556414,-0.08201178178145274
2.2009999999998686,0.21458038472056715,-0.12821076977697313
2.4009999999998466,0.20209054717912003,-0.16976832121309018
2.6009999999998246,0.18546974307073805,-0.20405378980848324
2.8009999999998025,0.16123134764119926,-0.22631206954780048
3.0009999999997805,0.12182093330984509,-0.22720186510140444
3.2009999999997585,0.06469590841070634,-0.22500543061523398
3.4009999999997365,0.015002750585823343,-0.21424923297528434
3.6009999999997144,-0.01693300064214122,-0.18986364596781943
3.8009999999996924,-0.02956931143163773,-0.15552124804625428
4.000999999999671,-0.028447703944319024,-0.10885710052953242
4.200999999999738,-0.013505358999025604,-0.06882111732354139
4.400999999999804,0.010925655214301588,-0.04931114990894945
4.600999999999871,0.04105648524645535,-0.04597172268313258
4.800999999999938,0.07952491992960035,-0.061685151943753354
5.000000000000004,0.11964013440138528,-0.08728575823051579
5.200000000000071,0.1766711083340957,-0.11012919566798073
5.400000000000138,0.22872765812195428,-0.13836817371777144
5.600000000000205,0.2604680204018031,-0.17637365465399882
5.800000000000272,0.28547082573931165,-0.22492789192642446
6.000000000000338,0.3119752913207518,-0.28201961213035026
6.200000000000405,0.30893468021437265,-0.34141508558844286
6.400000000000472,0.29457743720294205,-0.39951008517546005
6.600000000000539,0.26559715024172004,-0.4409129526857046
6.800000000000606,0.2292259852124768,-0.4647147625186019
7.000000000000672,0.19100080052868468,-0.4806724518853306
7.200000000000739,0.13696560467412544,-0.49865665707661994
7.400000000000806,0.08098665748860945,-0.500265215727995
7.600000000000873,0.016426210113812827,-0.4922958377981516
7.8000000000009395,-0.041878500469474354,-0.4732635888326266
8.000000000001005,-0.08687720315530464,-0.4438884533518242
8.200000000000895,-0.0941116652811518,-0.40183199527904817
8.400000000000784,-0.08703649395726717,-0.3565271117714332
8.600000000000673,-0.0721932464170003,-0.31063131856118376
8.800000000000562,-0.0503747715515308,-0.28231650640341344
9.000000000000451,-0.014150642223458628,-0.2582742743188956
9.20000000000034,0.03146842832662083,-0.25515903870271717
9.40000000000023,0.08597780623050118,-0.2536290195708068
9.600000000000119,0.14477909800117536,-0.2498620377806504
9.800000000000008,0.211609121391291,-0.2315845966896281
10.000999999999896,0.28023336904159085,-0.20328730911269408
10.200999999999786,0.3455830707805481,-0.19694257202084134
10.400999999999675,0.39888542507822333,-0.21325620075303836
10.600999999999564,0.4435191221436804,-0.2433225742195779
10.800999999999453,0.48519940346414075,-0.282867340740578
11.000999999999342,0.5121429643549847,-0.32420345441568865
11.200999999999231,0.5410085974791593,-0.3816460165683581
11.40099999999912,0.560684888964004,-0.4542763170589602
11.60099999999901,0.5565550480482655,-0.5135362247181019
11.800999999998899,0.5364928645370801,-0.562348410243035
12.000999999998788,0.5038558344286668,-0.5951218456166372
12.200999999998677,0.4616738114406949,-0.6042143136780334
12.400999999998566,0.3991127302111192,-0.6031276179074071
12.600999999998455,0.3418492699767491,-0.5908144502614221
12.800999999998345,0.2995921670184693,-0.5669039105376212
13.000999999998234,0.2634491721530366,-0.5192926359191969
13.200999999998123,0.24888403538340767,-0.4640431505898859
13.400999999998012,0.24383429793340144,-0.40727138338754365
13.600999999997901,0.24817221064574913,-0.3494683084593543
13.80099999999779,0.26130770518880997,-0.2968090769331587
14.00099999999768,0.2891339079262584,-0.26744303546305115
14.200999999997569,0.3297602216682585,-0.2569894802676355
14.400999999997458,0.3836281681957037,-0.25681427568531195
14.600999999997347,0.4374251194773642,-0.2620656859052589
14.800999999997236,0.49112079145723236,-0.2835193619388844
15.000999999997125,0.5522168967230044,-0.3165094447477234
15.200999999997014,0.5927701099132581,-0.35950259758218606
15.400999999996904,0.6090401464547475,-0.40747215946826865
15.600999999996793,0.6112010773576193,-0.4658023783043668
15.800999999996682,0.5987281581094426,-0.5377220308422683
16.000999999996573,0.5741400723921685,-0.5926142597482293
16.200999999996817,0.5458828516401146,-0.642440207392839
16.40099999999706,0.5164965416571516,-0.6743830335614929
16.600999999997306,0.47670192567716285,-0.6792843750793469
16.80099999999755,0.42367631575049836,-0.6827188038099823
17.000999999997795,0.36710603351703763,-0.6870573050014556
17.20099999999804,0.3151699021568676,-0.6838943700593816
17.400999999998284,0.29009061885855963,-0.665704189023836
17.60099999999853,0.27835006482653507,-0.636429957982282
17.800999999998773,0.2666054825448694,-0.5940833525982997
18.000999999999017,0.2535100855214019,-0.5416372514220786
18.20099999999926,0.2454089222759171,-0.4835915455052974
18.400999999999506,0.23012550757348565,-0.4185525739629031
18.60099999999975,0.23231350178089807,-0.35070997909934076
18.799999999999994,0.24040002946825065,-0.28160710306781256
19.000000000000238,0.2582785291680999,-0.2175998429528641
19.200000000000482,0.28301505779708974,-0.16243245919016622
19.400000000000727,0.3050576923058562,-0.10731174283430556
19.60000000000097,0.3176877993150954,-0.044720388939201466
19.800000000001216,0.328007795625738,0.018742101452992647
20.00000000000146,0.34228790798155706,0.07826964266375769
