Time (s),X (m),Y (m)
0.001,0.0012161128565605834,-0.00026688599193002474
0.20000000000000015,-0.0003302148743975669,-1.77874838725881e-05
0.4000000000000003,0.0034397418504069203,-0.003928245896285692
0.6000000000000004,0.008916477940294985,-0.010229853393785817
0.8000000000000006,0.025861098421180503,-0.012059541221132473
1.0000000000000007,0.04318328166927497,-0.012483888656463996
1.2009999999999785,0.06399951708202815,-0.0210468539721343
1.4009999999999565,0.09409182051922457,-0.035367953103316405
1.6009999999999345,0.11610228235559078,-0.04340038208464909
1.8009999999999124,0.1408152894505006,-0.05093163235382217
2.0009999999998906,0.16671773864351253,-0.0628135477676314
2.2009999999998686,0.18681856151851797,-0.06129532715180513
2.4009999999998466,0.21379161646399383,-0.06716311188179867
2.6009999999998246,0.24062709805695542,-0.07415821937211281
2.8009999999998025,0.27061645740228685,-0.07932453664616505
3.0009999999997805,0.30011186646185345,-0.08773832088612075
3.2009999999997585,0.3219942562828282,-0.10600039225554908
3.4009999999997365,0.333187578586192,-0.1304992276319638
3.6009999999997144,0.3390398343948631,-0.1553594103520404
3.8009999999996924,0.3291798582039427,-0.18331524788869982
4.000999999999671,0.3193098661107553,-0.2179489320762588
4.200999999999738,0.30148264659377594,-0.2562818685720672
4.400999999999804,0.2662173969069165,-0.2956778399289635
4.600999999999871,0.2493169940836281,-0.32508756532031136
4.800999999999938,0.23777302896327812,-0.34078608115714737
5.000000000000004,0.22114419864916912,-0.3492893731159041
5.200000000000071,0.1951279864204366,-0.3545421204582008
5.400000000000138,0.16389064782103407,-0.352928002105952
5.600000000000205,0.13794911048987826,-0.3481077850735925
5.800000000000272,0.10387572702976754,-0.336567055758355
6.000000000000338,0.0644452840799162,-0.3221943620632001
6.200000000000405,0.017873096665557614,-0.29973705173603177
6.400000000000472,-0.03812960916248622,-0.2699622899003777
6.600000000000539,-0.09055988072338332,-0.24411013852098007
6.800000000000606,-0.1419772509212906,-0.20890103329489876
7.000000000000672,-0.18761986187770532,-0.17879440044910466
7.200000000000739,-0.22951505059174568,-0.1389652228775666
7.400000000000806,-0.27253591871199817,-0.10466223521085709
7.600000000000873,-0.3096111612725593,-0.07798819935371779
7.8000000000009395,-0.33945605883794006,-0.032071675926832535
8.000000000001005,-0.35163178783877813,0.01988917827417379
8.200000000000895,-0.35315924340655874,0.0644083133675423
8.400000000000784,-0.3425862512245966,0.11280617665162504
8.600000000000673,-0.33052351178527184,0.15751824987620777
8.800000000000562,-0.30921357231769453,0.20977886609898902
9.000000000000451,-0.2838482938613048,0.2578830481710453
9.20000000000034,-0.2556132379079252,0.2991355272539169
9.40000000000023,-0.21994008711068772,0.3275670560114866
9.600000000000119,-0.1844088426688933,0.34300474763959354
9.800000000000008,-0.14412572745076874,0.34913256916413177
10.000999999999896,-0.09798048954687229,0.33983132830194196
10.200999999999786,-0.05000427382419523,0.32012751297624314
10.400999999999675,0.005640190068744172,0.2958803722754356
10.600999999999564,0.06487717100935837,0.26395265219536895
10.800999999999453,0.1214495004622871,0.2350024263908929
11.000999999999342,0.16702291920106793,0.20744714471929016
11.200999999999231,0.19871932205227172,0.16946438815172502
11.40099999999912,0.21301165146151127,0.1258840023605716
11.60099999999901,0.21341880076258576,0.09912498327888446
11.800999999998899,0.19903973900902677,0.05824912125702988
12.000999999998788,0.17734635012819325,0.01019630548161671
12.200999999998677,0.15763811912589315,-0.04435880985107031
12.400999999998566,0.13227003270365173,-0.09873985482801365
12.600999999998455,0.10324739037379281,-0.15678456551989514
12.800999999998345,0.07518862741787005,-0.21093635423278986
13.000999999998234,0.04427064068102517,-0.26052552812451385
13.200999999998123,0.0062123799608082364,-0.2943562189645
13.400999999998012,-0.04636129168547549,-0.30368263971029424
13.600999999997901,-0.09937826569344112,-0.3020435659771583
13.80099999999779,-0.15652059013408282,-0.2944548215614134
14.00099999999768,-0.2083986794445054,-0.2748581699396677
14.200999999997569,-0.2623054989714399,-0.24852809380788757
14.400999999997458,-0.3196834604710545,-0.22128944659013258
14.600999999997347,-0.3768205798603965,-0.193816192053694
14.800999999997236,-0.4315723848738563,-0.17032302484500894
15.000999999997125,-0.47709810428507554,-0.1247856141326427
15.200999999997014,-0.4940859728072432,-0.062088308463279104
15.400999999996904,-0.4833266124713684,0.0017459814649962656
15.600999999996793,-0.4636734401949523,0.05748724278953941
15.800999999996682,-0.421817192335049,0.1108646435116076
16.000999999996573,-0.37549054466268433,0.13967406798437132
16.200999999996817,-0.3236063108212573,0.14531590154478946
16.40099999999706,-0.26614495102798896,0.13338936892784983
16.600999999997306,-0.21122333754989955,0.11342288921239049
16.80099999999755,-0.16278763342954738,0.0977134401341286
17.000999999997795,-0.10269995042635248,0.07318505807819216
17.20099999999804,-0.04373601300279392,0.053355622943930085
17.400999999998284,-0.0006076298208053801,0.04467383714429451
17.60099999999853,0.038508764010044216,0.024553270029230585
17.800999999998773,0.07164995288792693,-0.002592514055511975
18.000999999999017,0.11119104298813005,-0.023004763528015486
18.20099999999926,0.1546558176728502,-0.04217533041982791
18.400999999999506,0.1863691778639441,-0.08246391095843277
18.60099999999975,0.21059703356968296,-0.11993240158647721
18.799999999999994,0.23500645779311424,-0.1564111680649079
19.000000000000238,0.2588077990631555,-0.18738459881682057
19.200000000000482,0.2797834965750146,-0.21028181347887823
19.400000000000727,0.29256649122004025,-0.2450393600890361
19.60000000000097,0.2896894598447589,-0.28775066439997904
19.800000000001216,0.2744887289261515,-0.3367750111243779
20.00000000000146,0.2614455815275603,-0.38578587508254575
