Time (s),X (m),Y (m)
0.001,-0.00013259955118837574,-0.0009689812320744441
0.20000000000000015,0.0023075401470735624,0.001255455356812305
0.4000000000000003,0.0033951105350884946,-0.006195275122941245
0.6000000000000004,0.0051783948589594715,-0.005581422471778673
0.8000000000000006,0.014321155790844343,-0.0006355270908796186
1.0000000000000007,0.021572240839853,-0.006942737579037453
1.2009999999999785,0.029299864953598195,-0.0096786696099094
1.4009999999999565,0.04235572878504522,-0.011179883223108898
1.6009999999999345,0.05463207158934582,-0.01957661844292358
1.8009999999999124,0.0638327854196649,-0.026268651490680115
2.0009999999998906,0.07668004798374704,-0.025340308427707847
2.2009999999998686,0.08957152594885084,-0.02100241835862181
2.4009999999998466,0.11028678909041541,-0.008756630741530817
2.6009999999998246,0.12732634513603036,0.002173407410053348
2.8009999999998025,0.14921281577651094,0.006362281632757923
3.0009999999997805,0.1688584943164479,0.00466037122501976
3.2009999999997585,0.1833822361497155,0.002390536138135196
3.4009999999997365,0.19844842921581468,0.0012414817512085034
3.6009999999997144,0.21333006686921915,-0.0039705716054170125
3.8009999999996924,0.23014033218613877,-0.0022448279980415175
4.000999999999671,0.24786350030707927,-0.0006318009659953859
4.200999999999738,0.2652663242465742,0.006921976627642882
4.400999999999804,0.2840101160846541,0.018462246700032117
4.600999999999871,0.306652730859352,0.026959282477160257
4.800999999999938,0.32595619344758275,0.03238608161007678
5.000000000000004,0.3413213495856556,0.029919713030380934
5.200000000000071,0.35338336534042625,0.03907827436793905
5.400000000000138,0.367522012918331,0.04258109405758541
5.600000000000205,0.38639009762551907,0.039962566123246335
5.800000000000272,0.40515230883275705,0.04750337735635236
6.000000000000338,0.4271301132900526,0.0625016708860529
6.200000000000405,0.44875679842477983,0.05732845026735946
6.400000000000472,0.46506945091403673,0.05730186666348123
6.600000000000539,0.4859642813283435,0.06748468033674541
6.800000000000606,0.5072367899110511,0.06901037679622342
7.000000000000672,0.5302463720892217,0.07961132957743124
7.200000000000739,0.5536200856694572,0.08922346327627631
7.400000000000806,0.5710238368471386,0.10393000842689552
7.600000000000873,0.5879039236476796,0.11994243120986695
7.8000000000009395,0.6074674964292767,0.1273187808259621
8.000000000001005,0.6256232498191234,0.137276699087938
8.200000000000895,0.6414770313306964,0.14527874652945308
8.400000000000784,0.6574766018941058,0.16304081084375252
8.600000000000673,0.6767177894864639,0.178496142839933
8.800000000000562,0.6950957001749277,0.17554883079043127
9.000000000000451,0.7095514977491144,0.16968290554443477
9.20000000000034,0.7244057657908965,0.16935945931028518
9.40000000000023,0.7389460638024039,0.17418813460490234
9.600000000000119,0.7561155285509675,0.18018988605357114
9.800000000000008,0.7718635815469146,0.19374468649863688
10.000999999999896,0.7884745240553228,0.20026121273978206
10.200999999999786,0.8103294286182762,0.20787936013763472
10.400999999999675,0.8260536625433034,0.20603254970924753
10.600999999999564,0.8368846449936738,0.21690392465953873
10.800999999999453,0.8496819309330798,0.2307940330893017
11.000999999999342,0.8633887730764556,0.24735093825829638
11.200999999999231,0.8766768210866095,0.2598368997136742
11.40099999999912,0.8876573155183438,0.2708335386254908
11.60099999999901,0.8990682415438127,0.28116643020519727
11.800999999998899,0.9159084525000611,0.2856334876269005
12.000999999998788,0.9305625899966687,0.29227399389890607
12.200999999998677,0.9437881493182891,0.30376669552622637
12.400999999998566,0.9529083594571022,0.31503443884058413
12.600999999998455,0.9676120168679699,0.3164726615737124
12.800999999998345,0.9845814071885596,0.32396482640837454
13.000999999998234,1.0016320616610908,0.32708066380348105
13.200999999998123,1.0175908565245848,0.34137791161388215
13.400999999998012,1.0236216603588675,0.36125858474580347
13.600999999997901,1.0355630072061441,0.37100032880799716
13.80099999999779,1.045326216221442,0.395402710267435
14.00099999999768,1.0564135424991956,0.4097210930978773
14.200999999997569,1.0710611520005537,0.4246525676080012
14.400999999997458,1.0862567782402681,0.442319979684745
14.600999999997347,1.0984608732974452,0.4650487897277618
14.800999999997236,1.1061801028859564,0.4830112706768365
15.000999999997125,1.1146982723691838,0.49349556455693183
15.200999999997014,1.1267654572674655,0.49896479116965703
15.400999999996904,1.1377969453836623,0.5081923227911738
15.600999999996793,1.1499829743856558,0.5210524963098797
15.800999999996682,1.1561755505105575,0.5435644564148916
16.000999999996573,1.1678313662100617,0.5619091802994797
16.200999999996817,1.180259022042213,0.5712008520644489
16.40099999999706,1.1888091511667658,0.5863388952103286
16.600999999997306,1.1948562457773266,0.6021399476134696
16.80099999999755,1.1989591148064216,0.6227599372047524
17.000999999997795,1.1944116342558837,0.6469352056915089
17.20099999999804,1.1962333909635319,0.6755415333054938
17.400999999998284,1.1965797247187333,0.6985740921539736
17.60099999999853,1.2036556349296543,0.7215854451541048
17.800999999998773,1.2105058421859864,0.7409009093522342
18.000999999999017,1.2128703987108442,0.7579917752015597
18.20099999999926,1.2093254432375813,0.7791114761918831
18.400999999999506,1.2031424751801134,0.8034536187542269
18.60099999999975,1.1983307205967788,0.8261443890805237
18.799999999999994,1.1948510956010778,0.8484103516272912
19.000000000000238,1.1967618404220883,0.8703396951994953
19.200000000000482,1.1891135105271209,0.8918242678588819
19.400000000000727,1.1907746155408405,0.9124530735290426
19.60000000000097,1.1813240513295968,0.9333946130098846
19.800000000001216,1.176282296615282,0.9515325047176999
20.00000000000146,1.1653392587384483,0.9694289428692318
