Time (s),X (m),Y (m)
0.001,0.0011890620069237587,0.00035268032603768894
0.20000000000000015,-0.0005098704923288558,-0.0006698856071977898
0.4000000000000003,0.004315212033747499,0.0020233182680773807
0.6000000000000004,0.004364918391298532,0.001060080504957982
0.8000000000000006,0.009729685176798243,0.003981979945399014
1.0000000000000007,0.015402437713075557,0.0029546845834978585
1.2009999999999785,0.02437590076135148,0.006169484684154227
1.4009999999999565,0.03407988664678812,0.0076142118981954564
1.6009999999999345,0.03420230719379451,0.006799832963109094
1.8009999999999124,0.044703473215108716,0.0037932532698768877
2.0009999999998906,0.05438547030795291,0.008104772955459553
2.2009999999998686,0.06784530555583586,0.01208127053875658
2.4009999999998466,0.07612144904636278,0.013833915224227685
2.6009999999998246,0.08386346286539123,0.008939109504718898
2.8009999999998025,0.09155771382462233,0.007340633706070589
3.0009999999997805,0.09918749624066162,0.01098636185859847
3.2009999999997585,0.10365048550616457,0.007992149700591901
3.4009999999997365,0.1158226275530857,0.006308351138326993
3.6009999999997144,0.1268978732912409,-0.002509554548371923
3.8009999999996924,0.14499568020572584,-0.009007711741526609
4.000999999999671,0.1538531381801835,-0.012540737814546137
4.200999999999738,0.1697835901507924,-0.017015173101605593
4.400999999999804,0.1771050965798518,-0.022114848467951084
4.600999999999871,0.18740852262094726,-0.03163666977870871
4.800999999999938,0.20259040063603154,-0.04140925206636286
5.000000000000004,0.2152951421788865,-0.05293257811711211
5.200000000000071,0.2307846072621817,-0.06018480415477644
5.400000000000138,0.2401707260972646,-0.07492912226056662
5.600000000000205,0.2497508699379417,-0.08640173354858756
5.800000000000272,0.2593465200595786,-0.0944307762502186
6.000000000000338,0.2681345784771063,-0.0998820127272253
6.200000000000405,0.2818544572910357,-0.10322055470252438
6.400000000000472,0.29641907578014365,-0.10910926675629229
6.600000000000539,0.309757427003947,-0.11485983855143299
6.800000000000606,0.3233603597087744,-0.12302473965988131
7.000000000000672,0.33639733890086343,-0.133566556028671
7.200000000000739,0.35476798794856806,-0.13927644646560103
7.400000000000806,0.36853728393257384,-0.14631099049964907
7.600000000000873,0.3807632776636109,-0.15142597838367874
7.8000000000009395,0.4011890013173329,-0.15976952002558165
8.000000000001005,0.41253824447735504,-0.1692159519712512
8.200000000000895,0.42361218745033874,-0.1792723073190833
8.400000000000784,0.4337427125325144,-0.188706798997591
8.600000000000673,0.44401621140701863,-0.19873417460161596
8.800000000000562,0.4600337152295157,-0.2027396416321513
9.000000000000451,0.47663437497334143,-0.2145166460128623
9.20000000000034,0.49599957037889086,-0.2218030079991138
9.40000000000023,0.5172028856101318,-0.23217036013423054
9.600000000000119,0.5332971865240306,-0.24565994570646546
9.800000000000008,0.5475198668965789,-0.25275038513145803
10.000999999999896,0.5575352455866877,-0.26199818585781975
10.200999999999786,0.5640500829465643,-0.27031260121176703
10.400999999999675,0.5772162310759058,-0.28077465210402625
10.600999999999564,0.5961246759262029,-0.2952526959615776
10.800999999999453,0.6132409378880349,-0.303540295256565
11.000999999999342,0.6257623923055503,-0.30724482521736174
11.200999999999231,0.6401309862780729,-0.3081516111851843
11.40099999999912,0.6512945016330279,-0.31263692479974814
11.60099999999901,0.6672875013555358,-0.32100314766366267
11.800999999998899,0.6826524412351734,-0.33084979399466563
12.000999999998788,0.6939325908797747,-0.3366339814995739
12.200999999998677,0.707877921938066,-0.3475181128884991
12.400999999998566,0.7273002483608115,-0.3589989964242852
12.600999999998455,0.7438169917464873,-0.36844100106162314
12.800999999998345,0.7588795129107261,-0.3762046756273185
13.000999999998234,0.7688657666867025,-0.3834164973496238
13.200999999998123,0.7848668160984087,-0.39164154619275626
13.400999999998012,0.8088725383057048,-0.4006062895716315
13.600999999997901,0.8257739245863488,-0.40768614162629746
13.80099999999779,0.8444705446358013,-0.4170956096349426
14.00099999999768,0.851632449160398,-0.4250427980284134
14.200999999997569,0.8736932590748693,-0.4385147694719443
14.400999999997458,0.8884054321984773,-0.4505488765296328
14.600999999997347,0.8995322037085334,-0.460367013221984
14.800999999997236,0.9076338079475078,-0.47200711344208646
15.000999999997125,0.9299429959993314,-0.48508007096962324
15.200999999997014,0.9469742338551635,-0.4997457820168788
15.400999999996904,0.9689277225164512,-0.5103323354827504
15.600999999996793,0.9906005429782248,-0.5235311678291249
15.800999999996682,1.0068020906880017,-0.5348820778412547
16.000999999996573,1.0170182419302973,-0.5459248061725801
16.200999999996817,1.0327979994486232,-0.556834464427265
16.40099999999706,1.041273145939392,-0.567192035133895
16.600999999997306,1.0466169033135728,-0.5793793642791936
16.80099999999755,1.0605528026540245,-0.5922776817626628
17.000999999997795,1.0803692569898316,-0.6079200283505021
17.20099999999804,1.0921750178541882,-0.6191451231132229
17.400999999998284,1.1106945079768205,-0.63273170340375
17.60099999999853,1.1275006477232625,-0.6484150458146803
17.800999999998773,1.1446560667543544,-0.6659034537573312
18.000999999999017,1.1619093878655478,-0.6801700515409381
18.20099999999926,1.1764841816493348,-0.6878642995925829
18.400999999999506,1.1959346067358336,-0.6975986041422175
18.60099999999975,1.2176920489475827,-0.7073597354924535
18.799999999999994,1.2329403859485697,-0.7195848529940884
19.000000000000238,1.245936620067655,-0.731243307834179
19.200000000000482,1.2682413568026543,-0.7410614665049661
19.400000000000727,1.2835367023535944,-0.7513738367937284
19.60000000000097,1.2947705099081497,-0.7624993957060626
19.800000000001216,1.2987219919883441,-0.7733113382309177
20.00000000000146,1.3086012432036123,-0.7766076758751927
