Time (s),X (m),Y (m)
0.001,0.0011890620069237587,-0.00035268032603768894
0.20000000000000015,0.004132483312913672,-0.0006601110397081259
0.4000000000000003,0.01993579409159517,-0.008721488471273514
0.6000000000000004,0.041448699096478595,-0.020763628330103746
0.8000000000000006,0.07299572520655305,-0.037971153219422495
1.0000000000000007,0.10684279088771848,-0.05113655183032645
1.2009999999999785,0.1341649055589059,-0.07182774468933044
1.4009999999999565,0.15496356806684985,-0.0946154237414194
1.6009999999999345,0.16930377196502824,-0.1193954038291833
1.8009999999999124,0.16757132737393524,-0.15170817373617324
2.0009999999998906,0.16029396249819802,-0.1838897242370064
2.2009999999998686,0.14342760222792195,-0.2159732136507998
2.4009999999998466,0.11453059920126772,-0.23944634803501252
2.6009999999998246,0.0870259574151031,-0.2515036628966094
2.8009999999998025,0.0537737631356965,-0.2520484863944876
3.0009999999997805,0.008339381618832312,-0.2334582921353108
3.2009999999997585,-0.03562042215616382,-0.2023227192396707
3.4009999999997365,-0.07434024948469932,-0.17671091622458235
3.6009999999997144,-0.10031350312587632,-0.1564750231058987
3.8009999999996924,-0.11203659627209865,-0.12830243535626082
4.000999999999671,-0.11327514602218,-0.09193747728873211
4.200999999999738,-0.10135992099142381,-0.036005519081408005
4.400999999999804,-0.08077631148769203,0.03927969901583898
4.600999999999871,-0.06688172111089499,0.10272743114082464
4.800999999999938,-0.04876001615433937,0.16611351765642435
5.000000000000004,-0.03471343525144895,0.22467393674419558
5.200000000000071,-0.02060193663073288,0.2782202928158676
5.400000000000138,0.00882324051878127,0.335758976241056
5.600000000000205,0.042649758749456895,0.3921604189071423
5.800000000000272,0.0793475923082453,0.42649558570013224
6.000000000000338,0.1260361710039644,0.4342308094908074
6.200000000000405,0.17216576881034298,0.42277339832862104
6.400000000000472,0.22084178096318763,0.4024892710924684
6.600000000000539,0.27067756394490017,0.3595227752331414
6.800000000000606,0.310432202327453,0.3063497042154738
7.000000000000672,0.33387447827599465,0.24648477150486373
7.200000000000739,0.33852687597583586,0.18330707617438136
7.400000000000806,0.3250603974346095,0.11720928614426687
7.600000000000873,0.3093407310383503,0.054391914412981426
7.8000000000009395,0.2914343776382931,-0.006019830571893882
8.000000000001005,0.2615361144258734,-0.0682603009550791
8.200000000000895,0.21338091823979377,-0.12713697613474254
8.400000000000784,0.15421945837616385,-0.1688617252644572
8.600000000000673,0.08769917991256723,-0.19089141184256359
8.800000000000562,0.016784914712781016,-0.19343052681371045
9.000000000000451,-0.05789861007890495,-0.17536882961468908
9.20000000000034,-0.1321213051649114,-0.14230209075586533
9.40000000000023,-0.20775649653253356,-0.10232175536167863
9.600000000000119,-0.2835397512519732,-0.05156577758626813
9.800000000000008,-0.3533094612604344,0.010452062570536201
10.000999999999896,-0.3989197871657789,0.06450866603516793
10.200999999999786,-0.4206428779844694,0.11583471394532438
10.400999999999675,-0.41692459964217793,0.18023670161290023
10.600999999999564,-0.3903756353952627,0.25466079469369
10.800999999999453,-0.3583803960628184,0.3257321492968774
11.000999999999342,-0.3221303389946046,0.3788360193568339
11.200999999999231,-0.28075228479719117,0.4050539383191466
11.40099999999912,-0.22955948865164202,0.4073395299475485
11.60099999999901,-0.17332680125869473,0.39225362636084654
11.800999999998899,-0.1123323087142145,0.3598821012297683
12.000999999998788,-0.06318209725084513,0.30264535994702263
12.200999999998677,-0.044201525279443536,0.22338378600631878
12.400999999998566,-0.04137529939863458,0.15126300009062665
12.600999999998455,-0.06222806109369307,0.08043054657320614
12.800999999998345,-0.1111991541000675,0.013915642645998101
13.000999999998234,-0.18554433806463508,-0.026586029883178527
13.200999999998123,-0.2528576837909651,-0.04517990937646552
13.400999999998012,-0.3232028287308582,-0.03759236906415309
13.600999999997901,-0.39462289865906286,-0.019645195808076794
13.80099999999779,-0.46864798764401655,0.009572162547109696
14.00099999999768,-0.5409977637169803,0.04197768113333539
14.200999999997569,-0.6068875861155322,0.08311625995094009
14.400999999997458,-0.6471515766998077,0.12675170907844444
14.600999999997347,-0.6634548078130658,0.17385870861653943
14.800999999997236,-0.6598760558049714,0.23044501909197865
15.000999999997125,-0.6381139085945357,0.29147601103001447
15.200999999997014,-0.6144686948599113,0.3550047222308081
15.400999999996904,-0.5767344636181204,0.4164983539447241
15.600999999996793,-0.5404796377815598,0.4587404410435486
15.800999999996682,-0.49456089804199943,0.47546415665607855
16.000999999996573,-0.4326135297313879,0.47070503524673213
16.200999999996817,-0.3722049592785707,0.45440092597215087
16.40099999999706,-0.31088234943067455,0.41860935758532003
16.600999999997306,-0.2494589949028612,0.3785639080197311
16.80099999999755,-0.19839413352883273,0.3330743219653795
17.000999999997795,-0.1669753614878768,0.2844475764339999
17.20099999999804,-0.1526640411023325,0.23769776669998222
17.400999999998284,-0.157792025302001,0.1842130637006273
17.60099999999853,-0.17371255573037328,0.13170653855346814
17.800999999998773,-0.20002494494411052,0.07630598257749345
18.000999999999017,-0.24137468124340763,0.025285870143011663
18.20099999999926,-0.29095121724403195,-0.000715481436397318
18.400999999999506,-0.34494080989402653,-0.003935164433840169
18.60099999999975,-0.40391422503639224,0.014687853623941443
18.799999999999994,-0.4611393933288312,0.03899795000299083
19.000000000000238,-0.5034619393135992,0.07246917004324514
19.200000000000482,-0.5200163070145748,0.12122165357275148
19.400000000000727,-0.5195766391197666,0.16915903161833065
19.60000000000097,-0.5025706297528398,0.23104512618214737
19.800000000001216,-0.4773359792318926,0.2950861519719886
20.00000000000146,-0.45263842987055586,0.3585946674490545
