Time (s),X (m),Y (m)
0.001,0.0002200807748493132,0.0010311682891199472
0.20000000000000015,0.002997751891701272,-0.005538346657320547
0.4000000000000003,0.015301248538900776,-0.004653490767411122
0.6000000000000004,0.045289854492946306,0.0015249551903022526
0.8000000000000006,0.08490914258561891,-0.001935919338926692
1.0000000000000007,0.13154606266578706,-0.0058215613314568345
1.2009999999999785,0.17432711173576915,-0.02280754986936503
1.4009999999999565,0.206855740163347,-0.05162363500509979
1.6009999999999345,0.23361539919534474,-0.08376125104039706
1.8009999999999124,0.24163854283767658,-0.12064178176498248
2.0009999999998906,0.2375730406414878,-0.16356244464598885
2.2009999999998686,0.21714808110144546,-0.21183157094919103
2.4009999999998466,0.2050893018079653,-0.26583306502950843
2.6009999999998246,0.17594171748367443,-0.3081368745784096
2.8009999999998025,0.13976139966325857,-0.3401505913055954
3.0009999999997805,0.10409658911462658,-0.374771005147034
3.2009999999997585,0.07375132456843014,-0.4118099934664978
3.4009999999997365,0.04861984922911488,-0.46451198949191935
3.6009999999997144,0.023028646803848123,-0.5281260297710549
3.8009999999996924,-0.0038964897436242433,-0.5976263591646581
4.000999999999671,-0.029119640577755894,-0.6631069913136561
4.200999999999738,-0.06897943590771205,-0.6881492311519801
4.400999999999804,-0.11520369408980932,-0.6852493062860966
4.600999999999871,-0.1660803662145465,-0.6690026808309565
4.800999999999938,-0.2218980807164201,-0.6482660969063451
5.000000000000004,-0.25425773267759605,-0.617093045308514
5.200000000000071,-0.2699291657354755,-0.570075357678868
5.400000000000138,-0.28437685525477324,-0.5106926071894279
5.600000000000205,-0.28701541993562935,-0.44929624668840396
5.800000000000272,-0.2759044224580677,-0.39085842507690804
6.000000000000338,-0.2548441112972116,-0.33973133082181295
6.200000000000405,-0.22108443893912963,-0.3244140696125395
6.400000000000472,-0.18046432827420844,-0.3298250288294227
6.600000000000539,-0.15492640946577824,-0.35759598412363036
6.800000000000606,-0.1374590745345474,-0.395799290129793
7.000000000000672,-0.11224179254253623,-0.44361082881057945
7.200000000000739,-0.0916968024173896,-0.5034103044189163
7.400000000000806,-0.09356901924271048,-0.5471923816420652
7.600000000000873,-0.11464712857358446,-0.5702450805892303
7.8000000000009395,-0.14885262702070384,-0.577349764645474
8.000000000001005,-0.19725354657081182,-0.5780126399729261
8.200000000000895,-0.2632455720441519,-0.5714526886847782
8.400000000000784,-0.3345511922401133,-0.5583539579027968
8.600000000000673,-0.40284742482067953,-0.5329438764376963
8.800000000000562,-0.45236732193470197,-0.4998361630451546
9.000000000000451,-0.4751723506646272,-0.449928609143963
9.20000000000034,-0.47032681309217583,-0.3944205341496941
9.40000000000023,-0.46120146405256396,-0.3198260815713778
9.600000000000119,-0.44083181670163574,-0.2526743348749019
9.800000000000008,-0.40475321669683584,-0.22810689049482327
10.000999999999896,-0.37132714526669425,-0.22674026864006153
10.200999999999786,-0.36435976705890105,-0.25108437297996145
10.400999999999675,-0.36366465061336406,-0.29265521078453355
10.600999999999564,-0.37109559927058333,-0.3422649402119036
10.800999999999453,-0.3765346208369622,-0.39557568414059263
11.000999999999342,-0.38301990524077745,-0.4517533697280633
11.200999999999231,-0.3901442150169339,-0.5190278163807766
11.40099999999912,-0.4036302866769168,-0.5887031963484578
11.60099999999901,-0.4365206052784199,-0.6356795914506628
11.800999999998899,-0.490797663899587,-0.6520417574517341
12.000999999998788,-0.5524390208156988,-0.6440363926575303
12.200999999998677,-0.6214976986346604,-0.620968940905013
12.400999999998566,-0.6936880879015269,-0.5954477081268456
12.600999999998455,-0.7397912880346739,-0.5701297605646392
12.800999999998345,-0.7511167544573583,-0.5320344601261298
13.000999999998234,-0.7559753125207592,-0.4799245786503177
13.200999999998123,-0.7419214315697685,-0.4258720956383034
13.400999999998012,-0.7201114617988744,-0.3672060870311178
13.600999999997901,-0.7038271504472812,-0.3056735433160787
13.80099999999779,-0.676141049054028,-0.24826254697552305
14.00099999999768,-0.6389417534711418,-0.20459629801810517
14.200999999997569,-0.585536738404281,-0.16916038200905542
14.400999999997458,-0.5170361719346735,-0.13749052195532804
14.600999999997347,-0.4415155828906279,-0.11941715983923605
14.800999999997236,-0.36720356632803985,-0.1119159690323536
15.000999999997125,-0.3085620205264793,-0.1186186828702668
15.200999999997014,-0.2832144816074655,-0.1498890769772577
15.400999999996904,-0.2772831440067626,-0.20144696155124467
15.600999999996793,-0.29146062463983713,-0.2495401375401555
15.800999999996682,-0.3238397940117782,-0.28214059903756994
16.000999999996573,-0.36233246537203573,-0.28827451293189615
16.200999999996817,-0.4035425899950191,-0.27844019882301974
16.40099999999706,-0.416414486743946,-0.2590025667663787
16.600999999997306,-0.40800538698946104,-0.22545743002147686
16.80099999999755,-0.3837262594958475,-0.18724229686933203
17.000999999997795,-0.3471235225713736,-0.16835423673600913
17.20099999999804,-0.298112938167002,-0.16940566862554704
17.400999999998284,-0.2499612916950675,-0.18006877044623146
17.60099999999853,-0.2082071490481363,-0.20576128237903282
17.800999999998773,-0.17595084569722994,-0.23857987997784577
18.000999999999017,-0.16707145578259575,-0.2818414801086814
18.20099999999926,-0.1673947854368865,-0.33203360860657716
18.400999999999506,-0.18730448498718874,-0.38618123355216144
18.60099999999975,-0.19157824253828268,-0.4494209109934699
18.799999999999994,-0.19616424607610353,-0.5164075103203011
19.000000000000238,-0.20431292192175082,-0.5719311819592722
19.200000000000482,-0.22708301791144925,-0.5946025104441968
19.400000000000727,-0.27070029145150426,-0.6069614973430919
19.60000000000097,-0.3314192656106619,-0.6066597864038447
19.800000000001216,-0.3915023984924469,-0.5974781028887357
20.00000000000146,-0.440321866275075,-0.5779699779258547
