Time (s),X (m),Y (m)
0.001,-0.0006246028371892732,-0.0005914538325516239
0.20000000000000015,0.0050727062491226944,0.002373499605333159
0.4000000000000003,0.008405635952410702,0.0030778960154962056
0.6000000000000004,0.017992454841598855,0.005716726090653582
0.8000000000000006,0.03126981234248985,0.01159271250938063
1.0000000000000007,0.04957056770496065,0.015746096658064593
1.2009999999999785,0.07459327084341826,0.023366103107558937
1.4009999999999565,0.10170863796532266,0.03438053847248068
1.6009999999999345,0.11967883428855221,0.039102538807450425
1.8009999999999124,0.13362908011147082,0.04018544352059016
2.0009999999998906,0.14778713517560813,0.04610822151124261
2.2009999999998686,0.17429426456465186,0.05930492924982179
2.4009999999998466,0.193231576329436,0.07040059489299236
2.6009999999998246,0.20954250696703972,0.07638170548899162
2.8009999999998025,0.22722901386387145,0.0807917710430385
3.0009999999997805,0.25094902686451376,0.09348835035839605
3.2009999999997585,0.2713437579764478,0.10382935339651617
3.4009999999997365,0.28830306555298907,0.11053668386810597
3.6009999999997144,0.30744830914306553,0.11729371902595476
3.8009999999996924,0.3318471770855221,0.11793009907577975
4.000999999999671,0.3625584474572485,0.12523251674203123
4.200999999999738,0.3893545925324826,0.12325731651902014
4.400999999999804,0.4112088148025468,0.1219941537888308
4.600999999999871,0.432662764556787,0.12095057600425432
4.800999999999938,0.4503113773922926,0.1152915780471562
5.000000000000004,0.46663543073385727,0.10695036490749414
5.200000000000071,0.49388312668692075,0.097649454747978
5.400000000000138,0.5324782969427062,0.09687693531180609
5.600000000000205,0.563386442726374,0.10078324138855753
5.800000000000272,0.5837255199572406,0.09910335572397277
6.000000000000338,0.6151061543276404,0.09514370724698958
6.200000000000405,0.6468601129627636,0.08999735242005981
6.400000000000472,0.6784914936196601,0.08711925348666529
6.600000000000539,0.6993587838687271,0.08401033795284432
6.800000000000606,0.7091052429018403,0.07272652582294285
7.000000000000672,0.7394498300774689,0.06779223378753772
7.200000000000739,0.7558671088081362,0.05704984434006613
7.400000000000806,0.7638938162103948,0.04530851899928505
7.600000000000873,0.7641813763152767,0.028899423071724675
7.8000000000009395,0.7846815146170193,0.012475042849141341
8.000000000001005,0.8054449835266502,-0.0007993272877790414
8.200000000000895,0.8261815736012381,-0.014681697261902295
8.400000000000784,0.8455295565158936,-0.027634806445862047
8.600000000000673,0.8674597253944889,-0.03776828028267457
8.800000000000562,0.8896217689763956,-0.05108638172738958
9.000000000000451,0.8957596321180062,-0.06646152592373272
9.20000000000034,0.9062531927628311,-0.0841242525422061
9.40000000000023,0.917495289982149,-0.1062226347360187
9.600000000000119,0.931606373985805,-0.12879048326363798
9.800000000000008,0.9553097476035127,-0.15206042252730906
10.000999999999896,0.9824094933434174,-0.17027589108329455
10.200999999999786,1.0054524045324305,-0.1863043371244393
10.400999999999675,1.0303879317607534,-0.2013753302569113
10.600999999999564,1.0539069518252293,-0.22239559803567815
10.800999999999453,1.0704506011025106,-0.23750723615871472
11.000999999999342,1.1027458731378568,-0.2503217890662434
11.200999999999231,1.1263072700272903,-0.2628479526422252
11.40099999999912,1.1622330503179914,-0.2756704608337188
11.60099999999901,1.1894337103095556,-0.2870612866800606
11.800999999998899,1.2205064822313259,-0.29535829462884533
12.000999999998788,1.2577581214736397,-0.3006410394793214
12.200999999998677,1.2872078372272306,-0.31149021782983666
12.400999999998566,1.3059093119120082,-0.32510807500005384
12.600999999998455,1.3302595155218384,-0.3233192269085729
12.800999999998345,1.3443680215052725,-0.3317993011222819
13.000999999998234,1.3563520588111013,-0.3425062144353255
13.200999999998123,1.3789437632836639,-0.3529383270600745
13.400999999998012,1.401246296442124,-0.3647830601338271
13.600999999997901,1.4262465175196717,-0.3754943402845415
13.80099999999779,1.457777199232263,-0.38219210527253383
14.00099999999768,1.4861997445727362,-0.3916062088319264
14.200999999997569,1.5178799190548498,-0.39939795831394254
14.400999999997458,1.556767052681737,-0.4051207185167945
14.600999999997347,1.5872316753205287,-0.4081749328140031
14.800999999997236,1.6035544377894502,-0.41203362528081716
15.000999999997125,1.6238841730578693,-0.4164997561734687
15.200999999997014,1.6601396115517215,-0.41379215015933885
15.400999999996904,1.6948171559201954,-0.4125260999160108
15.600999999996793,1.724753502583083,-0.4090898656194453
15.800999999996682,1.7470550777308789,-0.4096709250577885
16.000999999996573,1.7688479958653747,-0.4174588683049193
16.200999999996817,1.7932136243376116,-0.4222101602714691
16.40099999999706,1.8135385028768438,-0.4296619841748396
16.600999999997306,1.8452706492940876,-0.43649352537631475
16.80099999999755,1.8795524986079737,-0.44636782413880866
17.000999999997795,1.9145528053419074,-0.45663965614573476
17.20099999999804,1.9400068928558352,-0.4629643039832042
17.400999999998284,1.970876690976391,-0.4680587078045363
17.60099999999853,1.9934300098721256,-0.4771650453365701
17.800999999998773,2.0184848337013297,-0.483411216378591
18.000999999999017,2.0366476187902274,-0.4962102359004092
18.20099999999926,2.063761526634942,-0.505846657211705
18.400999999999506,2.0920671199730605,-0.5145084696905463
18.60099999999975,2.1240111045791137,-0.5209642979868935
18.799999999999994,2.1619245305244976,-0.5280231259756732
19.000000000000238,2.2050130565423482,-0.532303649356354
19.200000000000482,2.2313579571425715,-0.5406057601771813
19.400000000000727,2.2650652634750417,-0.5448735857714787
19.60000000000097,2.3026691920750677,-0.5447133674601796
19.800000000001216,2.3401143137070948,-0.542930563694181
20.00000000000146,2.3684762173960197,-0.5395958579568859
