Time (s),X (m),Y (m)
0.001,-0.0006729371591054965,0.000515584144559974
0.20000000000000015,0.00046986618720957634,0.0006634200289028434
0.4000000000000003,0.00451074708614787,-0.0015972747235292427
0.6000000000000004,0.005350419947387644,-0.002098247034503795
0.8000000000000006,0.008097452220554075,-0.003848440904423184
1.0000000000000007,0.010285192053251633,-0.004288497799614325
1.2009999999999785,0.012088952799895985,-0.005484613757082442
1.4009999999999565,0.013301023538472467,-0.006218965944512809
1.6009999999999345,0.014234888457436963,-0.006822823541543717
1.8009999999999124,0.015153217217040445,-0.007422820990893292
2.0009999999998906,0.016073279045905723,-0.008013971603480712
2.2009999999998686,0.016977225499440883,-0.008604170910234984
2.4009999999998466,0.017900528965279945,-0.009184989958858724
2.6009999999998246,0.01879779297177345,-0.009757934606898958
2.8009999999998025,0.019737686590358693,-0.010340451953974747
3.0009999999997805,0.020653806041108065,-0.010915913637505856
3.2009999999997585,0.02158967237885585,-0.01147779963556698
3.4009999999997365,0.022638763736644356,-0.012094016426136873
3.6009999999997144,0.023581297592934855,-0.012663781118047446
3.8009999999996924,0.024641173961829094,-0.01325196567425999
4.000999999999671,0.02568334811336571,-0.013878260146004216
4.200999999999738,0.026825242142000834,-0.014528278535408331
4.400999999999804,0.027919890703112363,-0.015132161678034375
4.600999999999871,0.0289736740477973,-0.015678680133720882
4.800999999999938,0.03011128749909556,-0.01633836335178308
5.000000000000004,0.031300776066311396,-0.01695680257789185
5.200000000000071,0.03247795030013882,-0.017547754901530085
5.400000000000138,0.03365818165361887,-0.01817568900169638
5.600000000000205,0.03490396293113665,-0.018792208332642644
5.800000000000272,0.03619559667205077,-0.019409410155762787
6.000000000000338,0.037407854874148105,-0.019982168452702866
6.200000000000405,0.038744413946059784,-0.020697151324594286
6.400000000000472,0.04003963537536009,-0.021297156974621066
6.600000000000539,0.04140098481184718,-0.021954819233664276
6.800000000000606,0.04280731713049841,-0.022661368223287546
7.000000000000672,0.04416642949238963,-0.023271587662293047
7.200000000000739,0.045625716099986516,-0.024000493001326832
7.400000000000806,0.04706545175443626,-0.024679369548519764
7.600000000000873,0.048597216535105695,-0.02543434992169033
7.8000000000009395,0.0501124702912649,-0.02614970257611136
8.000000000001005,0.051635446277711064,-0.02686907075985471
8.200000000000895,0.05314867070444701,-0.027564825629858253
8.400000000000784,0.05474079810381503,-0.02828450655834776
8.600000000000673,0.05639255980882332,-0.029075304845996075
8.800000000000562,0.05805743526189512,-0.029848610696857222
9.000000000000451,0.05976415234906309,-0.03064869141583938
9.20000000000034,0.06150040832807464,-0.03143648380451368
9.40000000000023,0.06320139743004155,-0.03221362267436745
9.600000000000119,0.06492513658708261,-0.0329916250043004
9.800000000000008,0.06664817425745444,-0.03373839214785743
10.000999999999896,0.0684585483317438,-0.034524571232183804
10.200999999999786,0.07022100256352487,-0.0352705754916762
10.400999999999675,0.07202980355493573,-0.03602167130924205
10.600999999999564,0.07405693834754845,-0.03675020407527011
10.800999999999453,0.07612221901932374,-0.03751350597107793
11.000999999999342,0.07822178861558945,-0.038259107358246607
11.200999999999231,0.08023476709687888,-0.03891243948088562
11.40099999999912,0.08231218571168197,-0.03962624750350479
11.60099999999901,0.08432976825915657,-0.040258025794656586
11.800999999998899,0.08657486657781344,-0.04093868185911919
12.000999999998788,0.0886156129247531,-0.041541393768457315
12.200999999998677,0.09085516703437685,-0.042184940040850064
12.400999999998566,0.09301368802887468,-0.04273849188161591
12.600999999998455,0.09530499885210172,-0.04334233445331503
12.800999999998345,0.09739044465192775,-0.04385991596006504
13.000999999998234,0.09973797376253114,-0.044400333617477944
13.200999999998123,0.10195475590916556,-0.04483502358133631
13.400999999998012,0.1043244153024167,-0.04534566687093594
13.600999999997901,0.1068355099853555,-0.0458473287446095
13.80099999999779,0.10922128016519272,-0.04631330956518851
14.00099999999768,0.11161199142113318,-0.04671894786000196
14.200999999997569,0.11399038511133953,-0.047104403299648163
14.400999999997458,0.11648997843408433,-0.04745558198580407
14.600999999997347,0.11898630162390807,-0.047722081474962444
14.800999999997236,0.12150576440462066,-0.04806359529677736
15.000999999997125,0.12396093707396023,-0.04825060968178105
15.200999999997014,0.1264672814578014,-0.048476054910363366
15.400999999996904,0.12890974298632712,-0.04870109128013681
15.600999999996793,0.13155110437009526,-0.048834152443588096
15.800999999996682,0.13419660041057216,-0.048966077364182244
16.000999999996573,0.13652772526945342,-0.04899729026593854
16.200999999996817,0.13922420246184877,-0.04900553954930186
16.40099999999706,0.1417332425536755,-0.04897823233821271
16.600999999997306,0.1444271364263895,-0.04889016560009687
16.80099999999755,0.14710224953160553,-0.04877586749331785
17.000999999997795,0.14982324610700345,-0.048569809965424364
17.20099999999804,0.15230942517610088,-0.04830964953363847
17.400999999998284,0.15506621122049702,-0.04802062748469752
17.60099999999853,0.15811671922623846,-0.047653306130613984
17.800999999998773,0.1609688304478131,-0.04713615790934835
18.000999999999017,0.16410947114054536,-0.04663052756803639
18.20099999999926,0.16726230863417357,-0.04598004262249643
18.400999999999506,0.17025172515038312,-0.04528908725208892
18.60099999999975,0.17325799007781204,-0.04444225753578937
18.799999999999994,0.1764090755898452,-0.04352157550133826
19.000000000000238,0.17936426025557142,-0.042555183315808445
19.200000000000482,0.18227734694896494,-0.04142380191683897
19.400000000000727,0.1850930887156826,-0.0402154140833519
19.60000000000097,0.18792189987399172,-0.03908216055612476
19.800000000001216,0.19086547677170942,-0.03780631094024298
20.00000000000146,0.1938624058490596,-0.03645944882321048
