Time (s),X (m),Y (m)
0.001,-0.0005090653149319316,0.0007291460897812449
0.20000000000000015,0.00419894801523527,-0.00020990685994183388
0.4000000000000003,0.015162902528372909,0.007992613005011686
0.6000000000000004,0.0310737452862021,0.021681265083200195
0.8000000000000006,0.05176190821425844,0.03398557398969887
1.0000000000000007,0.07397741229229331,0.05262860485109965
1.2009999999999785,0.10301117446449323,0.07147377850129304
1.4009999999999565,0.13540770113074405,0.0636249574931382
1.6009999999999345,0.16121636279425502,0.008657354678299834
1.8009999999999124,0.1903990101103834,-0.04074845594276069
2.0009999999998906,0.20545851384263875,-0.08922349639285723
2.2009999999998686,0.18901180174986526,-0.13988487242808292
2.4009999999998466,0.17036449453966634,-0.19118188843200648
2.6009999999998246,0.13463921272505291,-0.2365583695871459
2.8009999999998025,0.09819477976726067,-0.2726174244977796
3.0009999999997805,0.05734102200895258,-0.29417372337645936
3.2009999999997585,0.010414083454605256,-0.299529006366863
3.4009999999997365,-0.041559932957086175,-0.2832322907895729
3.6009999999997144,-0.08942737824915227,-0.24899454172157628
3.8009999999996924,-0.12826821010337278,-0.2075335081338015
4.000999999999671,-0.16096240897000408,-0.16199223032397214
4.200999999999738,-0.18135681456648098,-0.11910937797743622
4.400999999999804,-0.19302464949090445,-0.07756719692681747
4.600999999999871,-0.1821887827823116,-0.032105256785089915
4.800999999999938,-0.15820460753368318,0.009266881378369276
5.000000000000004,-0.11283275078031847,0.035578276695592825
5.200000000000071,-0.05285314047491585,0.03831645202890106
5.400000000000138,0.006265776421984913,0.03386660010091209
5.600000000000205,0.06678392922707832,0.01419749139347815
5.800000000000272,0.1175906293489745,-0.028208693432409254
6.000000000000338,0.15305893590502292,-0.08249120984375022
6.200000000000405,0.16582565946245303,-0.13540678770629375
6.400000000000472,0.1485787564942258,-0.18942828749641752
6.600000000000539,0.1163863368482011,-0.23854945490772944
6.800000000000606,0.0606242913109016,-0.2684559126313041
7.000000000000672,-0.004239361898074869,-0.28189121753753194
7.200000000000739,-0.07054115140304362,-0.2804741367278987
7.400000000000806,-0.13624848390014277,-0.2675886167629298
7.600000000000873,-0.20442262052937266,-0.2250161584789241
7.8000000000009395,-0.26925738546269895,-0.1872839446518091
8.000000000001005,-0.3012189204032949,-0.14258222643628055
8.200000000000895,-0.31276023891467214,-0.09810280501134415
8.400000000000784,-0.2918069256441126,-0.062456780908340406
8.600000000000673,-0.252724262546685,-0.04001844557783636
8.800000000000562,-0.20602640596418945,-0.03830897514386052
9.000000000000451,-0.15757005385819176,-0.055118762741816284
9.20000000000034,-0.10566451918430612,-0.05940745903645493
9.40000000000023,-0.05172677426895713,-0.060804366533447646
9.600000000000119,-0.001816311526231617,-0.07143137898960657
9.800000000000008,0.022053431549693848,-0.11456755880485564
10.000999999999896,0.040788960632595475,-0.15860736827917743
10.200999999999786,0.05427265805773257,-0.20153767267133726
10.400999999999675,0.053988346263168584,-0.24637119988457393
10.600999999999564,0.03175210456809149,-0.2859373147686968
10.800999999999453,-0.003476934659600012,-0.31374471663607917
11.000999999999342,-0.05442557565930517,-0.32832065887920253
11.200999999999231,-0.12319119301486205,-0.33054830700422466
11.40099999999912,-0.19088892716674172,-0.3262681517476624
11.60099999999901,-0.2609688887373141,-0.3157143014090752
11.800999999998899,-0.3381261307503472,-0.29656725150345425
12.000999999998788,-0.41461368659512093,-0.25265683308562636
12.200999999998677,-0.4713106531389793,-0.21369914998984135
12.400999999998566,-0.49739149658412257,-0.1586905745456694
12.600999999998455,-0.5022433354827376,-0.09666514019077674
12.800999999998345,-0.50251705065519,-0.0329377674748966
13.000999999998234,-0.47997723474290493,0.028685449214942458
13.200999999998123,-0.43334372101106605,0.057313583337521956
13.400999999998012,-0.37217917910426085,0.05077513642546007
13.600999999997901,-0.30404552121814693,0.02646610057652023
13.80099999999779,-0.2328868099620267,0.0007573214745178406
14.00099999999768,-0.1634482929455124,-0.022472634743117753
14.200999999997569,-0.10135812294492612,-0.06864257078863646
14.400999999997458,-0.05704389433932618,-0.1346148298634113
14.600999999997347,-0.03898574330265843,-0.2094933090431448
14.800999999997236,-0.038135912515906374,-0.28654326130052044
15.000999999997125,-0.04854611429063701,-0.36274643610387663
15.200999999997014,-0.09486157570006773,-0.43738711914973794
15.400999999996904,-0.15252430814717546,-0.49226352768608944
15.600999999996793,-0.20784419813138158,-0.5264994063075893
15.800999999996682,-0.27047198693387975,-0.5203062598778891
16.000999999996573,-0.32907741376787886,-0.49389409368418097
16.200999999996817,-0.37531992125971425,-0.4571006987331468
16.40099999999706,-0.40123271084626805,-0.4032653726392189
16.600999999997306,-0.4137256319156626,-0.3422152426496979
16.80099999999755,-0.4210120869991314,-0.27938656692707403
17.000999999997795,-0.41326066736770484,-0.211230629929453
17.20099999999804,-0.36775057232173247,-0.16277052983034437
17.400999999998284,-0.30459435037597915,-0.13833841743841474
17.60099999999853,-0.2342846284563186,-0.12571255203511003
17.800999999998773,-0.16861902712029514,-0.14016787700074707
18.000999999999017,-0.11099632684034802,-0.17570770654911447
18.20099999999926,-0.06881192031287278,-0.2158775279694965
18.400999999999506,-0.06362962934674829,-0.2692519246654097
18.60099999999975,-0.08512910518680517,-0.3261875234439752
18.799999999999994,-0.12402603588704571,-0.3800472767933371
19.000000000000238,-0.17758373916939194,-0.4164753384620711
19.200000000000482,-0.24052408771367084,-0.4343659520202155
19.400000000000727,-0.2983139471845448,-0.4404712660198994
19.60000000000097,-0.35493011469991786,-0.4443446193725349
19.800000000001216,-0.40983923092149627,-0.42481524038551216
20.00000000000146,-0.4520587110116869,-0.38575665961660793
