Time (s),X (m),Y (m)
0.001,0.0005727611008870025,0.0009689812320744445
0.20000000000000015,0.0021109958809443735,-0.001883004090470866
0.4000000000000003,0.014053556824362634,0.004143560280415729
0.6000000000000004,0.03739865074421592,0.010533928664414285
0.8000000000000006,0.0719904557974619,0.02027523875383877
1.0000000000000007,0.12092152761221557,0.04465590559647349
1.2009999999999785,0.17434799619956465,0.06580238136079627
1.4009999999999565,0.23405961696235467,0.08275757687436458
1.6009999999999345,0.30103132905137575,0.09724132165687058
1.8009999999999124,0.3571922307677716,0.10307279959278687
2.0009999999998906,0.402518443069353,0.09784244176785932
2.2009999999998686,0.44684761216657,0.08770159893647232
2.4009999999998466,0.49069924171711443,0.062487251458229615
2.6009999999998246,0.5318781512138169,0.023936493517102947
2.8009999999998025,0.5695419044257969,-0.019587789696073738
3.0009999999997805,0.6018373136624184,-0.0677681096791076
3.2009999999997585,0.6313234519990665,-0.12319830813478604
3.4009999999997365,0.6628799794081217,-0.18700384100814077
3.6009999999997144,0.6917435827705211,-0.25911781835417463
3.8009999999996924,0.7134307495628831,-0.3253421179820213
4.000999999999671,0.7291945747725036,-0.3689050865260985
4.200999999999738,0.7227715324339798,-0.39190729040613864
4.400999999999804,0.6889103050749392,-0.4143583020811812
4.600999999999871,0.6366412522848369,-0.4257441318629551
4.800999999999938,0.5705030760192796,-0.4490346532753231
5.000000000000004,0.4925686219139261,-0.47195735260915556
5.200000000000071,0.41403320524187504,-0.49152580034893145
5.400000000000138,0.33381788425299713,-0.5066221876562448
5.600000000000205,0.255672187210512,-0.5196609587287798
5.800000000000272,0.17049612992146654,-0.5204009547991117
6.000000000000338,0.12143741532357262,-0.5110455415254875
6.200000000000405,0.07939176070429613,-0.4929716108328302
6.400000000000472,0.03215473413169394,-0.4751570167646776
6.600000000000539,-0.038044980146298445,-0.4628440365557611
6.800000000000606,-0.12515115178881256,-0.46241934315904376
7.000000000000672,-0.21066532682812986,-0.4522349174461514
7.200000000000739,-0.270646708982378,-0.426169555011301
7.400000000000806,-0.3016010129387905,-0.40001032452246077
7.600000000000873,-0.31638400874872036,-0.3571342107476087
7.8000000000009395,-0.31512403967228275,-0.30334238825570337
8.000000000001005,-0.3022924248272548,-0.23358299787025144
8.200000000000895,-0.27785471151178787,-0.16445613088944236
8.400000000000784,-0.22761301396295447,-0.0956119306950752
8.600000000000673,-0.16445944345916955,-0.021153666185164375
8.800000000000562,-0.10892994498283345,0.05486803427059456
9.000000000000451,-0.03953164176270753,0.13518014106181572
9.20000000000034,0.03912778569739881,0.21245207854584766
9.40000000000023,0.12010538285137766,0.2776895151886984
9.600000000000119,0.20661374706602678,0.3280151316599914
9.800000000000008,0.2928147851616228,0.3745604502842477
10.000999999999896,0.379657135887398,0.42618100591895863
10.200999999999786,0.45099302554807336,0.4895119488073452
10.400999999999675,0.5252573641301679,0.5444833399516845
10.600999999999564,0.6034746940997082,0.58409696407989
10.800999999999453,0.6884822706889294,0.6173496562571416
11.000999999999342,0.7718399318073278,0.6394378754474435
11.200999999999231,0.8575964036916188,0.6606897566639195
11.40099999999912,0.9510662501803395,0.6843270097487996
11.60099999999901,1.0378680379558045,0.7010881397615943
11.800999999998899,1.1118846950303243,0.70491879026691
12.000999999998788,1.1724661942972758,0.6840489938925952
12.200999999998677,1.210163240929658,0.6427022583907148
12.400999999998566,1.236427436679899,0.5831566031315404
12.600999999998455,1.2600973363690988,0.5066652804157156
12.800999999998345,1.2821328153562548,0.4199830389190735
13.000999999998234,1.309396032446533,0.3283714373853366
13.200999999998123,1.315059665677076,0.2377371142823127
13.400999999998012,1.3064752884365358,0.1498052927010908
13.600999999997901,1.2959816572981175,0.05336802641587105
13.80099999999779,1.288145766985176,-0.039921567594901126
14.00099999999768,1.2777298074627486,-0.13241062984153174
14.200999999997569,1.252098877699824,-0.20745218489485073
14.400999999997458,1.1966587342649468,-0.26714972105120605
14.600999999997347,1.1234195206830069,-0.31868486441641203
14.800999999997236,1.0377086784917864,-0.37368398384801227
15.000999999997125,0.955305481140474,-0.41232633186405593
15.200999999997014,0.8724151633450157,-0.4499492695124391
15.400999999996904,0.7837180146931205,-0.4958907193597403
15.600999999996793,0.6941472265586407,-0.5345958688277662
15.800999999996682,0.5969535904348962,-0.5835258647407379
16.000999999996573,0.49526098482270586,-0.6467347387091272
16.200999999996817,0.3973012195075366,-0.7049072792477565
16.40099999999706,0.3022919828250457,-0.7540237214092288
16.600999999997306,0.21053903004147945,-0.8018635796578508
16.80099999999755,0.12649333870771673,-0.8379306878815874
17.000999999997795,0.04850092072124112,-0.8628084452070258
17.20099999999804,-0.02626517888501659,-0.8728340461037203
17.400999999998284,-0.10399713982383925,-0.8742027430639315
17.60099999999853,-0.17410477219910442,-0.8722642491824166
17.800999999998773,-0.22713979525266162,-0.8374484581243784
18.000999999999017,-0.2791601203245956,-0.7809661773412843
18.20099999999926,-0.3284492646695817,-0.7109408347006847
18.400999999999506,-0.3963671081806755,-0.639005595846065
18.60099999999975,-0.4593059940181518,-0.5655707677774336
18.799999999999994,-0.5247373843596136,-0.48053255569830694
19.000000000000238,-0.60163420860533,-0.3897631003929528
19.200000000000482,-0.6812618643248387,-0.3086080859955977
19.400000000000727,-0.7515405844320657,-0.2203474133355311
19.60000000000097,-0.8209946935893458,-0.1272860563417968
19.800000000001216,-0.9047146044122135,-0.026957726817264376
20.00000000000146,-0.9692468950743525,0.0716093420133993
