Time (s),X (m),Y (m)
0.001,-0.0005090653149319316,0.0007291460897812449
0.20000000000000015,0.001959561276077534,-0.0006844420758675782
0.4000000000000003,0.007215838237449704,-0.001868762757786238
0.6000000000000004,0.013359678951569807,-0.005794441244446808
0.8000000000000006,0.0155962076892788,-0.0031019532581778478
1.0000000000000007,0.021923003654427006,-0.009967109890838497
1.2009999999999785,0.029614851360386184,-0.01357095642210824
1.4009999999999565,0.03808589744180865,-0.01251381256030762
1.6009999999999345,0.04270149865791549,-0.006790479678785809
1.8009999999999124,0.056359582197335875,-0.004536400347080757
2.0009999999998906,0.06660799651059983,0.0008222899087211071
2.2009999999998686,0.07813708870042932,-0.0019156295156125107
2.4009999999998466,0.08100508899351092,-0.00026001884303428896
2.6009999999998246,0.09072311918875581,0.005140768539404635
2.8009999999998025,0.09776891102889834,0.011095981988678815
3.0009999999997805,0.11062972668811363,0.011645281568594235
3.2009999999997585,0.13096156423674982,0.011998549765536586
3.4009999999997365,0.14353527267301341,0.011750516584008473
3.6009999999997144,0.15859413745506665,0.004436407187517402
3.8009999999996924,0.16542494330438787,0.00407595287674111
4.000999999999671,0.17636440607737378,-0.002275688988758032
4.200999999999738,0.1895874349902482,-0.004672624635561197
4.400999999999804,0.20731956517019146,-0.007715767280955162
4.600999999999871,0.22458500918018295,-0.0011303264359730177
4.800999999999938,0.2408675447787372,0.00749235333843815
5.000000000000004,0.25153919923164414,0.008716781322651012
5.200000000000071,0.26170121780880373,0.01250361327270092
5.400000000000138,0.2702160071274081,0.01650128913375885
5.600000000000205,0.280963631336516,0.018215252608190912
5.800000000000272,0.29440706174930825,0.01882171499645649
6.000000000000338,0.3099973961033672,0.027200724379413274
6.200000000000405,0.3291834153621708,0.034907579610781926
6.400000000000472,0.3439378299122887,0.034014235334451234
6.600000000000539,0.3640743846973864,0.03165020228930064
6.800000000000606,0.3786731202859656,0.03311743170136115
7.000000000000672,0.3915114155896233,0.033445871864876395
7.200000000000739,0.39858843303228747,0.04223768231330353
7.400000000000806,0.41474688983845875,0.044025438009679466
7.600000000000873,0.4280476203137729,0.05117904239740811
7.8000000000009395,0.4432057522232792,0.05102477532939199
8.000000000001005,0.4577395059513098,0.054420492071053
8.200000000000895,0.4689170205875502,0.05942046736534598
8.400000000000784,0.47979238081015163,0.063956332181176
8.600000000000673,0.4853060405919787,0.07213398211367524
8.800000000000562,0.49763255833442616,0.07922368002842421
9.000000000000451,0.5115553241156745,0.08080274697320895
9.20000000000034,0.5309624839950621,0.07651218334110828
9.40000000000023,0.5435341925317354,0.07819642596731408
9.600000000000119,0.5643918790076469,0.07917134751262012
9.800000000000008,0.5792513787635448,0.08624877006993055
10.000999999999896,0.5905674908512486,0.09090309731282463
10.200999999999786,0.6089747820184326,0.09396494728648891
10.400999999999675,0.6256468729702047,0.09458454465402955
10.600999999999564,0.6421190030951149,0.1019061728928247
10.800999999999453,0.6537922621215995,0.11183578014426411
11.000999999999342,0.661420245396002,0.12013335502686946
11.200999999999231,0.6776144207127788,0.11882329548410263
11.40099999999912,0.6871761829901445,0.11903129733845641
11.60099999999901,0.693478997582412,0.11982594608927034
11.800999999998899,0.6968261086104353,0.1250735250894913
12.000999999998788,0.7068997111908633,0.12792729299155128
12.200999999998677,0.7220583524196366,0.13033375913484016
12.400999999998566,0.7425224237907613,0.13377616816314325
12.600999999998455,0.7613379443425848,0.1341545495932983
12.800999999998345,0.7821893935844402,0.13818413591605191
13.000999999998234,0.7987332884344884,0.13983520959057172
13.200999999998123,0.8160415181205238,0.13309845703303805
13.400999999998012,0.8265048678018404,0.1398067511135498
13.600999999997901,0.8387310271771867,0.14261778814558507
13.80099999999779,0.8516077797774102,0.14506484052770854
14.00099999999768,0.8632724859780588,0.152294737425714
14.200999999997569,0.8753703562237456,0.15576052617417213
14.400999999997458,0.8923917904593774,0.15776427701836154
14.600999999997347,0.9012526280910294,0.1573161540333538
14.800999999997236,0.9142072369250928,0.15582021617022604
15.000999999997125,0.9256944171567805,0.15587103078469622
15.200999999997014,0.9441498272700758,0.15912319527093371
15.400999999996904,0.9653980656269353,0.16412423357348663
15.600999999996793,0.9803596522821967,0.16891408703578234
15.800999999996682,0.9946517230072229,0.17168234878392669
16.000999999996573,1.0075326902575739,0.17562895806494214
16.200999999996817,1.0168656116997266,0.1826701317171734
16.40099999999706,1.0325624626539744,0.18753341078308147
16.600999999997306,1.053341338715666,0.18855829370997296
16.80099999999755,1.0650932476518793,0.19111218743439545
17.000999999997795,1.077414798622578,0.19283789590236497
17.20099999999804,1.0836369107108308,0.19689325267694657
17.400999999998284,1.095166796747866,0.1998292246425784
17.60099999999853,1.1073820971632475,0.1979468433479197
17.800999999998773,1.1204883554629148,0.2015437886242683
18.000999999999017,1.141252266779796,0.20284507763729848
18.20099999999926,1.1524572865270373,0.20822202576876225
18.400999999999506,1.1634691204730139,0.21221358083104688
18.60099999999975,1.1785558614432838,0.21429998761052588
18.799999999999994,1.1967122012743154,0.21180551604206124
19.000000000000238,1.2099421940334547,0.21414693396810722
19.200000000000482,1.2189411332109137,0.2146555058359347
19.400000000000727,1.2338164490937915,0.21122696795305856
19.60000000000097,1.2479110907825666,0.206383814676509
19.800000000001216,1.263680456162968,0.20538828898231037
20.00000000000146,1.2810804719396398,0.20834005704246844
