Time (s),X (m),Y (m)
0.001,-0.00021570977506068912,-0.0009345558501746678
0.20000000000000015,0.0016458171822617514,0.000863692864030111
0.4000000000000003,0.0012539255921666672,-0.005427636844737542
0.6000000000000004,0.007627098109130927,-0.0006683864732033715
0.8000000000000006,0.01433354853163334,-0.0010483811984367012
1.0000000000000007,0.027306573346280432,-0.005607299603805862
1.2009999999999785,0.03771690975215534,-0.01139822706858036
1.4009999999999565,0.049562498977423555,-0.005383480332615797
1.6009999999999345,0.05889704308540436,-0.003835136903970926
1.8009999999999124,0.06736512925013721,0.00172808103183816
2.0009999999998906,0.08225075717224892,0.015085144611638865
2.2009999999998686,0.0979914682517943,0.02348202046466204
2.4009999999998466,0.10866387538528356,0.024696782272598996
2.6009999999998246,0.11729152306582048,0.031235711492642024
2.8009999999998025,0.12939753687390607,0.035981097664981955
3.0009999999997805,0.1417803607742129,0.04429037470603985
3.2009999999997585,0.15394360275861774,0.05356791700738537
3.4009999999997365,0.16762154218791142,0.06366551685661864
3.6009999999997144,0.18015877756512863,0.06492921293441666
3.8009999999996924,0.19523492998832973,0.06978795005710065
4.000999999999671,0.21144027076284314,0.07683916054197731
4.200999999999738,0.22466524761867118,0.07995974979945204
4.400999999999804,0.2410877772616817,0.08622658078371019
4.600999999999871,0.254536455453309,0.09600658566179823
4.800999999999938,0.2632720375094569,0.10165555010868181
5.000000000000004,0.275663968762632,0.10326192007433617
5.200000000000071,0.28717099162884235,0.113139065215438
5.400000000000138,0.30043357018311306,0.12074154392599974
5.600000000000205,0.31329205024635826,0.13378359852456811
5.800000000000272,0.32639454142698127,0.14529930567869634
6.000000000000338,0.3373154572436048,0.1469374070572106
6.200000000000405,0.35178439154923946,0.15165686672039802
6.400000000000472,0.3728527768907605,0.16137604792005467
6.600000000000539,0.39153277687675586,0.16006706971647686
6.800000000000606,0.4027703910774007,0.17228579010273715
7.000000000000672,0.41462557736216754,0.17921520190433718
7.200000000000739,0.42538622334083154,0.18873498924686816
7.400000000000806,0.4346948238500444,0.1990426851814351
7.600000000000873,0.44680631889782046,0.2099344214079454
7.8000000000009395,0.45748043067613525,0.22696158897272067
8.000000000001005,0.4720099000584921,0.24362929624581264
8.200000000000895,0.4838520881453543,0.26404872462599727
8.400000000000784,0.49415104560259837,0.2776255166698122
8.600000000000673,0.5050955335147792,0.2840037245619532
8.800000000000562,0.5202981689552568,0.29151881949946196
9.000000000000451,0.5322273025678699,0.29452671707281275
9.20000000000034,0.5470173449675204,0.3025693081639464
9.40000000000023,0.5628012383176381,0.31400341983675817
9.600000000000119,0.5770352225941325,0.3279653554036565
9.800000000000008,0.5950586929811219,0.33687463569848486
10.000999999999896,0.6109766512917798,0.34765062668808866
10.200999999999786,0.6256513156335158,0.3605089713806699
10.400999999999675,0.6415224768927598,0.36853255248440064
10.600999999999564,0.6560042286252072,0.3775520821590645
10.800999999999453,0.6702849434515545,0.3873826658005875
11.000999999999342,0.6854371515749582,0.39317634579644145
11.200999999999231,0.700015844817714,0.4017639105921091
11.40099999999912,0.7123916097986835,0.41721070618309086
11.60099999999901,0.7258461263570098,0.4192481613038844
11.800999999998899,0.7368787315660783,0.42167844330516635
12.000999999998788,0.7513986921440822,0.42866973374859646
12.200999999998677,0.765832805487942,0.438991090546609
12.400999999998566,0.7779811505778947,0.44771214561115835
12.600999999998455,0.7889861274075639,0.455021588083253
12.800999999998345,0.7990178724844046,0.46176444468575795
13.000999999998234,0.810565676379113,0.4751213234580756
13.200999999998123,0.8250288562208099,0.48796270131277136
13.400999999998012,0.8405031177156141,0.49686631395491554
13.600999999997901,0.8551146068695779,0.5082084260482808
13.80099999999779,0.8646576208030219,0.5193386440966148
14.00099999999768,0.8719085024144835,0.5292083489496812
14.200999999997569,0.8795445828067415,0.5409642972970201
14.400999999997458,0.8842634844471083,0.5597059412143522
14.600999999997347,0.8915977685993516,0.5808988559289454
14.800999999997236,0.8950001669065906,0.5963939284026234
15.000999999997125,0.9045074760146015,0.6058644930761985
15.200999999997014,0.9108756132360483,0.6165863188229502
15.400999999996904,0.9174526671828142,0.6313598880574885
15.600999999996793,0.9240975595510476,0.6505308766781308
15.800999999996682,0.9284801409552027,0.6604183758641337
16.000999999996573,0.93400921550829,0.6718902192835924
16.200999999996817,0.9334121300812421,0.6916452408043567
16.40099999999706,0.9376507938216403,0.7106967721908646
16.600999999997306,0.9430751804074106,0.7249971277269215
16.80099999999755,0.9434344488934545,0.7446567127178215
17.000999999997795,0.9411505093945844,0.7648053729185266
17.20099999999804,0.9432268563334397,0.7870895351056211
17.400999999998284,0.9392108635839393,0.8047232461469372
17.60099999999853,0.9312807515791302,0.8235670453454652
17.800999999998773,0.9256278768757145,0.8445063535372299
18.000999999999017,0.927748545887692,0.857417609247072
18.20099999999926,0.9247459625996624,0.8762312274713973
18.400999999999506,0.9221369248211075,0.8941617432174671
18.60099999999975,0.9235237927459609,0.9102057400227014
18.799999999999994,0.9216076465001944,0.9291125258796884
19.000000000000238,0.9052417608055099,0.9457355104057482
19.200000000000482,0.8942237389184159,0.966374495585035
19.400000000000727,0.881197338238521,0.984861179669491
19.60000000000097,0.8756537371974471,1.0010539920628712
19.800000000001216,0.8658004730335144,1.0176109539944527
20.00000000000146,0.8533838045633937,1.0313592222625336
