Time (s),X (m),Y (m)
0.001,-0.000795421750936344,-0.00017906049427360483
0.20000000000000015,0.0008379382366097397,-0.0013816391031964389
0.4000000000000003,0.007131664232335351,-0.0008096170126622845
0.6000000000000004,0.005439807500511534,0.0013534220386273255
0.8000000000000006,0.00682767112804212,-0.0029568108302628743
1.0000000000000007,0.02678341223432674,-0.008289256808565466
1.2009999999999785,0.049450101528206565,-0.019125162518135376
1.4009999999999565,0.07227832697441094,-0.030132561467919303
1.6009999999999345,0.09378816040841659,-0.0507803694161885
1.8009999999999124,0.10847754869577848,-0.07593324208449344
2.0009999999998906,0.11249940534080075,-0.09779815482124303
2.2009999999998686,0.10154619843357773,-0.12080421702855111
2.4009999999998466,0.08703346982144655,-0.14799208495480318
2.6009999999998246,0.0680732709090963,-0.1859141321230668
2.8009999999998025,0.05001245526348579,-0.22131972736336772
3.0009999999997805,0.030791345632526328,-0.2509662381261048
3.2009999999997585,0.006316720144890989,-0.28897458784736824
3.4009999999997365,-0.026576009225165724,-0.3399242192684043
3.6009999999997144,-0.07114622756060142,-0.39629248944401596
3.8009999999996924,-0.11327384156923805,-0.4462640075756246
4.000999999999671,-0.1530461315965309,-0.4842940516257011
4.200999999999738,-0.2028536070791174,-0.5065698079484731
4.400999999999804,-0.2638136220178972,-0.5110174102796773
4.600999999999871,-0.3185793142713733,-0.5019743079668996
4.800999999999938,-0.3724768532494314,-0.48508502381181606
5.000000000000004,-0.426868780654495,-0.46087623376503395
5.200000000000071,-0.4778907594140043,-0.433817821459431
5.400000000000138,-0.5278287663704258,-0.4052040703610132
5.600000000000205,-0.5880761449534491,-0.3591517837352135
5.800000000000272,-0.640858225805511,-0.30907801926790524
6.000000000000338,-0.6770342417128831,-0.25764588220504464
6.200000000000405,-0.6898445680190312,-0.22271301148892775
6.400000000000472,-0.6757874055375692,-0.18478700252255847
6.600000000000539,-0.6633551919832184,-0.15289978608934965
6.800000000000606,-0.6392318235808573,-0.11912810357212629
7.000000000000672,-0.598645711001051,-0.08973272721895927
7.200000000000739,-0.5633597212558157,-0.07288909614109235
7.400000000000806,-0.5206843625650659,-0.07691754207245315
7.600000000000873,-0.4747604592016746,-0.09387883441846927
7.8000000000009395,-0.4291257895988329,-0.11821682478165413
8.000000000001005,-0.38104494900762675,-0.15473379308261556
8.200000000000895,-0.33453250066948614,-0.18134818434344274
8.400000000000784,-0.2949151911755056,-0.21577478522268706
8.600000000000673,-0.2743039322028735,-0.2678458316003817
8.800000000000562,-0.2714855907753376,-0.3165659107983902
9.000000000000451,-0.2881959075928741,-0.3600081270281231
9.20000000000034,-0.3148282033945904,-0.41220292621498994
9.40000000000023,-0.3475973928151707,-0.4683896924715174
9.600000000000119,-0.38452165854165843,-0.5210254581398501
9.800000000000008,-0.4381619544147534,-0.5775558705439297
10.000999999999896,-0.4868369883520799,-0.6315478261246413
10.200999999999786,-0.5286602111098204,-0.6710524554592392
10.400999999999675,-0.5794048216649486,-0.6938196970757343
10.600999999999564,-0.6288640356710491,-0.6979974379382704
10.800999999999453,-0.672772923953437,-0.6877065600713906
11.000999999999342,-0.7183344519263288,-0.6639345083565217
11.200999999999231,-0.7689973151383069,-0.6287122213465717
11.40099999999912,-0.8161687269646247,-0.5886067724534642
11.60099999999901,-0.8463884580667129,-0.5485146179623667
11.800999999998899,-0.8498872804511426,-0.502063435959732
12.000999999998788,-0.8302897733610254,-0.44830101936350275
12.200999999998677,-0.8052402521254579,-0.39633037673589505
12.400999999998566,-0.7758085285067756,-0.3456003010212428
12.600999999998455,-0.7409239084500229,-0.285345262907775
12.800999999998345,-0.6912478906505647,-0.2171760261466325
13.000999999998234,-0.6307724689106736,-0.14589280057886925
13.200999999998123,-0.5697813436152563,-0.09858703242204628
13.400999999998012,-0.5095662929688077,-0.08436382333720499
13.600999999997901,-0.45847075898028294,-0.08926459501256173
13.80099999999779,-0.4060745612768455,-0.10739742697444425
14.00099999999768,-0.34871043721612976,-0.14148356882222385
14.200999999997569,-0.28975970729036865,-0.18968483648679452
14.400999999997458,-0.23602481735169686,-0.2454383311383695
14.600999999997347,-0.18652032129518542,-0.30313983223583507
14.800999999997236,-0.15439028447035444,-0.3770790581507283
15.000999999997125,-0.143712297657429,-0.43678336752525804
15.200999999997014,-0.14753611319919263,-0.4961791996683433
15.400999999996904,-0.15464201079894013,-0.5591458298386957
15.600999999996793,-0.1761695575665308,-0.627101505450179
15.800999999996682,-0.216383105417544,-0.6922984348388146
16.000999999996573,-0.25703612389750286,-0.758963431162096
16.200999999996817,-0.3027141744947031,-0.8322898501108467
16.40099999999706,-0.35456041448731596,-0.902319666144741
16.600999999997306,-0.4129969566775586,-0.9695771168069424
16.80099999999755,-0.4780813743335904,-1.0135673758858004
17.000999999997795,-0.5348974291415006,-1.0242734527322903
17.20099999999804,-0.5850481315240812,-1.014410773365642
17.400999999998284,-0.6274321472077241,-0.9983821362283852
17.60099999999853,-0.6811010738521239,-0.9791675311455736
17.800999999998773,-0.7359861650654325,-0.9512510939696162
18.000999999999017,-0.7894465412359495,-0.9158085177024762
18.20099999999926,-0.8460396331927273,-0.872444789880682
18.400999999999506,-0.9086643414039931,-0.8233192997438378
18.60099999999975,-0.9708752312264279,-0.7674953714531064
18.799999999999994,-1.0291372974342754,-0.7088221775154594
19.000000000000238,-1.0808274965971825,-0.6394019833009591
19.200000000000482,-1.1122432689550967,-0.5637963914190836
19.400000000000727,-1.106071556697247,-0.485687689471726
19.60000000000097,-1.0782245357963727,-0.4138783152794039
19.800000000001216,-1.035558968880801,-0.34792948261300205
20.00000000000146,-0.9844283087571167,-0.296262200807325
