Time (s),X (m),Y (m)
0.001,0.0008829029745972832,0.0007899207378008392
0.20000000000000015,0.0025990253285707336,-0.0010741079149170503
0.4000000000000003,0.01029775487143622,-0.006981671902540385
0.6000000000000004,0.022427262850503515,-0.014862466447519786
0.8000000000000006,0.04143413169693963,-0.008366875758634278
1.0000000000000007,0.061454404167195706,-0.0010769550913788523
1.2009999999999785,0.09613528937568501,0.015917479086095566
1.4009999999999565,0.12879228090242514,0.03373005511201552
1.6009999999999345,0.1626584324665255,0.044607624432213895
1.8009999999999124,0.20738780475210697,0.04407703817024662
2.0009999999998906,0.2399653656556982,0.026355453054760763
2.2009999999998686,0.2672629363219445,-0.004425247914178363
2.4009999999998466,0.2850267299730782,-0.03722646702313184
2.6009999999998246,0.30490656635412994,-0.08253641597185792
2.8009999999998025,0.32310476620573725,-0.13511863104299426
3.0009999999997805,0.33121393841372,-0.1864361856223812
3.2009999999997585,0.3261369476589695,-0.2382072139104512
3.4009999999997365,0.3132553298075641,-0.2944843062744562
3.6009999999997144,0.29827765280530616,-0.3582359746412576
3.8009999999996924,0.2793310634230858,-0.4264174505715873
4.000999999999671,0.2550052208142223,-0.48319713951361676
4.200999999999738,0.2204176291790293,-0.5321322733149749
4.400999999999804,0.1740272169581212,-0.5837472193694038
4.600999999999871,0.11287013526905353,-0.6424473155045035
4.800999999999938,0.046095230217689465,-0.69034691062721
5.000000000000004,-0.01361859356197362,-0.7488726170738057
5.200000000000071,-0.05656565344031164,-0.8021656630574694
5.400000000000138,-0.08657775054759524,-0.8523625841299348
5.600000000000205,-0.10995045038099861,-0.9012226607322648
5.800000000000272,-0.1390595470972926,-0.960482687264447
6.000000000000338,-0.18105563156582802,-1.012774273977387
6.200000000000405,-0.23244185879564125,-1.0634918894860743
6.400000000000472,-0.2855558111686088,-1.1165102777209897
6.600000000000539,-0.33716326276499153,-1.1615435807520333
6.800000000000606,-0.3910225209208363,-1.21052292084334
7.000000000000672,-0.44299745138397284,-1.2679450833398156
7.200000000000739,-0.49886268906610487,-1.3302283741739422
7.400000000000806,-0.5571446649526643,-1.3736820369552292
7.600000000000873,-0.6153814333821536,-1.4262641388538955
7.8000000000009395,-0.6686869033975253,-1.4764875259973946
8.000000000001005,-0.7264401100325308,-1.5150519018593593
8.200000000000895,-0.7974678018816551,-1.5710792959066728
8.400000000000784,-0.8743886460250668,-1.6322509874467797
8.600000000000673,-0.9576161460678787,-1.6832168623466492
8.800000000000562,-1.041509627816628,-1.7277525160501301
9.000000000000451,-1.1155960770396296,-1.7627045698507124
9.20000000000034,-1.1721906185120634,-1.7743536325482683
9.40000000000023,-1.2146102062850797,-1.7561826024580163
9.600000000000119,-1.2421424555337837,-1.716304560228119
9.800000000000008,-1.2574303934736955,-1.6582321225791299
10.000999999999896,-1.2617950970517833,-1.5933891896548469
10.200999999999786,-1.2570928866279452,-1.5213910780792295
10.400999999999675,-1.238500084695253,-1.454501999745482
10.600999999999564,-1.2084213102842407,-1.3975713884450172
10.800999999999453,-1.1767929313574907,-1.3494496857124263
11.000999999999342,-1.1400832263927039,-1.3133055311479214
11.200999999999231,-1.0999720590550484,-1.272836224515736
11.40099999999912,-1.0577102519951525,-1.2288977560451484
11.60099999999901,-1.0077741083368024,-1.1691301176144302
11.800999999998899,-0.9497971092881856,-1.1056473852172777
12.000999999998788,-0.8833417990897853,-1.0461241002645925
12.200999999998677,-0.8159783965873934,-1.0052974277701536
12.400999999998566,-0.7538016340939754,-0.963361743372812
12.600999999998455,-0.6799563635657877,-0.9230975047031359
12.800999999998345,-0.6038915245653497,-0.8829399155854366
13.000999999998234,-0.5295739799648264,-0.8432072018143382
13.200999999998123,-0.4559384021437369,-0.7847270463315857
13.400999999998012,-0.37660976624827625,-0.7267339645622793
13.600999999997901,-0.30331034265471196,-0.6551010263996976
13.80099999999779,-0.24840695273607177,-0.5815990511451374
14.00099999999768,-0.1875362794554419,-0.5118950622769642
14.200999999997569,-0.11882289751948043,-0.45588068344608346
14.400999999997458,-0.05189085687683954,-0.4193880679955419
14.600999999997347,0.01145759679014426,-0.3983021944166764
14.800999999997236,0.060496558913609916,-0.4079754624464565
15.000999999997125,0.103562345944633,-0.44427275187911885
15.200999999997014,0.14146285048436053,-0.5088488316112201
15.400999999996904,0.17374941895521331,-0.5799111360119943
15.600999999996793,0.18577957691159072,-0.6399746817567306
15.800999999996682,0.16560059559665596,-0.693880899989378
16.000999999996573,0.1327108991131159,-0.7400924807072872
16.200999999996817,0.09952764208063422,-0.7903067098388593
16.40099999999706,0.055868545943369596,-0.8326801616649662
16.600999999997306,0.004187866797271669,-0.8666118657106308
16.80099999999755,-0.05638679381422129,-0.9010286768635088
17.000999999997795,-0.1232640271932473,-0.9347083275559978
17.20099999999804,-0.196452669837406,-0.9685625066535911
17.400999999998284,-0.26174153339951295,-0.984311207470702
17.60099999999853,-0.30180986388303316,-0.9622677142856532
17.800999999998773,-0.33804071616485254,-0.9115364111515629
18.000999999999017,-0.3738571656124712,-0.857933586477955
18.20099999999926,-0.4147113609856816,-0.7972313688665601
18.400999999999506,-0.46092860570186794,-0.7297704123427363
18.60099999999975,-0.49668568247840716,-0.6618455466497769
18.799999999999994,-0.5102911841659619,-0.5965987043150163
19.000000000000238,-0.49569307712746347,-0.5394040718913096
19.200000000000482,-0.4619270763843006,-0.49552524198355813
19.400000000000727,-0.41884028362842396,-0.44235828733553495
19.60000000000097,-0.3749541707000156,-0.3864877314848936
19.800000000001216,-0.33040884713115304,-0.3311531211180547
20.00000000000146,-0.2876827323385767,-0.2770190327732477
