Time (s),X (m),Y (m)
0.001,-0.0003713730577023104,0.0008446836120385872
0.20000000000000015,0.004035124300338502,-0.003002223341007366
0.4000000000000003,0.0025166769458184984,-0.0006452440227591245
0.6000000000000004,0.011256135684439783,0.0008065836222157578
0.8000000000000006,0.029283752523562526,0.00021612716002442783
1.0000000000000007,0.04394673901551116,0.007395650343560617
1.2009999999999785,0.06562218183854478,0.004492851285842969
1.4009999999999565,0.08770829713290072,0.016771335528059244
1.6009999999999345,0.10575899890292963,0.02796195252823413
1.8009999999999124,0.12491586120783914,0.01866291080778499
2.0009999999998906,0.14488422692446756,0.013967733633731234
2.2009999999998686,0.16702599399791604,0.0033250518799678172
2.4009999999998466,0.188423060969102,-0.000919618391944022
2.6009999999998246,0.2066484408272791,-0.023167701054924956
2.8009999999998025,0.22206246956008155,-0.043532855334209475
3.0009999999997805,0.23121855963667787,-0.05656771983667341
3.2009999999997585,0.24674164796613235,-0.07653122632620031
3.4009999999997365,0.2628675394512279,-0.09363870903368411
3.6009999999997144,0.28043258864895443,-0.10108983287610537
3.8009999999996924,0.2947084031848521,-0.11563539429294817
4.000999999999671,0.30008168737469526,-0.13372448869158562
4.200999999999738,0.29761711115592926,-0.1639961632107643
4.400999999999804,0.29832175146612955,-0.19215415761634605
4.600999999999871,0.31350698819071304,-0.21272739825621423
4.800999999999938,0.3327882250151059,-0.2209302982077357
5.000000000000004,0.35762567154580566,-0.2346464993561805
5.200000000000071,0.3769131219994445,-0.24699264513204952
5.400000000000138,0.39296913791017174,-0.2659640722905222
5.600000000000205,0.40422893840519525,-0.28254522129705206
5.800000000000272,0.41171792796555723,-0.3044101524731602
6.000000000000338,0.41648448505344354,-0.331589958231943
6.200000000000405,0.4248764252638178,-0.35846131228250655
6.400000000000472,0.43319847507369547,-0.381464079888382
6.600000000000539,0.4402415582143447,-0.3951699363423736
6.800000000000606,0.4455932724030512,-0.414681388752633
7.000000000000672,0.4546205777499498,-0.43301286755996166
7.200000000000739,0.46668747808916866,-0.45228253582027045
7.400000000000806,0.4832681736589822,-0.4743064223088789
7.600000000000873,0.49415792798673697,-0.490072072767643
7.8000000000009395,0.5028328458298885,-0.5103632850745016
8.000000000001005,0.5153283838302573,-0.5316453821621597
8.200000000000895,0.5252645950006007,-0.5586949955030268
8.400000000000784,0.536647389683459,-0.5802708023535157
8.600000000000673,0.5519320922551582,-0.5948020989911595
8.800000000000562,0.5609742905567642,-0.6284517563853722
9.000000000000451,0.5647152677655197,-0.6523779135098777
9.20000000000034,0.5764248593207586,-0.6703067639072523
9.40000000000023,0.579704748120961,-0.6996691839857491
9.600000000000119,0.5771003218906527,-0.7331006895313744
9.800000000000008,0.5789871203802323,-0.7621059667784521
10.000999999999896,0.5807260027582585,-0.7877865004721596
10.200999999999786,0.5827177581720057,-0.819527960626885
10.400999999999675,0.5900287560495434,-0.841864827115525
10.600999999999564,0.5956777629878307,-0.8709237910442476
10.800999999999453,0.6092712759543489,-0.8865261598446671
11.000999999999342,0.618718057755408,-0.9037823669856709
11.200999999999231,0.6215501834509324,-0.9245170236764156
11.40099999999912,0.6209882944909283,-0.9498818811637437
11.60099999999901,0.620956898174606,-0.9670894038696084
11.800999999998899,0.6271552511642394,-0.987881423895311
12.000999999998788,0.6380582764965328,-1.015273866564969
12.200999999998677,0.6407757677206884,-1.0507277473005137
12.400999999998566,0.6428291202646905,-1.0833448093600269
12.600999999998455,0.6538556689953802,-1.1093890675825926
12.800999999998345,0.6731041243251605,-1.123272529383337
13.000999999998234,0.6778296256949313,-1.1432920028106492
13.200999999998123,0.676439414593545,-1.170664229019281
13.400999999998012,0.6717657713262535,-1.20006763336182
13.600999999997901,0.6676965255907841,-1.2330790689385316
13.80099999999779,0.6706272504658485,-1.2608135239845073
14.00099999999768,0.6630972987124945,-1.2898378261580838
14.200999999997569,0.6670796445153335,-1.3178546441911023
14.400999999997458,0.6699276622723741,-1.342024537876317
14.600999999997347,0.6717641164274069,-1.3659148750255095
14.800999999997236,0.6691021751310785,-1.387073335080718
15.000999999997125,0.6586461172040917,-1.4147688240721377
15.200999999997014,0.6546294320706705,-1.4372007377477214
15.400999999996904,0.6481457909753608,-1.4621139964915704
15.600999999996793,0.6264741266621178,-1.4765329906103715
15.800999999996682,0.6182475206588108,-1.4968527726867884
16.000999999996573,0.6011564569145516,-1.5216296160745209
16.200999999996817,0.5747951535533978,-1.5329737572104667
16.40099999999706,0.5511972854255041,-1.5487142078338716
16.600999999997306,0.5338840897134413,-1.564398595040943
16.80099999999755,0.5182486609133699,-1.5779142120620917
17.000999999997795,0.5056284460188467,-1.590533557923603
17.20099999999804,0.47489954000750073,-1.6063306781606579
17.400999999998284,0.45048655372138857,-1.6272800892398955
17.60099999999853,0.43704170951076105,-1.646605261292786
17.800999999998773,0.4237636084957163,-1.6610585660708888
18.000999999999017,0.40739602371329087,-1.674719863552272
18.20099999999926,0.39151556547941085,-1.6847078366178634
18.400999999999506,0.37039706154320473,-1.6871478616042472
18.60099999999975,0.34250080616272416,-1.6856107092549033
18.799999999999994,0.31113356204151044,-1.6907389191813722
19.000000000000238,0.2796365142388744,-1.6956363695547871
19.200000000000482,0.2586340443148085,-1.7067661547462
19.400000000000727,0.24284446180741867,-1.7124626343950349
19.60000000000097,0.21704484456720807,-1.7151789127771717
19.800000000001216,0.19231183634270776,-1.7182530713691944
20.00000000000146,0.16766695497419504,-1.735531422565454
