Time (s),X (m),Y (m)
0.001,-0.0006246028371892732,-0.0005914538325516239
0.20000000000000015,0.005412407543837783,0.002000071389429391
0.4000000000000003,0.0039048308124486736,-0.002595321840561325
0.6000000000000004,0.008784866703934897,-0.003191248779253187
0.8000000000000006,0.023689181212996298,-0.0019225500050843163
1.0000000000000007,0.036765959264352104,0.0015410814163992698
1.2009999999999785,0.053521681970907384,0.0016530082529639721
1.4009999999999565,0.06450451021878527,-0.00029785450087877933
1.6009999999999345,0.07819608780758255,-0.0026286738736533513
1.8009999999999124,0.09102030084373965,-0.005439190104668939
2.0009999999998906,0.10198700977764834,-0.0048686559629117524
2.2009999999998686,0.11754088503866034,0.007596311366544617
2.4009999999998466,0.13674364112555998,0.016443209928380595
2.6009999999998246,0.14996703934471334,0.015876744527150533
2.8009999999998025,0.16245743634118454,0.019489610916142944
3.0009999999997805,0.17878607502886495,0.033445733986765924
3.2009999999997585,0.19455865080535945,0.04538919859333408
3.4009999999997365,0.21436087039385252,0.057787800324549055
3.6009999999997144,0.23163548636398057,0.07891485756646739
3.8009999999996924,0.2524378021666202,0.09154080018656216
4.000999999999671,0.27196064116138835,0.08673015754322169
4.200999999999738,0.2861137095134536,0.09710044762465492
4.400999999999804,0.3065479477472061,0.10804379971709079
4.600999999999871,0.3293352976594375,0.1242596616318351
4.800999999999938,0.3469765122930686,0.13125894357436718
5.000000000000004,0.3676063317610951,0.14571956433679303
5.200000000000071,0.39025436788872525,0.1630183137305044
5.400000000000138,0.41230878169427837,0.1885192098348343
5.600000000000205,0.4349714419199649,0.2143141489196478
5.800000000000272,0.4549402547932253,0.23632343018602034
6.000000000000338,0.47565199633337385,0.2502018542260841
6.200000000000405,0.4932924489772539,0.2640452245031854
6.400000000000472,0.5102812665568722,0.2791727729385931
6.600000000000539,0.5323970352220306,0.2935713512847461
6.800000000000606,0.552388561764174,0.3003208322119151
7.000000000000672,0.5741725092996275,0.31442384560073383
7.200000000000739,0.5859862816691654,0.34799595304814407
7.400000000000806,0.5935190302546399,0.3698557502728414
7.600000000000873,0.5949498517902464,0.39361474535633945
7.8000000000009395,0.6003816083636768,0.42169246284371176
8.000000000001005,0.6131672898408654,0.4408017479760195
8.200000000000895,0.6222858582938293,0.4538937358357989
8.400000000000784,0.6367678340898522,0.46623804115328077
8.600000000000673,0.6457876872911866,0.49024019451676787
8.800000000000562,0.6531438488405976,0.5097241137805631
9.000000000000451,0.6551461134367342,0.5283514585296543
9.20000000000034,0.6622685865154733,0.5485454779672859
9.40000000000023,0.6729674223518978,0.5621286769389268
9.600000000000119,0.6836206906118809,0.5734770139761924
9.800000000000008,0.6830223943550023,0.5999671603653878
10.000999999999896,0.6921775832835994,0.6227860976421599
10.200999999999786,0.6958109600197281,0.6418940633167334
10.400999999999675,0.702316669027907,0.664946441535292
10.600999999999564,0.7051695993311852,0.6863082961115146
10.800999999999453,0.7057579158797987,0.7081760145552622
11.000999999999342,0.7080576823875255,0.7250369099779008
11.200999999999231,0.7080435854429767,0.7457735543298613
11.40099999999912,0.7127760095062591,0.7727916699282424
11.60099999999901,0.7210896040133715,0.794575608494912
11.800999999998899,0.7295608824286147,0.8170674296079161
12.000999999998788,0.7387883614930665,0.8344011054840881
12.200999999998677,0.7424718904945838,0.8606024681654864
12.400999999998566,0.7488513931846696,0.8874013654385775
12.600999999998455,0.74983586217916,0.9115499580855763
12.800999999998345,0.7538240567257762,0.9299632291946917
13.000999999998234,0.7655301245042883,0.9472560522756448
13.200999999998123,0.7777934519928755,0.9565233940271789
13.400999999998012,0.7880367756761353,0.9774661133192646
13.600999999997901,0.7909577287280655,1.0063202207861013
13.80099999999779,0.7950727520253892,1.026494080106571
14.00099999999768,0.7985631157363873,1.0460186881653073
14.200999999997569,0.8072342867791765,1.0705891913448509
14.400999999997458,0.8127299088135481,1.08863693868428
14.600999999997347,0.809538966109092,1.109358330180326
14.800999999997236,0.8200142890607003,1.1254682420455384
15.000999999997125,0.830162010657692,1.1440859803686427
15.200999999997014,0.8360186945475875,1.1656113679273734
15.400999999996904,0.8372457370536425,1.1884132100186378
15.600999999996793,0.8391448938934788,1.2134760009207077
15.800999999996682,0.8394342157686471,1.2370864080431931
16.000999999996573,0.8412108267549068,1.2635180631985714
16.200999999996817,0.8442617389549324,1.2912818489365472
16.40099999999706,0.8400629375844441,1.3099448279370176
16.600999999997306,0.8439324812771675,1.3335121481397447
16.80099999999755,0.8575780327398032,1.3622353160538492
17.000999999997795,0.8667230177291014,1.4003835644349572
17.20099999999804,0.8680279301144848,1.4186263210103671
17.400999999998284,0.8714130446546008,1.4339561746137666
17.60099999999853,0.8807038894388028,1.4495518555692686
17.800999999998773,0.8847667595454515,1.4768333918041787
18.000999999999017,0.8878238427745936,1.5035327680315567
18.20099999999926,0.8884890263346761,1.519604431685
18.400999999999506,0.8898739651321709,1.5406443528346574
18.60099999999975,0.88808840828324,1.5642056544769298
18.799999999999994,0.8890546874466446,1.5888983859289227
19.000000000000238,0.8904718842252637,1.6176013561667848
19.200000000000482,0.8862325480550252,1.6409531628199592
19.400000000000727,0.8838930511458994,1.6635981271965097
19.60000000000097,0.8821985998195838,1.6901599239072145
19.800000000001216,0.8748311092910397,1.717676502447638
20.00000000000146,0.8605958485684325,1.745939850316924
