Time (s),X (m),Y (m)
0.001,0.0011130987088041246,0.0005155841445599734
0.20000000000000015,-0.002361212958213994,-0.0021566536907227725
0.4000000000000003,0.0005439992698085717,-0.0015034943892461325
0.6000000000000004,0.0032283627624335696,-0.0019405834796263498
0.8000000000000006,0.00683298332105295,-0.0036233048553131163
1.0000000000000007,0.007117584817482344,-0.005042556395062994
1.2009999999999785,0.012966776696654792,-0.007984892021203664
1.4009999999999565,0.015624710081161744,-0.005765775306317096
1.6009999999999345,0.03131465268636145,-0.004813318846389991
1.8009999999999124,0.046208106537789014,0.004267807087392384
2.0009999999998906,0.05159050384548248,0.0034422871718661065
2.2009999999998686,0.06492263877279107,0.0014286047911969085
2.4009999999998466,0.0788908096216837,0.0032456970901713657
2.6009999999998246,0.10504510369365723,0.001757493183890012
2.8009999999998025,0.12595616373487636,0.00898451334789819
3.0009999999997805,0.15235137358037257,0.011710003849795347
3.2009999999997585,0.1748498669053267,0.009653054060808542
3.4009999999997365,0.19193523069075347,0.005268425927074825
3.6009999999997144,0.21368262280764608,0.002200773713529255
3.8009999999996924,0.22486149539550412,-0.002390386218589831
4.000999999999671,0.23480522433765422,-0.0078004930625012415
4.200999999999738,0.25983897094344155,-0.005576797055967363
4.400999999999804,0.27840674130200016,-0.0031675154226276517
4.600999999999871,0.28724326633466857,-0.008892598670030526
4.800999999999938,0.300942527365135,-0.012275388297089478
5.000000000000004,0.31249429550102936,-0.013820915844660164
5.200000000000071,0.329379359707638,-0.01693239044076123
5.400000000000138,0.3398323182219932,-0.026131500869098816
5.600000000000205,0.36004160082256914,-0.030545663405480542
5.800000000000272,0.38453964603614915,-0.03426186048174142
6.000000000000338,0.39139838063177257,-0.04073524173110374
6.200000000000405,0.4013571869467986,-0.04885022127815643
6.400000000000472,0.4179978104563836,-0.061987516894538436
6.600000000000539,0.4321706459512019,-0.07343163397428344
6.800000000000606,0.4480755796710053,-0.08327475739627131
7.000000000000672,0.4692092664389158,-0.0912900620615127
7.200000000000739,0.48581408675294335,-0.10645195366523957
7.400000000000806,0.5076258574946325,-0.11768031727541221
7.600000000000873,0.5204909243694542,-0.13355094527426423
7.8000000000009395,0.5396328062057686,-0.1432285830218491
8.000000000001005,0.5660461877043049,-0.1494344468259034
8.200000000000895,0.5950473471779506,-0.15637672878301673
8.400000000000784,0.6168053024804518,-0.16825124768613053
8.600000000000673,0.6340417180325658,-0.17837848555067215
8.800000000000562,0.6568690476184414,-0.1858354534614767
9.000000000000451,0.6796587673727758,-0.19726446625002284
9.20000000000034,0.6989088288480835,-0.21200295939081157
9.40000000000023,0.7188528275272242,-0.22863755389448318
9.600000000000119,0.7367621570845043,-0.247689380141554
9.800000000000008,0.7434783191995066,-0.2619164748042069
10.000999999999896,0.7569143372792156,-0.2817517937336278
10.200999999999786,0.7749486618572813,-0.29823984904690937
10.400999999999675,0.7998341378368576,-0.31795854436479604
10.600999999999564,0.8239746580539744,-0.339773833552015
10.800999999999453,0.8492640931933751,-0.36039818268293267
11.000999999999342,0.8673887547449751,-0.3830074451018432
11.200999999999231,0.8970644680135813,-0.4058321770243242
11.40099999999912,0.9202058661759677,-0.4268457184571147
11.60099999999901,0.937293687172568,-0.4488666458439845
11.800999999998899,0.9545808531461126,-0.4720252572491778
12.000999999998788,0.9669441415360103,-0.4970153516700489
12.200999999998677,0.9895201966476227,-0.5106763624236456
12.400999999998566,1.018581053007263,-0.5246430044481082
12.600999999998455,1.0404436842861924,-0.5397427806709331
12.800999999998345,1.0571176078020597,-0.5616161800104392
13.000999999998234,1.0731946651366857,-0.5702539722355723
13.200999999998123,1.0895301066602217,-0.5735718351822182
13.400999999998012,1.1109488836013337,-0.5889674863566176
13.600999999997901,1.1373054915826597,-0.608357637533302
13.80099999999779,1.1636170017501621,-0.6253928973138752
14.00099999999768,1.1851384180166977,-0.638492627335114
14.200999999997569,1.2069839613359927,-0.6520433172509692
14.400999999997458,1.2182707627918608,-0.6697782314834541
14.600999999997347,1.235937126983032,-0.6840250864321425
14.800999999997236,1.258059053156564,-0.6919059616611207
15.000999999997125,1.278872057746603,-0.703819957335389
15.200999999997014,1.2921390202923517,-0.7191667906724838
15.400999999996904,1.3038513835844754,-0.7369138371164463
15.600999999996793,1.324822794402195,-0.7550750862813576
15.800999999996682,1.3447556987333358,-0.7662042236761087
16.000999999996573,1.3664778096544894,-0.7786029362067263
16.200999999996817,1.3855200625354365,-0.800512844189724
16.40099999999706,1.4085266240641972,-0.8139309643910575
16.600999999997306,1.4365614382845016,-0.8298230737044862
16.80099999999755,1.4599361217702167,-0.846925806609544
17.000999999997795,1.4747218967352602,-0.8680169758320387
17.20099999999804,1.4928609591772206,-0.8810317041903001
17.400999999998284,1.515603426188483,-0.8906359955403603
17.60099999999853,1.5287287767901037,-0.9027724325749664
17.800999999998773,1.5341988983800163,-0.9184346415899303
18.000999999999017,1.5432246448618359,-0.9380919375842853
18.20099999999926,1.5617183118747293,-0.9522624181777003
18.400999999999506,1.578761777916093,-0.967603968665568
18.60099999999975,1.6096602452496023,-0.9766611455676355
18.799999999999994,1.6366680330674828,-0.9873507004135159
19.000000000000238,1.6500436839331427,-1.00037989601962
19.200000000000482,1.6662964075769875,-1.0061306845863722
19.400000000000727,1.6878982978711945,-1.0071338922097062
19.60000000000097,1.7194577921822651,-1.0121539132309227
19.800000000001216,1.7369368395468499,-1.0224165145954456
20.00000000000146,1.7503569968332444,-1.0261293692526394
