Time (s),X (m),Y (m)
0.001,-4.680521708071185e-05,0.00099603208171127
0.20000000000000015,0.002784692286606119,-0.004423752138875909
0.4000000000000003,0.003936216591921978,0.0008656088869178833
0.6000000000000004,0.012769585159839655,0.009159957990609063
0.8000000000000006,0.020749885636718077,0.001126719024115773
1.0000000000000007,0.026486950749065177,-0.00429327397750939
1.2009999999999785,0.03700891438861659,-0.022242902328805072
1.4009999999999565,0.05265454461880698,-0.04253498914916099
1.6009999999999345,0.06901021279598131,-0.061745009901461936
1.8009999999999124,0.0884749050557803,-0.06380778734683545
2.0009999999998906,0.10029190878651285,-0.08461101488830279
2.2009999999998686,0.11817446569082098,-0.09219361660367473
2.4009999999998466,0.13789610953924253,-0.08599595453383649
2.6009999999998246,0.15994318211466,-0.10462246197744207
2.8009999999998025,0.17321613261878765,-0.1350986825991321
3.0009999999997805,0.18059883778745406,-0.15449077546687393
3.2009999999997585,0.19600066042347072,-0.16597827643371
3.4009999999997365,0.21247592722468966,-0.18377529152510544
3.6009999999997144,0.22579275229262055,-0.2005246806676849
3.8009999999996924,0.2409672567492585,-0.21127285791166941
4.000999999999671,0.25620505030181867,-0.23006705513059336
4.200999999999738,0.2764674784960906,-0.2446429907963886
4.400999999999804,0.29641729957371504,-0.2521903058891975
4.600999999999871,0.32282906944039474,-0.268831737012191
4.800999999999938,0.34334919524633334,-0.29537039796757586
5.000000000000004,0.3624162530439772,-0.3145093976387772
5.200000000000071,0.3775592551291731,-0.3352578531705516
5.400000000000138,0.3952600206827447,-0.3666314854535448
5.600000000000205,0.41137803068678813,-0.395166504820503
5.800000000000272,0.4260115971310615,-0.41109661631715766
6.000000000000338,0.4385318072978272,-0.43585900997495564
6.200000000000405,0.4564957644137838,-0.45699261848744704
6.400000000000472,0.4701593537821488,-0.47080795369908685
6.600000000000539,0.48626236412491175,-0.4823506182930755
6.800000000000606,0.5027989253888474,-0.5021686831673253
7.000000000000672,0.5128908468263025,-0.5294099630442278
7.200000000000739,0.5230986013045812,-0.5587780643965589
7.400000000000806,0.533045950752024,-0.5915897382038967
7.600000000000873,0.5447710456496331,-0.6143653528239732
7.8000000000009395,0.5635868711621294,-0.6197137317247788
8.000000000001005,0.5830847446162799,-0.6290371127439066
8.200000000000895,0.6103273345637701,-0.6418482545706997
8.400000000000784,0.630259315879664,-0.6534250353561405
8.600000000000673,0.658075683382584,-0.6595164091812931
8.800000000000562,0.6711314934242376,-0.6809676091241825
9.000000000000451,0.6837466747293942,-0.7155366508253288
9.20000000000034,0.7099503582870927,-0.739143086368495
9.40000000000023,0.7346536661791108,-0.7597221384958788
9.600000000000119,0.7550094729767317,-0.7779903961350981
9.800000000000008,0.777089302447787,-0.8045340384014323
10.000999999999896,0.7918767197226814,-0.834927331108594
10.200999999999786,0.8063393488571032,-0.8608070506640146
10.400999999999675,0.8278853533699454,-0.8872792687558795
10.600999999999564,0.8500999023198735,-0.9097987619171187
10.800999999999453,0.8809796341997052,-0.9256424370621591
11.000999999999342,0.9023269914218379,-0.9445260765156769
11.200999999999231,0.9143185237690616,-0.967660878326244
11.40099999999912,0.9329919492207854,-0.9768881606808211
11.60099999999901,0.9487462131478835,-0.9880280047873381
11.800999999998899,0.9754168652284227,-1.0098710616150515
12.000999999998788,1.0016663246968416,-1.0218119046194092
12.200999999998677,1.0219169000742034,-1.0375461922376255
12.400999999998566,1.046942997073118,-1.045558727111076
12.600999999998455,1.0719489175958907,-1.0641128360750023
12.800999999998345,1.0936787128854928,-1.0797042654133773
13.000999999998234,1.114872660625949,-1.0969509783404603
13.200999999998123,1.142495758088389,-1.110726370623228
13.400999999998012,1.1716291414023747,-1.1238866441111768
13.600999999997901,1.1948870058383867,-1.1377037461490787
13.80099999999779,1.216247755429601,-1.158736635910309
14.00099999999768,1.2442893502792538,-1.1762505405104533
14.200999999997569,1.275678783865724,-1.179794247856753
14.400999999997458,1.2915402644060474,-1.2051264306809912
14.600999999997347,1.3124008030446224,-1.2358625122006006
14.800999999997236,1.3425873111251263,-1.255370889996356
15.000999999997125,1.373967790855504,-1.2654500993035873
15.200999999997014,1.3935978911886604,-1.2944899282899718
15.400999999996904,1.4193030158303122,-1.3143014951119418
15.600999999996793,1.4448447324691094,-1.3330639847234307
15.800999999996682,1.4713031607319353,-1.346162924157742
16.000999999996573,1.4863316329727851,-1.3676470739879425
16.200999999996817,1.4984371338232128,-1.399560843145682
16.40099999999706,1.5136914797722292,-1.4336823106719607
16.600999999997306,1.5296091371293137,-1.4626787620319988
16.80099999999755,1.559935346700513,-1.483397572759568
17.000999999997795,1.5952970756722968,-1.4973054554063758
17.20099999999804,1.6183279164441977,-1.5127702449810778
17.400999999998284,1.6402651020412038,-1.52872610484525
17.60099999999853,1.6616607287524405,-1.546028042883675
17.800999999998773,1.674841360611258,-1.571037041002739
18.000999999999017,1.687880134990277,-1.595016658955543
18.20099999999926,1.6975726748280935,-1.62311691273899
18.400999999999506,1.712878678382208,-1.6484100304897125
18.60099999999975,1.7399416956309575,-1.6713473147672302
18.799999999999994,1.7625910691080497,-1.7020327500532832
19.000000000000238,1.788031018514252,-1.7296714936252855
19.200000000000482,1.8153173172359096,-1.7495602324442197
19.400000000000727,1.8430424037670818,-1.7671733333468003
19.60000000000097,1.8717122629871752,-1.7853513402673784
19.800000000001216,1.8912408184889016,-1.8127698103747396
20.00000000000146,1.9220696441187024,-1.8260464260666547
