Time (s),X (m),Y (m)
0.001,-0.0006729371591054965,0.000515584144559974
0.20000000000000015,0.0044489654071553355,-0.001827743264409838
0.4000000000000003,0.007711639825926553,-0.003608542713005941
0.6000000000000004,0.00862045243407292,0.0009712569407346195
0.8000000000000006,0.004139406533699874,0.003342878270070087
1.0000000000000007,0.0033949109751336783,0.009033432514012823
1.2009999999999785,0.022146058052065203,0.004339443575317741
1.4009999999999565,0.03908324785445578,-0.0013754219029411614
1.6009999999999345,0.05091593359193487,-0.005907834771609277
1.8009999999999124,0.06295659756346454,-0.006823360609757623
2.0009999999998906,0.07474684987671414,-0.008092797128050035
2.2009999999998686,0.08990506255847792,-0.013030205630891394
2.4009999999998466,0.10013570207041612,-0.02028937778854711
2.6009999999998246,0.10754564059873908,-0.023621443224075604
2.8009999999998025,0.12475922097071179,-0.02725693837559202
3.0009999999997805,0.14711199184174872,-0.027883525940931193
3.2009999999997585,0.17313304519227343,-0.041592135655621684
3.4009999999997365,0.19919155426340646,-0.04899232393436906
3.6009999999997144,0.22221728201893318,-0.052606248934055064
3.8009999999996924,0.2443379764070237,-0.06584038346670551
4.000999999999671,0.2586408268428962,-0.08327591214462163
4.200999999999738,0.27130751901885714,-0.09955921315156069
4.400999999999804,0.27422096617906827,-0.12084598153365333
4.600999999999871,0.2829875148799582,-0.13748547450352294
4.800999999999938,0.2914754045505408,-0.14985005775637936
5.000000000000004,0.2915421142300994,-0.16760553057076436
5.200000000000071,0.29081154064902687,-0.1949642836575405
5.400000000000138,0.28374768514221976,-0.22850664083122157
5.600000000000205,0.2757495968676847,-0.25561326259220685
5.800000000000272,0.2664412974280465,-0.2818762221102339
6.000000000000338,0.2603466505474739,-0.3095986862451047
6.200000000000405,0.2534531640572793,-0.33090211520701196
6.400000000000472,0.2562093885603429,-0.35689238915281557
6.600000000000539,0.2550228876900073,-0.384912727495996
6.800000000000606,0.24241798223547623,-0.41323945499992787
7.000000000000672,0.23299784563648265,-0.43778185178285817
7.200000000000739,0.22806430548237241,-0.4554750324176433
7.400000000000806,0.22357747953269638,-0.47035207046781385
7.600000000000873,0.21738435434424408,-0.48683807758099473
7.8000000000009395,0.20535429826350451,-0.5098236063849643
8.000000000001005,0.1887421332069049,-0.5345450134536616
8.200000000000895,0.16199361007886054,-0.5484899439041877
8.400000000000784,0.13160769798323657,-0.5605871369891092
8.600000000000673,0.11244581722018474,-0.5713979716972178
8.800000000000562,0.09955260530047003,-0.5780069426915366
9.000000000000451,0.08356310505077716,-0.5774666263436526
9.20000000000034,0.05233722374415332,-0.5745180985437242
9.40000000000023,0.024782719782597558,-0.5695013775950778
9.600000000000119,-0.005296515381733742,-0.5664320326022496
9.800000000000008,-0.031079423008322823,-0.565664765841077
10.000999999999896,-0.058646419106393934,-0.5620479047898743
10.200999999999786,-0.09546512601354416,-0.5540781992794817
10.400999999999675,-0.13201413488168404,-0.539521409104709
10.600999999999564,-0.16110633643333697,-0.5320923859603252
10.800999999999453,-0.1887623757058294,-0.5280763960667397
11.000999999999342,-0.2167099731568288,-0.5152082185532799
11.200999999999231,-0.24834763962542117,-0.5021368019398699
11.40099999999912,-0.27780571786170033,-0.4928490500009991
11.60099999999901,-0.30680726969859057,-0.4838752936840659
11.800999999998899,-0.34041464102418445,-0.46319629625093395
12.000999999998788,-0.37009895385142977,-0.44794073342365465
12.200999999998677,-0.3922222416041799,-0.4396907489710499
12.400999999998566,-0.4085120742567432,-0.4405277035896708
12.600999999998455,-0.4292527973128263,-0.4241061979575508
12.800999999998345,-0.44970123877520146,-0.3940645710868278
13.000999999998234,-0.4623736889883867,-0.3673558007498431
13.200999999998123,-0.470222063424536,-0.3437664577496981
13.400999999998012,-0.48117057487059894,-0.3183998709950849
13.600999999997901,-0.4875182227014847,-0.28782481688128086
13.80099999999779,-0.49071785564688714,-0.25925326550505107
14.00099999999768,-0.4895500064931771,-0.2304893189720362
14.200999999997569,-0.4975071463561022,-0.20139300186904632
14.400999999997458,-0.5031765684875958,-0.16916935505279243
14.600999999997347,-0.5037462895446932,-0.13965174917610673
14.800999999997236,-0.49586904929166076,-0.1012014200799773
15.000999999997125,-0.49485435814412515,-0.07668323046662269
15.200999999997014,-0.4883535968916514,-0.045682143695668476
15.400999999996904,-0.4758694101608272,-0.011748234281629412
15.600999999996793,-0.4741021543992767,0.015597879195384275
15.800999999996682,-0.4735539963913533,0.030081748523617006
16.000999999996573,-0.4715914155531122,0.057106107274039745
16.200999999996817,-0.46174375671165063,0.08780622324024956
16.40099999999706,-0.4537375162768528,0.11721203561244044
16.600999999997306,-0.44206978326807905,0.14868250828842253
16.80099999999755,-0.43400973850338614,0.18192707302252178
17.000999999997795,-0.42834774003307907,0.20943007729660243
17.20099999999804,-0.4198644877425528,0.23274424898288124
17.400999999998284,-0.40129484526024795,0.25126819703377323
17.60099999999853,-0.3854586333347369,0.27093788472360003
17.800999999998773,-0.36218597626044335,0.2887336091183802
18.000999999999017,-0.34484565895868347,0.30352865896001063
18.20099999999926,-0.3237411173701839,0.3134793063079373
18.400999999999506,-0.2963638357992807,0.321263518593891
18.60099999999975,-0.26448618714654226,0.3282915201819278
18.799999999999994,-0.2316318459227772,0.3274055264683208
19.000000000000238,-0.19843325182766738,0.3259710275691339
19.200000000000482,-0.1629758442193713,0.3272898803769519
19.400000000000727,-0.13268534730712925,0.32693181736447025
19.60000000000097,-0.11364251073725078,0.32776713305506744
19.800000000001216,-0.0912510399095939,0.3259060362482506
20.00000000000146,-0.0661706739925886,0.3229301052311295
