Time (s),X (m),Y (m)
0.001,-0.0005698399629515257,0.0006628221997479692
0.20000000000000015,0.004036150586476452,-0.0017986227971076372
0.4000000000000003,0.00363984686094945,0.0013707140757786161
0.6000000000000004,0.006212785331077545,0.0063536094013006555
0.8000000000000006,0.013585092475948015,0.01481613231636163
1.0000000000000007,0.02994028298360733,0.013514620972078738
1.2009999999999785,0.04542004809513436,0.01824464376793785
1.4009999999999565,0.06639728622815277,0.01321886825623716
1.6009999999999345,0.094298001869956,0.010470069547424339
1.8009999999999124,0.11112911705577637,0.0035237470646442147
2.0009999999998906,0.12496518588171479,0.007078191980327158
2.2009999999998686,0.14007342749656107,2.0628091935249317e-05
2.4009999999998466,0.15979818810722846,-0.007864272046525764
2.6009999999998246,0.17580013855463478,-0.014013112680334502
2.8009999999998025,0.18940623707162754,-0.009513268433262188
3.0009999999997805,0.20528641759853064,-0.013847526382203056
3.2009999999997585,0.22424213630816311,-0.013798754215263873
3.4009999999997365,0.24118602996602076,-0.0055382262504845665
3.6009999999997144,0.26745074388157586,-0.019359108874456018
3.8009999999996924,0.2886063413109069,-0.019831776075636107
4.000999999999671,0.31267908400358063,-0.029193671459579414
4.200999999999738,0.3379926641223619,-0.04173378196718713
4.400999999999804,0.36195562288702265,-0.04692192745806772
4.600999999999871,0.3875614758035225,-0.0580352813894741
4.800999999999938,0.4101563845633908,-0.07102437949058804
5.000000000000004,0.4326858406565324,-0.07669659349864563
5.200000000000071,0.45295962882021434,-0.08537721248595746
5.400000000000138,0.47131970519763255,-0.09602065737789517
5.600000000000205,0.49780670315191755,-0.10055910245963466
5.800000000000272,0.5255787192324752,-0.11805204842936616
6.000000000000338,0.5528310620759562,-0.1348572490717683
6.200000000000405,0.5722473564837173,-0.16348370588466427
6.400000000000472,0.5852111254424438,-0.18658744654759066
6.600000000000539,0.595022410656503,-0.20711619978522486
6.800000000000606,0.6036925788450733,-0.22607597236306423
7.000000000000672,0.6053324150335735,-0.24628581914790457
7.200000000000739,0.6070236947738207,-0.26792898360849277
7.400000000000806,0.6083403797001128,-0.29902937146395536
7.600000000000873,0.60807104245351,-0.327060505530077
7.8000000000009395,0.6057951687600713,-0.3508075059458898
8.000000000001005,0.6010430670732223,-0.378739003848521
8.200000000000895,0.5910709751759519,-0.4149625068010354
8.400000000000784,0.5881602536019157,-0.44620147007844563
8.600000000000673,0.5805954513660445,-0.4693265136765579
8.800000000000562,0.5693022068756507,-0.4988216760749548
9.000000000000451,0.5656607410921605,-0.5284772418663782
9.20000000000034,0.5617692941561768,-0.5511760116619115
9.40000000000023,0.5529636082503647,-0.5747588119200187
9.600000000000119,0.5588110193378873,-0.5955763189485951
9.800000000000008,0.5672896475000615,-0.6169122851895402
10.000999999999896,0.5659627622561292,-0.6411505041078933
10.200999999999786,0.5572362115682162,-0.6582795648800459
10.400999999999675,0.5452832336310711,-0.6734753095161741
10.600999999999564,0.5308289268119948,-0.6843063337525416
10.800999999999453,0.5109629847060514,-0.6932290979385253
11.000999999999342,0.49900070625023946,-0.6992669239868883
11.200999999999231,0.4816156914127559,-0.7102646932903938
11.40099999999912,0.4489661504693222,-0.7124070843658818
11.60099999999901,0.42146059892243587,-0.713776198692727
11.800999999998899,0.39169915207637696,-0.7126151259824225
12.000999999998788,0.364159691583967,-0.7106597817654525
12.200999999998677,0.33862216153830754,-0.7101197402889075
12.400999999998566,0.3120174967081866,-0.7083356383477826
12.600999999998455,0.27630222204248833,-0.7049269193845578
12.800999999998345,0.24242228969737184,-0.7041023632462313
13.000999999998234,0.21106557399337716,-0.6998198442757907
13.200999999998123,0.17595143554175685,-0.6976909858789574
13.400999999998012,0.1443630494024324,-0.6896471234267934
13.600999999997901,0.10911093986220763,-0.6813980596173724
13.80099999999779,0.08206477548609702,-0.6764671532962683
14.00099999999768,0.06039766429729563,-0.6723810894058007
14.200999999997569,0.0257902968993311,-0.6644566869514911
14.400999999997458,-0.010392152001555037,-0.6565368026010325
14.600999999997347,-0.0432721859095481,-0.6410033146613926
14.800999999997236,-0.06960839635269314,-0.6227726303230227
15.000999999997125,-0.0893093631172048,-0.6000941066056028
15.200999999997014,-0.10541224161391317,-0.5825299200723396
15.400999999996904,-0.12184503442027313,-0.5616483971613003
15.600999999996793,-0.1302384056873897,-0.5364611925572434
15.800999999996682,-0.13690396764566548,-0.5127247488823697
16.000999999996573,-0.14223636883038454,-0.4927918218205845
16.200999999996817,-0.1444044303085215,-0.4746784162353863
16.40099999999706,-0.1494242806682401,-0.4490346947201941
16.600999999997306,-0.1536063969296132,-0.419718101862592
16.80099999999755,-0.15525666608426547,-0.38938220114060224
17.000999999997795,-0.1594055363033662,-0.36647761063197243
17.20099999999804,-0.16388064831969415,-0.34319370311038877
17.400999999998284,-0.15931282783261536,-0.31512902407546733
17.60099999999853,-0.16040252786223766,-0.286833530713418
17.800999999998773,-0.16564770865724604,-0.25935729656902884
18.000999999999017,-0.16786309364002552,-0.2356133298434967
18.20099999999926,-0.16292605001134725,-0.2038125143418635
18.400999999999506,-0.15652959714070425,-0.17702789565280086
18.60099999999975,-0.15001975573751478,-0.14994057746387163
18.799999999999994,-0.14598718941645772,-0.11956390788163833
19.000000000000238,-0.1457734310896655,-0.09348371352511851
19.200000000000482,-0.14156098778563098,-0.07334535536350269
19.400000000000727,-0.13358009353704325,-0.046675637295212645
19.60000000000097,-0.11279972983376371,-0.019872269254579987
19.800000000001216,-0.09911851687676929,0.0032330315893393845
20.00000000000146,-0.08617523831360042,0.022151953355221226
