Time (s),X (m),Y (m)
0.001,0.0005727611008870025,-0.0009689812320744441
0.20000000000000015,0.00042481792902499096,0.002048487819987611
0.4000000000000003,-0.0004930181286290176,0.007114019782859291
0.6000000000000004,-0.0009766431848863967,0.006550496173255861
0.8000000000000006,0.006530074599591716,0.002895756807571747
1.0000000000000007,0.015657613423393488,-0.015005649788296757
1.2009999999999785,0.03021640824661065,-0.023744940875327386
1.4009999999999565,0.044560667769777,-0.03031379912042001
1.6009999999999345,0.06904299422380748,-0.034963472669459664
1.8009999999999124,0.0946720668901414,-0.024224511681558463
2.0009999999998906,0.11589882634864994,-0.027357343995852317
2.2009999999998686,0.12983844626405566,-0.033244692708123316
2.4009999999998466,0.1410871381041099,-0.040239314061319746
2.6009999999998246,0.1577769408674513,-0.05026122350720073
2.8009999999998025,0.17947786883305222,-0.053957534837285354
3.0009999999997805,0.2047244674742245,-0.060699524367098044
3.2009999999997585,0.2231202904376113,-0.08044585943481022
3.4009999999997365,0.2305362982268303,-0.10924790814732366
3.6009999999997144,0.23656153624610018,-0.1355595799332575
3.8009999999996924,0.24302864417270198,-0.15645318204833752
4.000999999999671,0.26567622142341923,-0.16642136950283948
4.200999999999738,0.27969553221840715,-0.17572093216038412
4.400999999999804,0.29885443142431484,-0.18825619145753156
4.600999999999871,0.31419866085928494,-0.2095575869359903
4.800999999999938,0.3242803068904472,-0.23094928478288532
5.000000000000004,0.3330751633643549,-0.24834632260203526
5.200000000000071,0.34568138915905944,-0.27046848488423686
5.400000000000138,0.36193091135325833,-0.2857192417473906
5.600000000000205,0.3795204571010154,-0.3055538034141448
5.800000000000272,0.3977598458749492,-0.320711925946538
6.000000000000338,0.4149732955348438,-0.3379930196271597
6.200000000000405,0.4300331299086939,-0.36145184884055337
6.400000000000472,0.44353402424108435,-0.38665971415169054
6.600000000000539,0.4528489789859388,-0.40824957822604213
6.800000000000606,0.4695400776365627,-0.4244219861301955
7.000000000000672,0.5014785630407147,-0.4393082009900717
7.200000000000739,0.5206212311123704,-0.4613176623668568
7.400000000000806,0.527400788012883,-0.5027097391943722
7.600000000000873,0.5398598644564289,-0.5272388344150477
7.8000000000009395,0.5590837919806125,-0.5418074788593734
8.000000000001005,0.5773296472276073,-0.5610986438652057
8.200000000000895,0.5950677179360017,-0.5812192468047009
8.400000000000784,0.6109351066250092,-0.5924900846095058
8.600000000000673,0.6264461712443907,-0.6053613288529828
8.800000000000562,0.6376179837241837,-0.6282222890555941
9.000000000000451,0.6468733648663824,-0.6477868098615418
9.20000000000034,0.6635919713572774,-0.67309118354201
9.40000000000023,0.6838529144968377,-0.6927612221538033
9.600000000000119,0.7059080337311328,-0.7180670988599169
9.800000000000008,0.7221732967517601,-0.7401664381828423
10.000999999999896,0.7394733003096304,-0.7573055080609816
10.200999999999786,0.7600565420009864,-0.7764174777134987
10.400999999999675,0.7763464194766615,-0.795344045508962
10.600999999999564,0.7992287223410993,-0.8196659966376345
10.800999999999453,0.8250277080912417,-0.8411776012859496
11.000999999999342,0.834127582475838,-0.8708433642389983
11.200999999999231,0.8493308462916475,-0.8913413030587585
11.40099999999912,0.8660750478872525,-0.9063730265723827
11.60099999999901,0.8866842219496273,-0.9163739087590439
11.800999999998899,0.9063154766857364,-0.9425403190532218
12.000999999998788,0.9222454195138114,-0.9717574334154125
12.200999999998677,0.931726601357807,-0.9945086170065705
12.400999999998566,0.9456019499187679,-1.0056422160086094
12.600999999998455,0.9617646676729874,-1.0180177595270994
12.800999999998345,0.9823535821290136,-1.0293644422710204
13.000999999998234,1.0046522220826575,-1.047323323253062
13.200999999998123,1.024833902136036,-1.0668127772702445
13.400999999998012,1.046021242145995,-1.0800670110313624
13.600999999997901,1.063100557315562,-1.0908379417041947
13.80099999999779,1.0813566152021235,-1.1036712074427426
14.00099999999768,1.103923673096163,-1.118908219854478
14.200999999997569,1.130826033405198,-1.1194124984345861
14.400999999997458,1.160481121150695,-1.1282134637736139
14.600999999997347,1.1813276575028826,-1.1388953652585243
14.800999999997236,1.196052119041367,-1.1561725323853391
15.000999999997125,1.2147383881445695,-1.1813064762925514
15.200999999997014,1.2339423133625473,-1.1972522023364294
15.400999999996904,1.2546882072163006,-1.2162078954082005
15.600999999996793,1.2731866117462032,-1.2316873593760032
15.800999999996682,1.2904287742122238,-1.2549120021900115
16.000999999996573,1.3135765450002368,-1.270481784981028
16.200999999996817,1.3318547407796266,-1.2879407577260726
16.40099999999706,1.3440276342679924,-1.3186293947852485
16.600999999997306,1.3554390715657705,-1.3378793698011995
16.80099999999755,1.3728012237433986,-1.359601741885826
17.000999999997795,1.3922524215130725,-1.3769955331343546
17.20099999999804,1.4229344283923242,-1.383206662029877
17.400999999998284,1.447638925238468,-1.39671386201257
17.60099999999853,1.4662839549930855,-1.4164880264755033
17.800999999998773,1.4745757086142393,-1.4376465903981765
18.000999999999017,1.4950588598792616,-1.4542457544944696
18.20099999999926,1.5160727535596759,-1.4747579566733735
18.400999999999506,1.5357864042986156,-1.4936080685899076
18.60099999999975,1.5581624615905936,-1.5059196731836908
18.799999999999994,1.567938638975132,-1.5294195276126108
19.000000000000238,1.5884419715355882,-1.5482845642663796
19.200000000000482,1.6105406151846526,-1.5649706206489364
19.400000000000727,1.6242614923926781,-1.5899371430988853
19.60000000000097,1.6396615502688996,-1.6145869978718197
19.800000000001216,1.656956836690177,-1.6374050627119894
20.00000000000146,1.6812665710973036,-1.658272140056299
