Time (s),X (m),Y (m)
0.001,0.0003099530129853942,-0.0010272443824616275
0.20000000000000015,0.001143054912901168,0.003830671788774554
0.4000000000000003,0.005618779150024868,0.0002929376887521901
0.6000000000000004,0.01387674747082296,0.014437160371273499
0.8000000000000006,0.02363527627432376,0.005816114310457817
1.0000000000000007,0.03677931029190077,0.011192991157927953
1.2009999999999785,0.050072149505649415,0.004229558974199722
1.4009999999999565,0.0649790394290797,-0.000572889953079581
1.6009999999999345,0.08303306149178992,0.003335609439675901
1.8009999999999124,0.10092791200525722,-0.002693095740171288
2.0009999999998906,0.12546131388717108,-0.009738988673543905
2.2009999999998686,0.14659989817912666,-0.009445467705640285
2.4009999999998466,0.16539164885105756,-0.02569759062785003
2.6009999999998246,0.18751912209731256,-0.03401693013961814
2.8009999999998025,0.21069142987157388,-0.04794502939070686
3.0009999999997805,0.2348626207166698,-0.05533493583851697
3.2009999999997585,0.2531106142314325,-0.07569020632690379
3.4009999999997365,0.2691181923748229,-0.09706134498641793
3.6009999999997144,0.2821797647546043,-0.1232105483785871
3.8009999999996924,0.2969516385154405,-0.14563537428421294
4.000999999999671,0.3146411408339458,-0.15382059156197092
4.200999999999738,0.3322728020208879,-0.14861922643264747
4.400999999999804,0.3564676777300439,-0.16297450929445667
4.600999999999871,0.3780706648719514,-0.17665578582234426
4.800999999999938,0.39829250692679297,-0.1808233372191537
5.000000000000004,0.42410308785310363,-0.18160553153440026
5.200000000000071,0.4483081871530149,-0.19385701553977797
5.400000000000138,0.4754348673593635,-0.2029850574357436
5.600000000000205,0.5042125248602312,-0.20276643625777607
5.800000000000272,0.536071856157869,-0.2089461835153111
6.000000000000338,0.5664542655317814,-0.22179349204636067
6.200000000000405,0.5925299652298968,-0.24319778031474165
6.400000000000472,0.619461297198165,-0.24837434706677522
6.600000000000539,0.6499112784668286,-0.25229683388860935
6.800000000000606,0.6761022643949903,-0.2644198336808929
7.000000000000672,0.6889775596020893,-0.2859047899882934
7.200000000000739,0.6956761211800907,-0.306965448830219
7.400000000000806,0.7138234699615651,-0.31774953130670025
7.600000000000873,0.7340475692777921,-0.3310970702059615
7.8000000000009395,0.7583855309429186,-0.3479763452947309
8.000000000001005,0.7795535285573594,-0.36736912013425616
8.200000000000895,0.7966065894747694,-0.38776656280023236
8.400000000000784,0.8113864345438465,-0.40415317752129665
8.600000000000673,0.8251125632632156,-0.4199887013941153
8.800000000000562,0.8478059717583929,-0.4374922829621439
9.000000000000451,0.8758790806962132,-0.45152755503262976
9.20000000000034,0.8976451954496859,-0.4583871502849526
9.40000000000023,0.9211352469530515,-0.45798398697308657
9.600000000000119,0.9453209878790028,-0.47263107740285787
9.800000000000008,0.9589908027001612,-0.4933671345645609
10.000999999999896,0.989613173860634,-0.5026054247245981
10.200999999999786,1.0212832481403593,-0.5093377553123515
10.400999999999675,1.0347426914617504,-0.5297753877901633
10.600999999999564,1.0547377109584046,-0.5570124199648605
10.800999999999453,1.084739069809864,-0.5809628288756742
11.000999999999342,1.1090747030738948,-0.6041754778182035
11.200999999999231,1.136624447965048,-0.6259775635264642
11.40099999999912,1.1716555729958311,-0.6468136074524469
11.60099999999901,1.1976971325479862,-0.6699771695968254
11.800999999998899,1.20287842032987,-0.7048010426551117
12.000999999998788,1.2284158811246264,-0.7232824493594976
12.200999999998677,1.2498967077050716,-0.7383484037212348
12.400999999998566,1.277325277898639,-0.7631573420905408
12.600999999998455,1.299070168649174,-0.7892831171110235
12.800999999998345,1.3193999738439726,-0.8086384840385912
13.000999999998234,1.3471906738529378,-0.826188802771847
13.200999999998123,1.3706238923247451,-0.8484308728509435
13.400999999998012,1.385873756965656,-0.8749183336266181
13.600999999997901,1.4089853771413092,-0.8868038727082148
13.80099999999779,1.4248521149987305,-0.9045891917057319
14.00099999999768,1.4430186657902122,-0.9169801347472925
14.200999999997569,1.4662034899146992,-0.9287163721774898
14.400999999997458,1.4825869372416516,-0.9500245303913166
14.600999999997347,1.5041720366235203,-0.968003868508357
14.800999999997236,1.5316275593893525,-0.9873943578640071
15.000999999997125,1.5642944404723402,-1.002413133404717
15.200999999997014,1.582584761256373,-1.0189661531754073
15.400999999996904,1.6096766836219214,-1.036511819613545
15.600999999996793,1.6396398772472898,-1.046174023740011
15.800999999996682,1.6589176304921198,-1.0705696824322422
16.000999999996573,1.665118120725139,-1.095210783024544
16.200999999996817,1.6936179425218474,-1.10207085532604
16.40099999999706,1.7163909542984728,-1.110920365706182
16.600999999997306,1.7342076959222743,-1.131867041170748
16.80099999999755,1.7614340208184076,-1.148352417573322
17.000999999997795,1.785700729281229,-1.1687754445554515
17.20099999999804,1.811882708918911,-1.1821414510037347
17.400999999998284,1.834332857358539,-1.189320244909882
17.60099999999853,1.8610778504352106,-1.2081689446242077
17.800999999998773,1.8875845642341325,-1.2334846660471452
18.000999999999017,1.9153658226170658,-1.2544066068590147
18.20099999999926,1.9398028254201394,-1.2661380989314073
18.400999999999506,1.9703599724892658,-1.2831670091881633
18.60099999999975,2.00094998938378,-1.2931154220156051
18.799999999999994,2.0255697690261982,-1.3205978751647436
19.000000000000238,2.051168178985618,-1.3279638971514818
19.200000000000482,2.072206200470291,-1.340651752871026
19.400000000000727,2.0921070946848324,-1.348741392236612
19.60000000000097,2.1079064039265214,-1.36478212861807
19.800000000001216,2.1290581328366236,-1.3741699346623002
20.00000000000146,2.159581500437569,-1.3779805082282417
