Time (s),X (m),Y (m)
0.001,0.0002200807748493132,-0.0010311682891199468
0.20000000000000015,0.0012372801680892351,0.0041023495914189745
0.4000000000000003,0.005238821636381517,0.01007007511270411
0.6000000000000004,0.011799596981382143,0.012967883933601964
0.8000000000000006,0.021780260904890995,0.019433443071578432
1.0000000000000007,0.03762432622783504,0.021209326893688676
1.2009999999999785,0.05928399199135607,0.03607546601065916
1.4009999999999565,0.08910340076896735,0.05196756765358576
1.6009999999999345,0.1110484411666048,0.044279360264086694
1.8009999999999124,0.13254771385967123,0.03329399853202816
2.0009999999998906,0.15162353567957967,0.0276200792997701
2.2009999999998686,0.16599211244080642,0.020116751152399023
2.4009999999998466,0.18281772122403597,0.0030996037363317385
2.6009999999998246,0.19403357238908203,-0.009803784272214764
2.8009999999998025,0.21103353810973913,-0.004939048954763914
3.0009999999997805,0.2325290544884784,-0.014467900416484542
3.2009999999997585,0.25332830041841103,-0.028666748002024355
3.4009999999997365,0.27859679421605554,-0.035876143062294856
3.6009999999997144,0.3042751836307088,-0.04066819173030789
3.8009999999996924,0.3201951704030094,-0.05163030035107625
4.000999999999671,0.33364525697569386,-0.07065243700626793
4.200999999999738,0.35035820593404066,-0.08773018303632699
4.400999999999804,0.36389106671938926,-0.10983979294262441
4.600999999999871,0.39377090129128667,-0.11812426225641205
4.800999999999938,0.4204901091064825,-0.12440852709995232
5.000000000000004,0.44600912956671224,-0.12185906230596492
5.200000000000071,0.48137837021013063,-0.12327984134427064
5.400000000000138,0.5143614597928308,-0.12207141018012578
5.600000000000205,0.5389312384312669,-0.12912777530667335
5.800000000000272,0.555722868259048,-0.14691361671968045
6.000000000000338,0.5743374668366367,-0.16374244311494304
6.200000000000405,0.5997033595176144,-0.16918945957702589
6.400000000000472,0.6268312684678142,-0.18462881876207118
6.600000000000539,0.650132845267655,-0.2057957013280839
6.800000000000606,0.6723264560332318,-0.22010092920314164
7.000000000000672,0.6903105911285995,-0.22814247128328405
7.200000000000739,0.7151817833097379,-0.23124260629536697
7.400000000000806,0.7404167709821708,-0.23509135155204697
7.600000000000873,0.7668746864935091,-0.24355202413981614
7.8000000000009395,0.7915479836594266,-0.257890822754375
8.000000000001005,0.8157283128875042,-0.2718596140191277
8.200000000000895,0.8361618791903175,-0.2856395686459309
8.400000000000784,0.8616409990426366,-0.2974951149416734
8.600000000000673,0.8803853824217172,-0.3165767718886485
8.800000000000562,0.906135250596177,-0.33724306485439676
9.000000000000451,0.9250549775959491,-0.3608990310604288
9.20000000000034,0.9455892895257154,-0.38204972179628993
9.40000000000023,0.969337590743101,-0.3958327524403252
9.600000000000119,0.993726591095802,-0.4166709382318581
9.800000000000008,1.011844904373238,-0.43915382338222503
10.000999999999896,1.0292262799853242,-0.45635765264879824
10.200999999999786,1.0476111301381157,-0.4819521806497006
10.400999999999675,1.0737693874803134,-0.49755896074645045
10.600999999999564,1.1117903947803118,-0.5096247168830713
10.800999999999453,1.1235709791293118,-0.5301708796018604
11.000999999999342,1.1433872614640737,-0.5501081633434562
11.200999999999231,1.1625359780911928,-0.569831176821864
11.40099999999912,1.1805433376699896,-0.5880901571044623
11.60099999999901,1.1966400330237974,-0.6083604377037478
11.800999999998899,1.1955082482960173,-0.6269776453164306
12.000999999998788,1.2088706677614809,-0.6507146731155904
12.200999999998677,1.227484503070268,-0.6782878713942272
12.400999999998566,1.2446321227435073,-0.7038479804635507
12.600999999998455,1.2619415711890416,-0.7327138137081801
12.800999999998345,1.2624734344955117,-0.7581448633946553
13.000999999998234,1.264844783303325,-0.7842188862321657
13.200999999998123,1.2763730753423552,-0.8182343963660981
13.400999999998012,1.2700193451386654,-0.853615047926999
13.600999999997901,1.2616064411533117,-0.8795319151107476
13.80099999999779,1.260715549588797,-0.9094043481869605
14.00099999999768,1.2560427837987986,-0.9360826944410384
14.200999999997569,1.2373094127985431,-0.9540948301927327
14.400999999997458,1.2327674711870527,-0.9751917108080271
14.600999999997347,1.2249307094534185,-0.9965047219368658
14.800999999997236,1.202709047268975,-1.0227456494827531
15.000999999997125,1.1850905034745067,-1.0501090631344658
15.200999999997014,1.1697155362448801,-1.0773027711708985
15.400999999996904,1.1573321259382552,-1.1050655031979615
15.600999999996793,1.1345406681713586,-1.1233579759484869
15.800999999996682,1.112461470658609,-1.143149444707272
16.000999999996573,1.0934835649500656,-1.1675959773776168
16.200999999996817,1.0734683889509602,-1.1916906213485938
16.40099999999706,1.0592272508703013,-1.2163210403073579
16.600999999997306,1.0451633639880529,-1.2369741941018966
16.80099999999755,1.016349804126037,-1.2463899694048037
17.000999999997795,0.9795666506947237,-1.2547110138431152
17.20099999999804,0.9644948841938363,-1.2721664622416216
17.400999999998284,0.9489685168073015,-1.292189022748228
17.60099999999853,0.9450362369361504,-1.31957368457109
17.800999999998773,0.9381000512254726,-1.348200503218899
18.000999999999017,0.9438771079985945,-1.3815537705906091
18.20099999999926,0.9460957565998015,-1.412662618338699
18.400999999999506,0.940175903796978,-1.4329291434947706
18.60099999999975,0.9183089206129139,-1.459984122500347
18.799999999999994,0.9144981327665945,-1.4955647637659393
19.000000000000238,0.9111759761878074,-1.527326544971152
19.200000000000482,0.9180530168773426,-1.561806159203822
19.400000000000727,0.9018856511961447,-1.5891953033779558
19.60000000000097,0.8897454232065716,-1.6125170419125954
19.800000000001216,0.8724235255772188,-1.6298678289984307
20.00000000000146,0.8603619044010412,-1.652952053788643
