Time (s),X (m),Y (m)
0.001,-0.0005090653149319316,0.0007291460897812449
0.20000000000000015,0.004410710127055636,-0.0026283386274547882
0.4000000000000003,0.0003443192379261518,0.004802944894088803
0.6000000000000004,0.006653267244254879,0.004595012788670404
0.8000000000000006,0.01785488907828453,-0.0020813803105144482
1.0000000000000007,0.026571278628105544,0.006173531444610166
1.2009999999999785,0.04308438510175863,-0.0016977726472105566
1.4009999999999565,0.06082260765505693,-0.006720701931223959
1.6009999999999345,0.07993905813627575,-0.0060372097718834165
1.8009999999999124,0.09358810407963615,-0.003536645471470581
2.0009999999998906,0.11243916911268315,0.003084297072178605
2.2009999999998686,0.1344519955757224,0.0063841968083411865
2.4009999999998466,0.1457228206941216,0.014340663365325003
2.6009999999998246,0.15544224682902694,0.02673302284117587
2.8009999999998025,0.17046227870556652,0.03629842799169605
3.0009999999997805,0.1981784471928548,0.03319929184074959
3.2009999999997585,0.22332211218746167,0.02842972872033922
3.4009999999997365,0.255346341252821,0.028966856467735433
3.6009999999997144,0.2758325582948073,0.020873138487641975
3.8009999999996924,0.2936611844260739,0.0012786006355640848
4.000999999999671,0.31179315925770057,-0.010576609194741992
4.200999999999738,0.3310018296665098,-0.01572183457423255
4.400999999999804,0.3533781395113094,-0.02730843587030619
4.600999999999871,0.37588090914440303,-0.03237540609798006
4.800999999999938,0.3902845610634933,-0.044117103480825336
5.000000000000004,0.40342047964888583,-0.04565619380633285
5.200000000000071,0.4118069090191259,-0.059126826308005774
5.400000000000138,0.41406420028497337,-0.07456455931236769
5.600000000000205,0.4171395382726026,-0.0983823942190591
5.800000000000272,0.42133787419539054,-0.11674507136517598
6.000000000000338,0.42826728711911227,-0.1399763650455569
6.200000000000405,0.4299278903464197,-0.15878317918513177
6.400000000000472,0.4269341842898985,-0.1760277169532749
6.600000000000539,0.4291895998248163,-0.19717066328307503
6.800000000000606,0.43773860741782056,-0.2132317637731757
7.000000000000672,0.4426173662723676,-0.2339105842115581
7.200000000000739,0.44134637418028044,-0.25328655982234394
7.400000000000806,0.44914298766041155,-0.28018582652480767
7.600000000000873,0.45887255566384877,-0.3004793054762432
7.8000000000009395,0.46800968995708253,-0.31604762871042985
8.000000000001005,0.4769398003490252,-0.32953522032166754
8.200000000000895,0.48372599226810725,-0.34480127538426814
8.400000000000784,0.4844237376150785,-0.3660804388848031
8.600000000000673,0.4872966040278308,-0.38721292068806124
8.800000000000562,0.4866391566158302,-0.4191135813249283
9.000000000000451,0.49071383246251,-0.45138007372983335
9.20000000000034,0.4936251158406157,-0.47341031737814376
9.40000000000023,0.48973868768718504,-0.5064221960863357
9.600000000000119,0.4868204497824559,-0.5369992560544344
9.800000000000008,0.47580401491350893,-0.5655567051245425
10.000999999999896,0.4644247187413309,-0.5875088579212969
10.200999999999786,0.4535723216240827,-0.6084222846074531
10.400999999999675,0.4335299762064125,-0.6304839737026516
10.600999999999564,0.4051582166123534,-0.6560188654439351
10.800999999999453,0.38460468386622526,-0.675684714238064
11.000999999999342,0.36433973633740496,-0.6907239961171485
11.200999999999231,0.34416265917363126,-0.7049747800828527
11.40099999999912,0.3230233326243131,-0.7137206053163004
11.60099999999901,0.30591230251840146,-0.7223867652710265
11.800999999998899,0.28617731485532877,-0.7304651399416593
12.000999999998788,0.2636311362380994,-0.7406709133076701
12.200999999998677,0.23183078115180816,-0.7414041081846294
12.400999999998566,0.20257147063814515,-0.7408301332598017
12.600999999998455,0.17789524491272582,-0.7452395544646918
12.800999999998345,0.1513523568058607,-0.7451169563474972
13.000999999998234,0.12617116352294458,-0.7434487264421442
13.200999999998123,0.10664025739280851,-0.7482786107910709
13.400999999998012,0.088691591416967,-0.7513186389156475
13.600999999997901,0.0640856504828699,-0.7488849527558258
13.80099999999779,0.037307961479472504,-0.738579336107456
14.00099999999768,0.011577136112097385,-0.7222747036763383
14.200999999997569,-0.006988519680122572,-0.7009942949744018
14.400999999997458,-0.022770154762473214,-0.6781360984787193
14.600999999997347,-0.03462245932495037,-0.6530569382952071
14.800999999997236,-0.043392412287931996,-0.6268097614110536
15.000999999997125,-0.047015119929468836,-0.5929316249756325
15.200999999997014,-0.05657814956465604,-0.5738663531040626
15.400999999996904,-0.06375660985591901,-0.5488392989422795
15.600999999996793,-0.0632017037720575,-0.5280730471600434
15.800999999996682,-0.06996012639238101,-0.5084351042866554
16.000999999996573,-0.07741021500815974,-0.4831052703754328
16.200999999996817,-0.08498483369529695,-0.4615244374418361
16.40099999999706,-0.08450099429583643,-0.43912203246378956
16.600999999997306,-0.07721769084725072,-0.4186608478196666
16.80099999999755,-0.06365063553498294,-0.39253461460327477
17.000999999997795,-0.04410249312122494,-0.3651796296958127
17.20099999999804,-0.032212616371943045,-0.3411993973224853
17.400999999998284,-0.032906650093253775,-0.3213968440262881
17.60099999999853,-0.02078926034599108,-0.30162684607038404
17.800999999998773,0.0051806966196938165,-0.2890444281176325
18.000999999999017,0.026107142344411777,-0.27461077928862004
18.20099999999926,0.04436772614750782,-0.26378424297595987
18.400999999999506,0.07531308759224223,-0.25505479334254005
18.60099999999975,0.10199260341608234,-0.24575553188997923
18.799999999999994,0.1275678901383562,-0.2405053500712948
19.000000000000238,0.14629350455441,-0.23164620999195049
19.200000000000482,0.17500082578036474,-0.22825975966513884
19.400000000000727,0.20646721673632343,-0.22064922563959247
19.60000000000097,0.2256531251005008,-0.21057303527004811
19.800000000001216,0.24957375151852298,-0.19977701081957944
20.00000000000146,0.27766658598611976,-0.19784846971688944
