Time (s),X (m),Y (m)
0.001,-0.0005698399629515257,0.0006628221997479692
0.20000000000000015,0.0046933844954295395,8.23598033729239e-06
0.4000000000000003,0.011999711813509636,0.00246496391355214
0.6000000000000004,0.0210002651414434,0.009939781864998068
0.8000000000000006,0.039083935448566094,0.02068551899890842
1.0000000000000007,0.06014438726134799,0.022159771960019968
1.2009999999999785,0.09022076606425107,0.017631056796905287
1.4009999999999565,0.1261701256386474,0.013174907584571818
1.6009999999999345,0.15830538567372654,0.018773874064468638
1.8009999999999124,0.18245547447957775,0.020135534111319416
2.0009999999998906,0.20062224563860842,0.00037307339120992516
2.2009999999998686,0.21829710187352522,-0.023575227644991134
2.4009999999998466,0.23087742976517076,-0.0614128011136825
2.6009999999998246,0.23780151832726354,-0.09734741998960691
2.8009999999998025,0.23044195256639896,-0.1397693283440673
3.0009999999997805,0.22808971291591598,-0.1837739968915239
3.2009999999997585,0.21731372338798316,-0.22762566014405192
3.4009999999997365,0.19641965824264238,-0.2647953414504593
3.6009999999997144,0.17500149589291236,-0.2921345788375822
3.8009999999996924,0.13345066840203176,-0.30284030536422013
4.000999999999671,0.08428034961688011,-0.301554655060539
4.200999999999738,0.034019875870724796,-0.3057323429266087
4.400999999999804,-0.011278695154081898,-0.30133550123250474
4.600999999999871,-0.0493467588145008,-0.29183621449122127
4.800999999999938,-0.08093842543335937,-0.2760200036130012
5.000000000000004,-0.0982961032258463,-0.24686795161112227
5.200000000000071,-0.09278949564843698,-0.20486041004165131
5.400000000000138,-0.07751106269737215,-0.16122164228396663
5.600000000000205,-0.043135845077405296,-0.11648788879754694
5.800000000000272,0.0010279570245089059,-0.0733252641877968
6.000000000000338,0.03663512892395882,-0.03972620924780599
6.200000000000405,0.07334494343045653,-0.017971741968801858
6.400000000000472,0.12634980934100284,-0.00829110410231069
6.600000000000539,0.1839839852748006,-0.009112499455576939
6.800000000000606,0.2469418284169341,-0.01263285884190126
7.000000000000672,0.31510737552462315,-0.018387781438649435
7.200000000000739,0.37261325328571776,-0.019280725073190362
7.400000000000806,0.43460745896522357,-0.022434835256460107
7.600000000000873,0.49639236476711196,-0.024381621137879284
7.8000000000009395,0.5509545286265366,-0.025450153574645792
8.000000000001005,0.5999086308760657,-0.03891641493767295
8.200000000000895,0.631517274389926,-0.07610404626482856
8.400000000000784,0.6474376728550704,-0.11135859169479297
8.600000000000673,0.640163775893614,-0.15167317542749886
8.800000000000562,0.6280502662264897,-0.1997596292770262
9.000000000000451,0.604020546239432,-0.25230249169274427
9.20000000000034,0.5696461942323026,-0.2888043138736735
9.40000000000023,0.5326030509540196,-0.3086980442668142
9.600000000000119,0.4816957545981061,-0.3141016752834618
9.800000000000008,0.4197607345420102,-0.3103810434191792
10.000999999999896,0.35737689453246935,-0.29047890366239854
10.200999999999786,0.3029055907861369,-0.27913899654513036
10.400999999999675,0.2508127857570037,-0.25761636252099296
10.600999999999564,0.20983491240613544,-0.22417261435435423
10.800999999999453,0.18789829798750224,-0.16832550806686972
11.000999999999342,0.19112026414098252,-0.11896996268944912
11.200999999999231,0.2055779988403549,-0.07004406085878775
11.40099999999912,0.23275502656095334,-0.016321191662550295
11.60099999999901,0.2699514780105313,0.034185311940728096
11.800999999998899,0.30455055126589664,0.07870486733061469
12.000999999998788,0.3333792411498363,0.12363398605447048
12.200999999998677,0.38004847851193,0.15096886535137502
12.400999999998566,0.42567579258217414,0.15996971573684748
12.600999999998455,0.47182778913103146,0.14552252699081386
12.800999999998345,0.5190102711019371,0.11184109949734444
13.000999999998234,0.5645416144431483,0.07614179203417096
13.200999999998123,0.5972523183757499,0.027982891842567047
13.400999999998012,0.6060549478380508,-0.026957029861166514
13.600999999997901,0.6154339505946465,-0.08031477434750897
13.80099999999779,0.6186592720642183,-0.13733230322100315
14.00099999999768,0.61335860900123,-0.19030911131120912
14.200999999997569,0.5965505958092782,-0.2442035705278431
14.400999999997458,0.5732038593073103,-0.29585384772137524
14.600999999997347,0.542022039146427,-0.3364014511944321
14.800999999997236,0.49691716765258065,-0.36157644012351314
15.000999999997125,0.44519335884730227,-0.37317570614717654
15.200999999997014,0.38914888966254274,-0.378389334892846
15.400999999996904,0.3183829475149463,-0.37667471521538554
15.600999999996793,0.25471346648252147,-0.37153312141336414
15.800999999996682,0.1951442731856119,-0.36546647643501556
16.000999999996573,0.13910205795189626,-0.3631304680590241
16.200999999996817,0.07946695305455279,-0.35827751249052187
16.40099999999706,0.020739698412378865,-0.32569020394020004
16.600999999997306,-0.03608432485291156,-0.28741760914657144
16.80099999999755,-0.08395015545741351,-0.24482934118939229
17.000999999997795,-0.11809120714626117,-0.19445983923483814
17.20099999999804,-0.14409730058069128,-0.14043612930888777
17.400999999998284,-0.16052364968393368,-0.07763974167435225
17.60099999999853,-0.16627444390642285,-0.01240981852408184
17.800999999998773,-0.16559246274810777,0.046172805030971514
18.000999999999017,-0.15842778783995876,0.11096060130660029
18.20099999999926,-0.1456199738251381,0.17867587710737495
18.400999999999506,-0.12761008304532095,0.23654768813378035
18.60099999999975,-0.09097648628219723,0.27517926536343046
18.799999999999994,-0.03426940469439718,0.2921334754373475
19.000000000000238,0.0236891472200393,0.2956789315906137
19.200000000000482,0.08390917545232675,0.2839479489125188
19.400000000000727,0.14785447974446256,0.2747516163410041
19.60000000000097,0.2094232513462831,0.2730374884411112
19.800000000001216,0.27478335248945485,0.2719497332588364
20.00000000000146,0.3379837784880992,0.2698226924216691
