Time (s),X (m),Y (m)
0.001,0.0011890620069237587,-0.00035268032603768894
0.20000000000000015,-0.0021510573188481567,0.0008397135107539736
0.4000000000000003,0.01242214040999792,-0.004579968466800224
0.6000000000000004,0.027697077819787964,-0.005577257213602749
0.8000000000000006,0.05053304738982571,-0.0075808047417230545
1.0000000000000007,0.06396014966284855,-0.0054333137494229425
1.2009999999999785,0.08522713418404929,-0.01218851167324348
1.4009999999999565,0.10949291748464496,-0.02241865472410042
1.6009999999999345,0.14495154455478898,-0.03675643322879677
1.8009999999999124,0.17091959177881869,-0.05035598467781031
2.0009999999998906,0.20210016777288933,-0.05697575709330247
2.2009999999998686,0.24898322817889465,-0.060039162468333254
2.4009999999998466,0.2909271763665815,-0.06557597077672278
2.6009999999998246,0.3249551215006242,-0.07182086774576756
2.8009999999998025,0.3617922356295536,-0.0883495174960916
3.0009999999997805,0.4013212657434494,-0.10773372253091257
3.2009999999997585,0.4338504914788257,-0.131924140376336
3.4009999999997365,0.45290883470589555,-0.1602285748208902
3.6009999999997144,0.4557426478587206,-0.19836163661174525
3.8009999999996924,0.4496932185135656,-0.2406734056732563
4.000999999999671,0.4431539533404232,-0.286032581305191
4.200999999999738,0.4245371822423165,-0.3329860312440898
4.400999999999804,0.3992827406091822,-0.37325354823855567
4.600999999999871,0.3658916683340451,-0.3930561209380893
4.800999999999938,0.3253633940749811,-0.3986812474492359
5.000000000000004,0.282870366387307,-0.3943327115951338
5.200000000000071,0.23449897442220113,-0.38130966492722357
5.400000000000138,0.18390946032241326,-0.36508552942306965
5.600000000000205,0.13632739455029555,-0.3523585697606117
5.800000000000272,0.08233848234744533,-0.3331077578003828
6.000000000000338,0.032275846318289426,-0.2975154679294716
6.200000000000405,0.0014275715008230034,-0.25594124165420756
6.400000000000472,-0.007500224536324857,-0.21252759436671415
6.600000000000539,-0.003959872097840391,-0.1662924967443235
6.800000000000606,0.009755929116777013,-0.11440110822800796
7.000000000000672,0.03200455165889018,-0.060485269840766735
7.200000000000739,0.054140363233069415,-0.0042851057795912344
7.400000000000806,0.07984506669436862,0.049700694489542965
7.600000000000873,0.10909005264232374,0.10924610132913538
7.8000000000009395,0.139692715415034,0.17893784922689987
8.000000000001005,0.17257550166782235,0.25509105472371973
8.200000000000895,0.2036476602088221,0.32941386458654215
8.400000000000784,0.22546556807995968,0.39835460559710373
8.600000000000673,0.2504363599234271,0.4568094303265663
8.800000000000562,0.29384016116676054,0.49002801684562447
9.000000000000451,0.35002051861313516,0.5020949265857115
9.20000000000034,0.41185887003344906,0.5001141022716042
9.40000000000023,0.4723900456521988,0.48873598681775465
9.600000000000119,0.5394808352680651,0.46539154059625043
9.800000000000008,0.6105042008743784,0.4358739970424232
10.000999999999896,0.679311033226516,0.4072240161985893
10.200999999999786,0.7432438542435607,0.3849624237382664
10.400999999999675,0.8047587085628115,0.3502007576261868
10.600999999999564,0.8528450832975466,0.3132666551147561
10.800999999999453,0.8747506829822959,0.26701056144999247
11.000999999999342,0.8785495573568036,0.2149249785668112
11.200999999999231,0.8689838910864602,0.14790266483740816
11.40099999999912,0.8504582931549491,0.07840421855396268
11.60099999999901,0.8199488064667791,0.0054544433517800155
11.800999999998899,0.7838691890009715,-0.07072803647308584
12.000999999998788,0.7527555620670969,-0.13919225601395116
12.200999999998677,0.7170224382668697,-0.2052762162194125
12.400999999998566,0.6725342287114987,-0.27577282589746105
12.600999999998455,0.6357709446445843,-0.34062927964025036
12.800999999998345,0.5878750410230642,-0.3938051467219005
13.000999999998234,0.5231907597698658,-0.4218922348144805
13.200999999998123,0.45127333429732325,-0.4174208739764128
13.400999999998012,0.38887302081616715,-0.38212433243756544
13.600999999997901,0.3511834593410466,-0.3363070791134501
13.80099999999779,0.33724605945599434,-0.2871979500171865
14.00099999999768,0.3361669498024448,-0.23579760329954771
14.200999999997569,0.3411620937145643,-0.1778118686402454
14.400999999997458,0.3598491367819223,-0.1099784206965453
14.600999999997347,0.3814586896027314,-0.044208321418989845
14.800999999997236,0.42078634300597295,0.011168544505336135
15.000999999997125,0.4819323335039824,0.047858519694737554
15.200999999997014,0.5456058997665627,0.06114964670094324
15.400999999996904,0.6086690174831344,0.04965327462964395
15.600999999996793,0.6735386612094153,0.02653184936318438
15.800999999996682,0.7360757143094986,0.009812241695902408
16.000999999996573,0.7971832463717468,-0.01406483700755547
16.200999999996817,0.8594279879073935,-0.04166557229496254
16.40099999999706,0.9098871012035428,-0.07112238252067901
16.600999999997306,0.9357352022747787,-0.1009389972600149
16.80099999999755,0.9401953324461619,-0.14746983796877622
17.000999999997795,0.9341209989885242,-0.20157357209119817
17.20099999999804,0.916251892950289,-0.2633185741684521
17.400999999998284,0.8878526305514878,-0.3361635963564713
17.60099999999853,0.8544814967443157,-0.41136145594176055
17.800999999998773,0.8221135737228772,-0.4830693759254914
18.000999999999017,0.7812866918973185,-0.554680662019796
18.20099999999926,0.7427966872596087,-0.6227506609147276
18.400999999999506,0.694737499019783,-0.6899921665594853
18.60099999999975,0.6599449761699812,-0.756423030064035
18.799999999999994,0.6298526927299009,-0.8136019697830384
19.000000000000238,0.5880811201806961,-0.8440374920060985
19.200000000000482,0.5267399109555112,-0.8455679962780063
19.400000000000727,0.46438881303336876,-0.8253598163708658
19.60000000000097,0.39796728877770887,-0.7922274356252288
19.800000000001216,0.3372352379849598,-0.7616968273436521
20.00000000000146,0.29810484627108824,-0.7186837876505431
