Time (s),X (m),Y (m)
0.001,-4.680521708071185e-05,-0.0009960320817112695
0.20000000000000015,0.0029938531735510137,0.0035579589467251834
0.4000000000000003,0.00633977397411159,0.0035775383302103863
0.6000000000000004,0.011750463833621178,0.010200448911683289
0.8000000000000006,0.020846323447003587,0.014609191170857402
1.0000000000000007,0.030123477819581176,0.018149493146042247
1.2009999999999785,0.042946756292937,0.02303559623536039
1.4009999999999565,0.059341644905296184,0.02817865104719311
1.6009999999999345,0.0791562135646124,0.03542990104744301
1.8009999999999124,0.09925560545595677,0.05603603647291647
2.0009999999998906,0.11979055278191565,0.06767722290972143
2.2009999999998686,0.14760332380351104,0.07442565172347716
2.4009999999998466,0.17008059566232817,0.08045423699084539
2.6009999999998246,0.19185664876077735,0.08056307784117915
2.8009999999998025,0.21607843534359675,0.08980527671682638
3.0009999999997805,0.24035307156746372,0.09131464010600276
3.2009999999997585,0.2582873381835447,0.08717823886556214
3.4009999999997365,0.2760095344576126,0.08393808898959088
3.6009999999997144,0.2942809046034661,0.09060771054774783
3.8009999999996924,0.30991192385922495,0.08683099910828086
4.000999999999671,0.32800200163617094,0.08536563844118479
4.200999999999738,0.35005397246733544,0.0834991292108221
4.400999999999804,0.37437336383122,0.08618476287961373
4.600999999999871,0.39865978621287035,0.08202263903757363
4.800999999999938,0.4242098444254327,0.08508101992044692
5.000000000000004,0.4496802464139897,0.08134927725752458
5.200000000000071,0.4713969384149025,0.07262360492031411
5.400000000000138,0.4987010034400989,0.07409222989648183
5.600000000000205,0.5291900304823721,0.07566857219825564
5.800000000000272,0.556569187308317,0.08251116420386956
6.000000000000338,0.5864756540166766,0.10012125608705516
6.200000000000405,0.6154116075930385,0.10046565361539614
6.400000000000472,0.638997105587961,0.10983331251183362
6.600000000000539,0.6710918856766604,0.10957886559280236
6.800000000000606,0.6999832539166573,0.09969985560135432
7.000000000000672,0.7262603004626328,0.09584489659845465
7.200000000000739,0.757691733754422,0.10330417578111505
7.400000000000806,0.7915230296062015,0.09988991315870019
7.600000000000873,0.8167636514061943,0.09586004221173984
7.8000000000009395,0.8438783966813335,0.09322646625566289
8.000000000001005,0.8734233722752527,0.09890484886306226
8.200000000000895,0.9042086080383963,0.09930693371598769
8.400000000000784,0.9332463909354801,0.10215780180644403
8.600000000000673,0.9605132508956491,0.11315168415191286
8.800000000000562,0.9818324940035004,0.1220215975241219
9.000000000000451,1.0057211288530958,0.12283099595018299
9.20000000000034,1.0356074513066311,0.1316792974067729
9.40000000000023,1.0605631407163485,0.13063146696800898
9.600000000000119,1.0884540510929923,0.14275327827105588
9.800000000000008,1.113935897587549,0.140574914195066
10.000999999999896,1.1404258224113917,0.14324411776999146
10.200999999999786,1.1623234011094234,0.13457952888989638
10.400999999999675,1.186180898681508,0.14592399733289252
10.600999999999564,1.218517824592172,0.1499999112683086
10.800999999999453,1.244463072057927,0.14803569901722602
11.000999999999342,1.267564758123715,0.14822916787379525
11.200999999999231,1.2941865134871091,0.14330880616264785
11.40099999999912,1.3219244398119212,0.14132748286793184
11.60099999999901,1.3522716807449708,0.13697808948302514
11.800999999998899,1.377712098079071,0.1485762886811829
12.000999999998788,1.4087312902132125,0.1645410865407434
12.200999999998677,1.4373436016821015,0.1591788531086111
12.400999999998566,1.4583611515292505,0.1611620911493232
12.600999999998455,1.476476531425382,0.16956754010041186
12.800999999998345,1.495389884709762,0.1772525928334428
13.000999999998234,1.5123031556071045,0.1827530241575559
13.200999999998123,1.5368810531753405,0.19048248645545507
13.400999999998012,1.561418714582788,0.1949984627334616
13.600999999997901,1.5857985217478778,0.2040579507581319
13.80099999999779,1.606323481319949,0.2062685522238529
14.00099999999768,1.6250521752690326,0.2248472338316243
14.200999999997569,1.6476893779362416,0.23662812030403785
14.400999999997458,1.669350065401973,0.23875798674661053
14.600999999997347,1.6905468106552344,0.25298011379632046
14.800999999997236,1.7126471627598256,0.27028026400311217
15.000999999997125,1.7421508104789316,0.27798378967412174
15.200999999997014,1.7675949134329687,0.29155102910379466
15.400999999996904,1.7970299522393458,0.2986711597826136
15.600999999996793,1.8224996707381311,0.31699044279946026
15.800999999996682,1.848123220835085,0.3297709656107938
16.000999999996573,1.871576828059964,0.324986745524235
16.200999999996817,1.8959880032365668,0.32925234630160155
16.40099999999706,1.9182999113556058,0.32719371797470626
16.600999999997306,1.9401749606440224,0.33673353848250576
16.80099999999755,1.9650404574717393,0.3425902337125206
17.000999999997795,1.993944578792196,0.35114971291472763
17.20099999999804,2.0247397379540466,0.37093882314019044
17.400999999998284,2.0565847641890738,0.3994724062857849
17.60099999999853,2.0833275484847147,0.40931949741715246
17.800999999998773,2.106574276224725,0.4158732444495155
18.000999999999017,2.134956865395224,0.4175449738602303
18.20099999999926,2.165390564007766,0.4153374194707332
18.400999999999506,2.1911047931474763,0.4151790605851977
18.60099999999975,2.2198302429749472,0.414941241705093
18.799999999999994,2.2471372633498206,0.42964077361533176
19.000000000000238,2.280308537692847,0.4470441250988056
19.200000000000482,2.3099278558340375,0.46018192820205917
19.400000000000727,2.3401149132822643,0.4724194136739333
19.60000000000097,2.3717600146983298,0.47814780349886304
19.800000000001216,2.4033764195443705,0.48817414816198645
20.00000000000146,2.4375095340683313,0.5066716869160154
