Time (s),X (m),Y (m)
0.001,0.00048696676677933824,0.00099603208171127
0.20000000000000015,0.0002520820815032081,-0.0038609357896183818
0.4000000000000003,0.0017759678276428647,-0.013603049234777568
0.6000000000000004,0.013420018524516766,-0.008244217193385863
0.8000000000000006,0.026988932428887186,-0.0076480798091965166
1.0000000000000007,0.04700024871886473,-0.010703615388273155
1.2009999999999785,0.05904631563904276,-0.01649521469460981
1.4009999999999565,0.0824759084957818,-0.02069538148193645
1.6009999999999345,0.09528872493672223,-0.021929769369796313
1.8009999999999124,0.10395498494399696,-0.024946828621489676
2.0009999999998906,0.1190874906583317,-0.021387491809940318
2.2009999999998686,0.13697420517006273,-0.024160606466380685
2.4009999999998466,0.1588150247468582,-0.024418301017374695
2.6009999999998246,0.17660593570356842,-0.01854711699883195
2.8009999999998025,0.19555955008680917,-0.019150133296164766
3.0009999999997805,0.2152834275502233,-0.01493742400764854
3.2009999999997585,0.23385595764977943,-0.008435529622853249
3.4009999999997365,0.25706512552161587,0.0055811003992295135
3.6009999999997144,0.2805788652838328,0.008166257669269181
3.8009999999996924,0.30535285658981076,0.011967678176288908
4.000999999999671,0.3240867414474544,0.023178395170553968
4.200999999999738,0.3435917360943503,0.03661722152942642
4.400999999999804,0.3668658476214317,0.047636995253089336
4.600999999999871,0.39445057555547774,0.059194560653052536
4.800999999999938,0.41964231772923577,0.06512527197732813
5.000000000000004,0.44944529395367083,0.06760525163846169
5.200000000000071,0.4733422160536999,0.06975365155503373
5.400000000000138,0.49663039053288427,0.06105755823533134
5.600000000000205,0.5260668583347209,0.06545981428940482
5.800000000000272,0.5512796756946496,0.07231317358473971
6.000000000000338,0.5731529963022313,0.071317774983655
6.200000000000405,0.5949520707538426,0.06593868069155805
6.400000000000472,0.6156835604907083,0.06351710421406503
6.600000000000539,0.6430134658185914,0.06667753552074267
6.800000000000606,0.6683883890947298,0.06198392379013764
7.000000000000672,0.6958998037229163,0.07168558234023369
7.200000000000739,0.7209519583728996,0.07663059981328278
7.400000000000806,0.7430275424056162,0.07823813625966342
7.600000000000873,0.7628868372744563,0.0666833689118753
7.8000000000009395,0.7859774002356955,0.06311648369416585
8.000000000001005,0.8122172013669134,0.06565616789940636
8.200000000000895,0.8356402688051292,0.06371266768242242
8.400000000000784,0.8600927585395329,0.0689463754097874
8.600000000000673,0.8844257065229306,0.07680103442015934
8.800000000000562,0.9074237616283308,0.09370301510044396
9.000000000000451,0.9260994488399454,0.10313986026451716
9.20000000000034,0.9496759546272104,0.11220281325508118
9.40000000000023,0.9734522847381862,0.12096626218888147
9.600000000000119,0.9951035699933806,0.12426835202850742
9.800000000000008,1.0206641997864767,0.14072271839404224
10.000999999999896,1.0442435221114974,0.14295747267668896
10.200999999999786,1.068218120161244,0.14987455342362993
10.400999999999675,1.0917650673443493,0.15343791769789641
10.600999999999564,1.1168599593267972,0.17552684661549575
10.800999999999453,1.1440694459495167,0.1821528606361556
11.000999999999342,1.1652807901123825,0.1929171299305982
11.200999999999231,1.187065518945555,0.2045525270202823
11.40099999999912,1.2058264443631241,0.21426025982476887
11.60099999999901,1.23115428522155,0.22290592686008995
11.800999999998899,1.2581353488002143,0.2260283123550021
12.000999999998788,1.2864899968504933,0.2320072062283211
12.200999999998677,1.313851001838769,0.2365196751526961
12.400999999998566,1.340211921188928,0.24459188917915914
12.600999999998455,1.3669092123164845,0.24193263190363384
12.800999999998345,1.3935666838642031,0.23756104308404563
13.000999999998234,1.4219958020428733,0.23980050518180304
13.200999999998123,1.4530296288038773,0.2524221759122783
13.400999999998012,1.4828752734730002,0.2599537183148438
13.600999999997901,1.5132277515157289,0.2673387128528146
13.80099999999779,1.5391980461168766,0.28101301970598513
14.00099999999768,1.5715242270805772,0.2880344368879562
14.200999999997569,1.6011515884717595,0.29368721241945633
14.400999999997458,1.6284231792961,0.3040783093112
14.600999999997347,1.6565499124615006,0.3159856061147281
14.800999999997236,1.6810684444906547,0.31457171376515497
15.000999999997125,1.7090554714416963,0.311298700943622
15.200999999997014,1.7320812587343237,0.3085850173176946
15.400999999996904,1.7608184637564572,0.31356050834123084
15.600999999996793,1.7894946450900346,0.32814547999311877
15.800999999996682,1.812467326643433,0.3274714873072044
16.000999999996573,1.8371598146074197,0.32190328974404536
16.200999999996817,1.858892040970472,0.32935764316422395
16.40099999999706,1.879095320471209,0.33489453970370475
16.600999999997306,1.9059583651910397,0.3440891494109417
16.80099999999755,1.9334510858121765,0.3534998360929383
17.000999999997795,1.9623974994124345,0.36559698173986893
17.20099999999804,1.99214037776989,0.3769070735036459
17.400999999998284,2.0240313604604645,0.39615974271084103
17.60099999999853,2.0509210682660575,0.4028915306371884
17.800999999998773,2.084100257196636,0.4055754443313823
18.000999999999017,2.1075788631904486,0.40995460394316374
18.20099999999926,2.1337740962530347,0.4213852817772762
18.400999999999506,2.1651917343425318,0.4264781114233301
18.60099999999975,2.195334524659967,0.4276444588187973
18.799999999999994,2.2205461048737556,0.43687887172353557
19.000000000000238,2.2503032174535615,0.45504357411638596
19.200000000000482,2.2795248980089906,0.4592905724686342
19.400000000000727,2.3005642966375026,0.4675631929951173
19.60000000000097,2.322358548482942,0.4770971345911771
19.800000000001216,2.350237840986146,0.48489147277122246
20.00000000000146,2.3779678841061282,0.49003410374044426
