Time (s),X (m),Y (m)
0.001,0.0003099530129853942,-0.0010272443824616275
0.20000000000000015,0.0017060607371146303,0.004573252813220193
0.4000000000000003,0.004509300470545775,0.011003078994830969
0.6000000000000004,0.013719489208079905,0.009363918489944285
0.8000000000000006,0.02171779162402334,0.009338143076920167
1.0000000000000007,0.03633856660166293,0.006381047545165615
1.2009999999999785,0.055811205522083886,0.02214315835758633
1.4009999999999565,0.07451707114484557,0.021745447071211364
1.6009999999999345,0.09744935162089234,0.012614284008188608
1.8009999999999124,0.12186262567206804,0.0008971193754173105
2.0009999999998906,0.14523118075499664,0.007855168728175056
2.2009999999998686,0.16659249116527017,0.0033341567122891352
2.4009999999998466,0.18393903123486816,0.00023203003623729822
2.6009999999998246,0.20556308931757877,-0.006516591658895188
2.8009999999998025,0.22873788921038857,-0.006661193383499777
3.0009999999997805,0.25064243869079383,-0.009445460857962374
3.2009999999997585,0.2689206359270918,-0.008731739416480594
3.4009999999997365,0.2807886502915264,-0.02000142478610727
3.6009999999997144,0.2980825197232495,-0.030090331549851385
3.8009999999996924,0.31796228960767303,-0.054502299952068546
4.000999999999671,0.3377468993345023,-0.06323494326015933
4.200999999999738,0.352052210682161,-0.08246833328727958
4.400999999999804,0.37133862573750387,-0.08772119796030377
4.600999999999871,0.3933593222539722,-0.07773323841546968
4.800999999999938,0.41197577724730217,-0.08119524439675169
5.000000000000004,0.4304799879392263,-0.08741543340249351
5.200000000000071,0.45348767386115363,-0.07054999563926198
5.400000000000138,0.48457856168832525,-0.05880323948625297
5.600000000000205,0.5097222997473113,-0.061713045886366315
5.800000000000272,0.5331309347735161,-0.07408670568400774
6.000000000000338,0.5544923968887715,-0.08153176413221287
6.200000000000405,0.5708973580508339,-0.09533526231916756
6.400000000000472,0.5870966470442077,-0.1061124742393133
6.600000000000539,0.5956116786417407,-0.1290337533200841
6.800000000000606,0.6119936055324323,-0.14879790089493777
7.000000000000672,0.6291914216115234,-0.1589263884122301
7.200000000000739,0.6549503702253412,-0.16290799298503952
7.400000000000806,0.6807998193596676,-0.16519703070308356
7.600000000000873,0.7019658966450238,-0.1779940744665604
7.8000000000009395,0.7249046989643542,-0.18729135076169678
8.000000000001005,0.7467150606412609,-0.18891913681297284
8.200000000000895,0.7696682096743791,-0.19108908804229485
8.400000000000784,0.7979054118755234,-0.2014897167038139
8.600000000000673,0.8216662675637939,-0.2218013749766145
8.800000000000562,0.8395514910098221,-0.23835512549740562
9.000000000000451,0.8568585286715434,-0.266496807802689
9.20000000000034,0.8734169653247835,-0.2864191286681777
9.40000000000023,0.89073119230137,-0.3072967242500373
9.600000000000119,0.908018498806942,-0.32600146054961904
9.800000000000008,0.9201281592258316,-0.34898447426682666
10.000999999999896,0.9331454693812646,-0.3568984923918428
10.200999999999786,0.9560443969309715,-0.3570160367555376
10.400999999999675,0.9773078731560684,-0.37057595713563185
10.600999999999564,1.005977918117315,-0.37924379888124216
10.800999999999453,1.0306586396655681,-0.3913958773927138
11.000999999999342,1.0509771636104184,-0.4019612936610474
11.200999999999231,1.080281576047468,-0.3994264091134979
11.40099999999912,1.1034281686617449,-0.4123399190321561
11.60099999999901,1.1216239613565264,-0.4227693544601033
11.800999999998899,1.1456040473356395,-0.4353657562006832
12.000999999998788,1.1637036719515106,-0.45005636520547365
12.200999999998677,1.1825967717842096,-0.46792121115591095
12.400999999998566,1.1898652572570794,-0.48515581097252525
12.600999999998455,1.2117339546705659,-0.4956853247901823
12.800999999998345,1.2262968315169913,-0.5146057809741342
13.000999999998234,1.2359486368838908,-0.5288508697844956
13.200999999998123,1.2532708666753791,-0.5329512412461399
13.400999999998012,1.2695983167917722,-0.5535458819506802
13.600999999997901,1.2929202491523033,-0.5681869834010475
13.80099999999779,1.3150764700136734,-0.5856600629002805
14.00099999999768,1.332352598539667,-0.6039287645304512
14.200999999997569,1.360498081341207,-0.6115877516549826
14.400999999997458,1.3821549071836037,-0.6202148503852679
14.600999999997347,1.4038513066915264,-0.6310711905075199
14.800999999997236,1.4347801823782944,-0.6319127118772118
15.000999999997125,1.4533262803111808,-0.6408061258983379
15.200999999997014,1.4714348044023122,-0.650270776433965
15.400999999996904,1.4957529084980132,-0.6614601982873509
15.600999999996793,1.5254984621525778,-0.6605906627377102
15.800999999996682,1.548671735383587,-0.6643053906802869
16.000999999996573,1.5677967413496825,-0.6661123071800678
16.200999999996817,1.5831900783020103,-0.6855732376292869
16.40099999999706,1.6083826119414748,-0.6934225950561876
16.600999999997306,1.6324671371547768,-0.7062697266883169
16.80099999999755,1.6523509639436607,-0.7138260308699823
17.000999999997795,1.6755871024300515,-0.7261264348257678
17.20099999999804,1.7016566653775955,-0.7295497884531653
17.400999999998284,1.7270479904806715,-0.7387399965609145
17.60099999999853,1.745646643027808,-0.7626514465858145
17.800999999998773,1.773884125290117,-0.7812609993234482
18.000999999999017,1.8042443439749303,-0.788057368558827
18.20099999999926,1.830205554603279,-0.7909119886862003
18.400999999999506,1.8475301211091464,-0.8103354421502921
18.60099999999975,1.8630551696616853,-0.8230234156378774
18.799999999999994,1.8801694591577662,-0.8400558600570535
19.000000000000238,1.8996208437752078,-0.8456282612891282
19.200000000000482,1.91949140277739,-0.8529712423544696
19.400000000000727,1.9396957637311796,-0.8608816864562061
19.60000000000097,1.9599461182079587,-0.8748165423374166
19.800000000001216,1.976894067613745,-0.8951573195719309
20.00000000000146,2.0000794007313036,-0.9049527732162579
