Time (s),X (m),Y (m)
0.001,0.0014505791105779379,-8.989899140956135e-05
0.20000000000000015,0.0005528159274722322,-7.117731387965865e-05
0.4000000000000003,-0.0010068544858094284,0.0022207035736061136
0.6000000000000004,0.0006135718180308898,0.004574763869692208
0.8000000000000006,0.01423883841906423,0.0016019346909538288
1.0000000000000007,0.03059536167899978,-0.007659884134477543
1.2009999999999785,0.040068646581803244,-0.01634167220514708
1.4009999999999565,0.0506537213285637,-0.024736556760837233
1.6009999999999345,0.07377815470767529,-0.03828283669545203
1.8009999999999124,0.09446263854401149,-0.0487824839592687
2.0009999999998906,0.11220297658946252,-0.05751035437418709
2.2009999999998686,0.12647882299735771,-0.06278463997075405
2.4009999999998466,0.13454893629596235,-0.06867618102007557
2.6009999999998246,0.15755862381122412,-0.07348877737207932
2.8009999999998025,0.1888274589996539,-0.0850517198417594
3.0009999999997805,0.21201962625253826,-0.09556548430668037
3.2009999999997585,0.22430410590529826,-0.10280501270341012
3.4009999999997365,0.24212639766516017,-0.11014305828469807
3.6009999999997144,0.2678602002077327,-0.12260384090812897
3.8009999999996924,0.2913997244593324,-0.13752405633355866
4.000999999999671,0.321654389477923,-0.150004421163303
4.200999999999738,0.3592095830585179,-0.1707210704531548
4.400999999999804,0.39425017283278413,-0.19235336196708738
4.600999999999871,0.42927006287834796,-0.21772394894215288
4.800999999999938,0.45945349955352904,-0.23365851819124717
5.000000000000004,0.49501140602608695,-0.2519375582242389
5.200000000000071,0.5234346596935561,-0.2757778825020513
5.400000000000138,0.5468724463552854,-0.2926704357448388
5.600000000000205,0.5811746699289487,-0.30548493085635464
5.800000000000272,0.6079478006992726,-0.3133344530419774
6.000000000000338,0.6312605557692536,-0.31487083504481556
6.200000000000405,0.6508799012665996,-0.3138077789230091
6.400000000000472,0.6836596000507412,-0.31745773056398463
6.600000000000539,0.7118536950222168,-0.3272160827850477
6.800000000000606,0.7464471793853087,-0.3398303370069878
7.000000000000672,0.7783928286777702,-0.3540613787942957
7.200000000000739,0.8059778922161355,-0.36934962326933163
7.400000000000806,0.8433114020915251,-0.39111333022883293
7.600000000000873,0.879381590662,-0.41199646754270397
7.8000000000009395,0.9232584641692346,-0.437971537666542
8.000000000001005,0.9718131046090208,-0.47155331265360584
8.200000000000895,1.0164377098993025,-0.5128343328074499
8.400000000000784,1.0496810078397576,-0.5460084266592306
8.600000000000673,1.0645667906100256,-0.5844622402877085
8.800000000000562,1.0551792000611673,-0.6259453754626126
9.000000000000451,1.0320788815882516,-0.6713656559893717
9.20000000000034,1.005690719416791,-0.7211600856266255
9.40000000000023,0.9793505510267003,-0.7677246390495299
9.600000000000119,0.9525366014284861,-0.8133479879223566
9.800000000000008,0.9234769933325562,-0.8587678797238083
10.000999999999896,0.8937577495246394,-0.9012651360629066
10.200999999999786,0.8689177283360616,-0.9361159157354931
10.400999999999675,0.8488954016925346,-0.9704923756240297
10.600999999999564,0.8253422498460957,-1.0103629182496725
10.800999999999453,0.8025091480231112,-1.0458212093805195
11.000999999999342,0.7796127723133631,-1.0806522440791881
11.200999999999231,0.7488038538326359,-1.118230549216426
11.40099999999912,0.7146098020818746,-1.1654309939087495
11.60099999999901,0.6752469043588871,-1.2164400210858823
11.800999999998899,0.6418544552435833,-1.2643316619668779
12.000999999998788,0.6118773791391957,-1.3088603178138523
12.200999999998677,0.569198870907462,-1.355105761375823
12.400999999998566,0.5236279658815498,-1.3989746341655471
12.600999999998455,0.4783009719048823,-1.4353207421865286
12.800999999998345,0.42958342341915384,-1.4534930655479839
13.000999999998234,0.3859452372071952,-1.4539552723945417
13.200999999998123,0.3467615235316029,-1.4450265293281421
13.400999999998012,0.29606861762169284,-1.4192805745501376
13.600999999997901,0.25050255087136813,-1.3907645716474022
13.80099999999779,0.20569460599413233,-1.3579311239283038
14.00099999999768,0.15890298411165243,-1.3296625165942781
14.200999999997569,0.11320475290545176,-1.2997162479445599
14.400999999997458,0.0808090588058541,-1.2756854301991885
14.600999999997347,0.0737939994359611,-1.2288373699044568
14.800999999997236,0.08231833153030002,-1.1844850445253472
15.000999999997125,0.09713879435327577,-1.1447412217269577
15.200999999997014,0.1171174562751394,-1.1017336011195613
15.400999999996904,0.13635137732398073,-1.0600977127468316
15.600999999996793,0.15563042139735747,-1.0226230173506212
15.800999999996682,0.17360619099293081,-0.9852241348118881
16.000999999996573,0.19582019300225387,-0.9487305894339766
16.200999999996817,0.21708476331636645,-0.9125375698506486
16.40099999999706,0.24133767073925805,-0.8739615552604098
16.600999999997306,0.26853609932866124,-0.8294357948408454
16.80099999999755,0.2952807592133938,-0.7879140007006962
17.000999999997795,0.3221424358501824,-0.7435894164716036
17.20099999999804,0.340794681625122,-0.7024097452944734
17.400999999998284,0.3638476547196511,-0.6616379904674806
17.60099999999853,0.39879625708350036,-0.6114562189306255
17.800999999998773,0.429807690416022,-0.560899037027907
18.000999999999017,0.46414465028191826,-0.5089256096980785
18.20099999999926,0.484327895646249,-0.4645493104762149
18.400999999999506,0.5063468123667421,-0.41954576788420395
18.60099999999975,0.5278066642964042,-0.37933520283103495
18.799999999999994,0.5611159254429395,-0.33375016263225
19.000000000000238,0.6103516730315349,-0.28009991779086413
19.200000000000482,0.6560655072418384,-0.22626622944308913
19.400000000000727,0.6814163798990468,-0.18166068883021255
19.60000000000097,0.7147851326078879,-0.14542438139158645
19.800000000001216,0.7682916551908844,-0.11677466722886662
20.00000000000146,0.816728863585443,-0.10558585634198969
