Time (s),X (m),Y (m)
0.001,-0.0005462407427453492,-0.00035278531233166996
0.20000000000000015,0.0018989063926099536,0.0007143600413858652
0.4000000000000003,0.002476488178377544,0.004613272211303605
0.6000000000000004,0.007635944943271777,0.01068272167400531
0.8000000000000006,0.010824609245290934,0.017580133605095253
1.0000000000000007,0.017717448460191108,0.02463774296530577
1.2009999999999785,0.03181244138515942,0.03079208537621788
1.4009999999999565,0.04505141599293253,0.030229707657804406
1.6009999999999345,0.06560016224244458,0.019842595083156597
1.8009999999999124,0.08686422342227912,0.006099959929056403
2.0009999999998906,0.10663715563027165,-0.00825137549802879
2.2009999999998686,0.13181033280937998,-0.023396554554349927
2.4009999999998466,0.16317870791221514,-0.042939217191142076
2.6009999999998246,0.1847688275529807,-0.06512544121922649
2.8009999999998025,0.2039915085465325,-0.08761567841039948
3.0009999999997805,0.2303791360596876,-0.11037480299382224
3.2009999999997585,0.27383937098010236,-0.1366347167436159
3.4009999999997365,0.31822348847920906,-0.1638263493518187
3.6009999999997144,0.34946334092285825,-0.1832406026552642
3.8009999999996924,0.38798553477876546,-0.20171261921409658
4.000999999999671,0.42583926174252806,-0.22251592384269633
4.200999999999738,0.4572970560354318,-0.24502796872135538
4.400999999999804,0.48838560853008406,-0.2714892851547068
4.600999999999871,0.5317364371426093,-0.3039209612419659
4.800999999999938,0.5753358771853656,-0.3366218353960907
5.000000000000004,0.6200090745869308,-0.37261498561439166
5.200000000000071,0.6614721746425407,-0.4115006720155092
5.400000000000138,0.699196266698949,-0.4507626615310011
5.600000000000205,0.7421015297436977,-0.48536877866598654
5.800000000000272,0.7715411135398635,-0.512666557158189
6.000000000000338,0.8133929473581983,-0.5388115761555402
6.200000000000405,0.8579307410972,-0.5618752614565702
6.400000000000472,0.8969982387155626,-0.5753265698190835
6.600000000000539,0.9382441834230304,-0.5805444563389801
6.800000000000606,0.9831138509423707,-0.5808565020512432
7.000000000000672,1.033405778491265,-0.5818498171741883
7.200000000000739,1.057902411795137,-0.5872615901319428
7.400000000000806,1.08821684800576,-0.5920928657415342
7.600000000000873,1.1250258846724939,-0.5972304794663229
7.8000000000009395,1.1606250526695836,-0.6062396012476318
8.000000000001005,1.2027560211889141,-0.6273308958739392
8.200000000000895,1.2383018069827902,-0.6571245419520043
8.400000000000784,1.2728186641681638,-0.6830893511101953
8.600000000000673,1.3213502062081568,-0.7115463309205011
8.800000000000562,1.367264791018706,-0.7405100584033035
9.000000000000451,1.413832805406194,-0.7701659189178344
9.20000000000034,1.4536034224530292,-0.7962972287552508
9.40000000000023,1.4919953279574878,-0.8196380938826846
9.600000000000119,1.536885882156617,-0.8490511905006628
9.800000000000008,1.5866344203261145,-0.8830090735138201
10.000999999999896,1.6383062670951372,-0.9219526398382443
10.200999999999786,1.6921499807498228,-0.9602978670985679
10.400999999999675,1.750347996916772,-1.0066985437028384
10.600999999999564,1.795737244689074,-1.0519593393342872
10.800999999999453,1.849853680433608,-1.0983852336729392
11.000999999999342,1.9063995126322684,-1.149104499989762
11.200999999999231,1.959489499047775,-1.2027977496506517
11.40099999999912,2.008802595311376,-1.2574933723506894
11.60099999999901,2.062566211559876,-1.313214850120698
11.800999999998899,2.1186683963370223,-1.3707579695394967
12.000999999998788,2.1761708439509135,-1.4265494915281052
12.200999999998677,2.2345969554292147,-1.4813200802619202
12.400999999998566,2.2930802572271864,-1.5376505949080932
12.600999999998455,2.345661067192942,-1.588401812871482
12.800999999998345,2.390779164363059,-1.6383320216742845
13.000999999998234,2.4396674559407545,-1.6915004985222586
13.200999999998123,2.4934441346110714,-1.7493172938638204
13.400999999998012,2.547054633446413,-1.8069913825374404
13.600999999997901,2.6013317736742296,-1.866704360584701
13.80099999999779,2.6543206181543324,-1.9254056764801288
14.00099999999768,2.710754055648747,-1.9822080489753007
14.200999999997569,2.7703017208844636,-2.035580405876412
14.400999999997458,2.826177001117067,-2.080304193413396
14.600999999997347,2.8820545169199567,-2.120199737037109
14.800999999997236,2.9358922057742274,-2.1687771004196548
15.000999999997125,2.9912356479415125,-2.225821540702814
15.200999999997014,3.0462251576868535,-2.2803993061796537
15.400999999996904,3.1058456497319993,-2.3437253653526215
15.600999999996793,3.1718007963338364,-2.4137452755912094
15.800999999996682,3.2346814776061006,-2.4782323300525757
16.000999999996573,3.2930448412804605,-2.536700803904031
16.200999999996817,3.351800219154628,-2.598763056274031
16.40099999999706,3.4073222385526343,-2.6557758210127655
16.600999999997306,3.465323732854631,-2.7050408736186613
16.80099999999755,3.525514700616448,-2.7513918237589876
17.000999999997795,3.5843254211550946,-2.801935392604261
17.20099999999804,3.6469678811474497,-2.856066557320629
17.400999999998284,3.715219886933797,-2.91348855982353
17.60099999999853,3.780663135779338,-2.973687784105693
17.800999999998773,3.845242994296474,-3.033693449901871
18.000999999999017,3.915525973629,-3.09350890571669
18.20099999999926,3.9740621039811237,-3.153051622079688
18.400999999999506,4.032932536840448,-3.2127886092970823
18.60099999999975,4.096389000326631,-3.2730327497906333
18.799999999999994,4.161383401566225,-3.3330646346184305
19.000000000000238,4.227142692872307,-3.3909668844960423
19.200000000000482,4.290263665142589,-3.449534347109462
19.400000000000727,4.355579250356323,-3.508617539041914
19.60000000000097,4.423347547730131,-3.5683356089668776
19.800000000001216,4.494626908408646,-3.625705453376312
20.00000000000146,4.5533300062254325,-3.677708489337841
