Time (s),X (m),Y (m)
0.001,-0.0006084463117070853,3.3283562657668553e-19
0.20000000000000015,0.0034542844405682643,-0.00012607511788412639
0.4000000000000003,0.022512804325149592,0.00013814062347454077
0.6000000000000004,0.038001850355212044,-0.0012206692466018895
0.8000000000000006,0.05048120810855757,-0.0017583875024424957
1.0000000000000007,0.06019458377629826,-0.004429043145948167
1.2009999999999785,0.07217435649875915,-0.00685212981058166
1.4009999999999565,0.09906139909399037,-0.023594140279930197
1.6009999999999345,0.1325770204372823,-0.03475836458304453
1.8009999999999124,0.16733927450836406,-0.049219746036011265
2.0009999999998906,0.1985357418617144,-0.06221796544185199
2.2009999999998686,0.2216787959676684,-0.08981782673658352
2.4009999999998466,0.23783046365214494,-0.11849058091474331
2.6009999999998246,0.24873931931213472,-0.13940063763763488
2.8009999999998025,0.253443854410958,-0.15391744505597138
3.0009999999997805,0.25156317084375623,-0.1682775508630268
3.2009999999997585,0.24009541806705528,-0.1894010863158571
3.4009999999997365,0.22359988956647073,-0.2161374809680927
3.6009999999997144,0.19294280206080816,-0.24351738609489282
3.8009999999996924,0.14733448237664062,-0.2679781351595573
4.000999999999671,0.08661490713240277,-0.2817215827896194
4.200999999999738,0.027070676252954423,-0.28217089086087904
4.400999999999804,-0.0354539972293275,-0.26397732005686525
4.600999999999871,-0.09479592031824224,-0.22661338148759017
4.800999999999938,-0.15287818856573443,-0.17785616294356887
5.000000000000004,-0.19955274438230403,-0.12907896883750256
5.200000000000071,-0.2219991050419974,-0.08010382410323794
5.400000000000138,-0.21924650189460448,-0.030213513204678178
5.600000000000205,-0.19211506122602712,0.011179041178624283
5.800000000000272,-0.1520693418542587,0.03045522642444508
6.000000000000338,-0.11633034247989475,0.03252561987654456
6.200000000000405,-0.08020245369843902,0.010118694643786593
6.400000000000472,-0.052408745654815354,-0.027841188052192024
6.600000000000539,-0.03614172111766815,-0.08470934283557666
6.800000000000606,-0.037355881521626846,-0.1447257052601491
7.000000000000672,-0.04692951716044367,-0.20076327570787184
7.200000000000739,-0.055364249287272245,-0.2571904999882679
7.400000000000806,-0.04879936762222512,-0.31115294727665604
7.600000000000873,-0.036848052230756864,-0.3548386770237455
7.8000000000009395,-0.0325041039707413,-0.3960594467037721
8.000000000001005,-0.04120183159976552,-0.44326166735128963
8.200000000000895,-0.060247787622552056,-0.4902418977603498
8.400000000000784,-0.08880938675831278,-0.5312014049040209
8.600000000000673,-0.13642215285307302,-0.5450636937492259
8.800000000000562,-0.1946282120600536,-0.535624979272067
9.000000000000451,-0.2503386274807145,-0.5126202523825982
9.20000000000034,-0.30398598904963403,-0.4882200485354926
9.40000000000023,-0.3364676475562269,-0.4489467943431622
9.600000000000119,-0.33891847680551257,-0.4038216004735677
9.800000000000008,-0.3208844870869197,-0.36181684186709523
10.000999999999896,-0.2890758164579064,-0.3302117047380078
10.200999999999786,-0.2567958428512212,-0.3187788724656417
10.400999999999675,-0.22031413744398964,-0.3294734498884581
10.600999999999564,-0.17967887663998422,-0.3550460180638804
10.800999999999453,-0.13587028233550244,-0.3853844574989222
11.000999999999342,-0.08221794154571668,-0.4246623347015342
11.200999999999231,-0.024989139052701632,-0.4715920394062647
11.40099999999912,0.030327369410531387,-0.5390661820701946
11.60099999999901,0.06995146091671918,-0.6074568939137088
11.800999999998899,0.08406472312530103,-0.6699924504259415
12.000999999998788,0.07168464148013681,-0.7338160813083501
12.200999999998677,0.056848500056494916,-0.789565100216074
12.400999999998566,0.03584127031599854,-0.8277341046970335
12.600999999998455,0.003715200571125465,-0.8487950238369955
12.800999999998345,-0.030818631140379794,-0.8534877126917718
13.000999999998234,-0.07225412346119527,-0.8413764888016408
13.200999999998123,-0.11247239589784042,-0.8202498557993954
13.400999999998012,-0.15801220168329702,-0.7955898998859458
13.600999999997901,-0.21163258318355027,-0.7642548380002581
13.80099999999779,-0.26652511481637436,-0.7268321725953865
14.00099999999768,-0.32320028880559043,-0.6869224690290532
14.200999999997569,-0.3893222937231809,-0.6388686109780006
14.400999999997458,-0.46124829561208297,-0.5881785443273091
14.600999999997347,-0.5413239484061307,-0.5259750022537422
14.800999999997236,-0.6189855917852236,-0.47025669746795
15.000999999997125,-0.6947360454118688,-0.4182061995229666
15.200999999997014,-0.7649143133065432,-0.3763488273496388
15.400999999996904,-0.8387696304201256,-0.33214584081536125
15.600999999996793,-0.9101438692858844,-0.27802844259503195
15.800999999996682,-0.9539552751095165,-0.22085117148178282
16.000999999996573,-0.9619108716100814,-0.16637713256292858
16.200999999996817,-0.9422869515633505,-0.1069364440826382
16.40099999999706,-0.9125079011727337,-0.052260301643056076
16.600999999997306,-0.8837432209468136,-0.015816409812133853
16.80099999999755,-0.8491942860646051,-0.004860511583367087
17.000999999997795,-0.8084206424271566,-0.025346849177191037
17.20099999999804,-0.7643907456358612,-0.06812137853218464
17.400999999998284,-0.7230448993397298,-0.10782507371076652
17.60099999999853,-0.691406432893271,-0.14730213586584517
17.800999999998773,-0.6848090723776933,-0.19796979289910108
18.000999999999017,-0.691550715005631,-0.24496840406251852
18.20099999999926,-0.7083658827573737,-0.29367568945441064
18.400999999999506,-0.7345060964066127,-0.35051030698198465
18.60099999999975,-0.7695046429748027,-0.41471375069432287
18.799999999999994,-0.8053430995572448,-0.4791650100244624
19.000000000000238,-0.8438868584428028,-0.539466930259915
19.200000000000482,-0.8851219407847292,-0.6051562794502342
19.400000000000727,-0.9291468602521863,-0.6736472907937873
19.60000000000097,-0.969463943342461,-0.7398228110967813
19.800000000001216,-1.0101827464471445,-0.8041593014529286
20.00000000000146,-1.0548982107593807,-0.873540645182904
