Time (s),X (m),Y (m)
0.001,0.001392298616347667,0.0003527853123316693
0.20000000000000015,0.0005126116657619522,0.00018945288024991528
0.4000000000000003,-0.00022302268573731892,0.00027758217291958004
0.6000000000000004,0.002361708112010347,0.00041414730025755473
0.8000000000000006,0.018326229884642407,0.0034349205117473326
1.0000000000000007,0.04306851771568845,0.010782416923056991
1.2009999999999785,0.06857393171688016,0.018408812601959673
1.4009999999999565,0.08908821065999156,0.021935968625043992
1.6009999999999345,0.10295140569869082,0.02028866560557395
1.8009999999999124,0.11515069187915314,0.00935699522433932
2.0009999999998906,0.12917579692360384,-0.004257548404836704
2.2009999999998686,0.13609146947151335,-0.01932495266036303
2.4009999999998466,0.146366658966719,-0.03750000436697393
2.6009999999998246,0.16015590975760907,-0.05751849486660825
2.8009999999998025,0.18563642025418414,-0.08072174010039034
3.0009999999997805,0.20650761789960745,-0.10568459946050303
3.2009999999997585,0.2244524132294443,-0.13200060913842543
3.4009999999997365,0.24405219874184272,-0.15884757045295425
3.6009999999997144,0.2685857876472226,-0.18735105756304338
3.8009999999996924,0.29273061292250485,-0.2243403605388467
4.000999999999671,0.31322958758861863,-0.26240287735645434
4.200999999999738,0.3306042160332823,-0.3060904348737838
4.400999999999804,0.3389436099475875,-0.34413096090244455
4.600999999999871,0.3412221682005484,-0.3628673210172386
4.800999999999938,0.3388195541364626,-0.381341501414763
5.000000000000004,0.33550723735801646,-0.4047753844945334
5.200000000000071,0.32580738328789005,-0.43187393219237596
5.400000000000138,0.3030741178159566,-0.46263896313839387
5.600000000000205,0.2704185471220435,-0.4939412416173221
5.800000000000272,0.23544770443683932,-0.5257967497179967
6.000000000000338,0.19187453209147337,-0.5645557115217894
6.200000000000405,0.14267215561012536,-0.6044124262038888
6.400000000000472,0.08098168928147151,-0.6340424876390653
6.600000000000539,0.02352487005446801,-0.6349850887176413
6.800000000000606,-0.025173291484818498,-0.6131705716852162
7.000000000000672,-0.07173384819440777,-0.5780866237890658
7.200000000000739,-0.11964712361122846,-0.5356992910196785
7.400000000000806,-0.16436047775963125,-0.4958872945248467
7.600000000000873,-0.20515660743988973,-0.45986200516845405
7.8000000000009395,-0.24870487090173252,-0.41618204484421917
8.000000000001005,-0.2950526459952826,-0.3635402593815247
8.200000000000895,-0.3351857834747446,-0.3124061862483412
8.400000000000784,-0.38215863796926125,-0.24666943855937565
8.600000000000673,-0.43114735722806863,-0.18045063842601308
8.800000000000562,-0.4740781499653665,-0.10748528881576899
9.000000000000451,-0.5017365787442952,-0.03638806947396442
9.20000000000034,-0.5097973056804764,0.0188994323389506
9.40000000000023,-0.5013478614309981,0.07034315798332158
9.600000000000119,-0.47946058757837,0.12331622955340067
9.800000000000008,-0.44319179135104925,0.185449787460445
10.000999999999896,-0.40043198689397175,0.24275732845604733
10.200999999999786,-0.3506142020398245,0.3008819258544675
10.400999999999675,-0.29683650860533545,0.3535020321567447
10.600999999999564,-0.2454920879422229,0.39434681048220105
10.800999999999453,-0.19470474305598637,0.4350404858581264
11.000999999999342,-0.14120468270938819,0.47730480468251585
11.200999999999231,-0.07132887396558762,0.5095616486480088
11.40099999999912,0.005999020002262124,0.5264323520521554
11.60099999999901,0.07156752401324519,0.5303574864210153
11.800999999998899,0.12581446991490458,0.5210672281405139
12.000999999998788,0.17060027628414706,0.49907279186651793
12.200999999998677,0.2169060968669163,0.46224888844909434
12.400999999998566,0.26626682789458483,0.4141133591704519
12.600999999998455,0.30957057182113107,0.3654153644722804
12.800999999998345,0.34946886944926286,0.32054926948906853
13.000999999998234,0.38986077882161524,0.2734104936155438
13.200999999998123,0.42561006247838185,0.23311316019142023
13.400999999998012,0.4533735390913036,0.205086268373935
13.600999999997901,0.4727228323605372,0.17603769913724748
13.80099999999779,0.4836979844639992,0.1477529513467292
14.00099999999768,0.4920856328695174,0.1182719078409441
14.200999999997569,0.5032395425723664,0.06500023941249852
14.400999999997458,0.5068947623244948,-0.003766403016914722
14.600999999997347,0.48775077210507284,-0.07143589115895933
14.800999999997236,0.4474771207853086,-0.13728517696284773
15.000999999997125,0.3939484339976438,-0.2014511608267392
15.200999999997014,0.34538768650360846,-0.2553101604226265
15.400999999996904,0.2958875898785181,-0.30179328309453907
15.600999999996793,0.2424304472424538,-0.33682922976694846
15.800999999996682,0.19050553428834624,-0.3644528261068821
16.000999999996573,0.13661656384437532,-0.392045259254441
16.200999999996817,0.07503808854675376,-0.40696205232645083
16.40099999999706,0.01781489092605322,-0.40346925732344396
16.600999999997306,-0.03681507108127308,-0.3794651412957079
16.80099999999755,-0.09313381898370253,-0.3398451491824256
17.000999999997795,-0.15025835514813984,-0.2852406715810636
17.20099999999804,-0.2096135422481027,-0.22595654573842616
17.400999999998284,-0.27288738497647935,-0.16720114557979684
17.60099999999853,-0.3290665257560873,-0.11246560530059102
17.800999999998773,-0.39133141841767277,-0.05538018809603415
18.000999999999017,-0.46161192541753787,0.009467656161525024
18.20099999999926,-0.5301877136431028,0.08429891052431165
18.400999999999506,-0.5801895556668913,0.1633727973779839
18.60099999999975,-0.5991634073628599,0.22956078944092137
18.799999999999994,-0.5916095611682006,0.2856268944210549
19.000000000000238,-0.5687240021035004,0.3313573287987091
19.200000000000482,-0.5303495195313342,0.3798445608858142
19.400000000000727,-0.4855541065350614,0.42278292248610516
19.60000000000097,-0.4256114086955361,0.46375721243487755
19.800000000001216,-0.35918226728255676,0.49632728932723175
20.00000000000146,-0.29106357594414484,0.5004342524448975
