Time (s),X (m),Y (m)
0.001,0.00015606349793537,0.0009963285817120476
0.20000000000000015,0.0010346022728760097,-0.0008527641767397966
0.4000000000000003,0.0025049492430214266,-0.0036767869044212875
0.6000000000000004,0.006582985829876396,-0.008418989351254026
0.8000000000000006,0.012534115809482835,-0.00941744240580488
1.0000000000000007,0.020583089777470944,-0.010448928951366539
1.2009999999999785,0.028194823923178933,-0.00251565429983906
1.4009999999999565,0.034641677042343486,0.0023951643619458353
1.6009999999999345,0.04430678098090371,0.006205532304448628
1.8009999999999124,0.05502728486491194,0.011367110123005965
2.0009999999998906,0.06721762344610728,0.009691360825645007
2.2009999999998686,0.0777675839408817,0.00271623873390107
2.4009999999998466,0.08668888033156126,-0.005692163811753913
2.6009999999998246,0.09797949794685423,-0.009370769309500745
2.8009999999998025,0.11224040681205569,-0.015371114795459157
3.0009999999997805,0.12961018483726142,-0.024463623729625326
3.2009999999997585,0.14415932323880543,-0.029725289509230247
3.4009999999997365,0.1590637647978314,-0.03704674942536281
3.6009999999997144,0.1759191205258248,-0.04270183680531986
3.8009999999996924,0.18909149659393976,-0.052221294277314735
4.000999999999671,0.19620734208543592,-0.06384133087574695
4.200999999999738,0.20981951131591528,-0.06433574753370702
4.400999999999804,0.22406448730864617,-0.0706660074385497
4.600999999999871,0.2363262114778779,-0.07389060201250378
4.800999999999938,0.2474993851822345,-0.07517567683850354
5.000000000000004,0.25862640563408706,-0.07528874544247416
5.200000000000071,0.26994625707571945,-0.08812590244387895
5.400000000000138,0.28384192401128305,-0.10328312913423338
5.600000000000205,0.2973027706067411,-0.11014385040282267
5.800000000000272,0.30512143913251116,-0.12231594564932036
6.000000000000338,0.31753850515044607,-0.13083076180878553
6.200000000000405,0.3324534318781513,-0.13782541675158846
6.400000000000472,0.34497874437148124,-0.14019448814650737
6.600000000000539,0.3607199268973361,-0.14224666736479968
6.800000000000606,0.37439892072681785,-0.1460497391351274
7.000000000000672,0.38828758032187954,-0.15108352659429655
7.200000000000739,0.40459535518191525,-0.15018308101664668
7.400000000000806,0.4203384038325664,-0.15966369566516692
7.600000000000873,0.4317159044957305,-0.17216261994138818
7.8000000000009395,0.44356115875369956,-0.17371040103254226
8.000000000001005,0.45742608442103516,-0.18679006168869114
8.200000000000895,0.4742781432669951,-0.2003823377380921
8.400000000000784,0.49071703623071605,-0.20404206421456406
8.600000000000673,0.5054149256792264,-0.21377023190353805
8.800000000000562,0.5195018945717146,-0.2202447781308564
9.000000000000451,0.5374798995861028,-0.2241318815741493
9.20000000000034,0.5476133181385142,-0.24304150256880397
9.40000000000023,0.5569859246331357,-0.25615186312777577
9.600000000000119,0.5667766178256864,-0.27847789629258546
9.800000000000008,0.5775009492362589,-0.2933660816333088
10.000999999999896,0.5902061936942037,-0.30150892813818636
10.200999999999786,0.601989858163889,-0.30277956799699635
10.400999999999675,0.616332981034032,-0.29446354612487763
10.600999999999564,0.6322819513377516,-0.2971837856044409
10.800999999999453,0.6482851492915546,-0.29499127984131807
11.000999999999342,0.6657339531438442,-0.29761895493673673
11.200999999999231,0.6851007256461104,-0.30188853790129194
11.40099999999912,0.6998188356617144,-0.30854460218958657
11.60099999999901,0.7162591338687937,-0.30343149734160624
11.800999999998899,0.734308227329842,-0.30084345259080814
12.000999999998788,0.7495215675526786,-0.3105141976835655
12.200999999998677,0.7659139968362128,-0.3133757313641812
12.400999999998566,0.7796484173786458,-0.32141763093392167
12.600999999998455,0.7967044775051982,-0.3278698546726329
12.800999999998345,0.811842654604491,-0.3356177456107067
13.000999999998234,0.8275404095264817,-0.34458586915059797
13.200999999998123,0.8453363729287584,-0.34738917414143966
13.400999999998012,0.8621738724662213,-0.3436178150973983
13.600999999997901,0.8792131674916566,-0.3503892249840909
13.80099999999779,0.8989492866958706,-0.3521976323222565
14.00099999999768,0.9195570151838719,-0.35894915171600406
14.200999999997569,0.9364104221255046,-0.3629694943900296
14.400999999997458,0.9509193244293003,-0.36101144329393253
14.600999999997347,0.9654915654963127,-0.36554917104183016
14.800999999997236,0.9833054641721679,-0.3550004512308908
15.000999999997125,1.0008731055876932,-0.3589598454486165
15.200999999997014,1.0174795124675078,-0.35567782863339586
15.400999999996904,1.033267182020113,-0.36013387638342764
15.600999999996793,1.05219060086757,-0.3615922031157446
15.800999999996682,1.070000015391364,-0.34349375056480974
16.000999999996573,1.0832109173404652,-0.35021747276784143
16.200999999996817,1.0949343554137732,-0.36180555841099776
16.40099999999706,1.1087430537112843,-0.3493940044342861
16.600999999997306,1.125676060683309,-0.3532042233597803
16.80099999999755,1.1418435134672715,-0.35421581456211826
17.000999999997795,1.159449380906903,-0.3522925332986856
17.20099999999804,1.1758225833254798,-0.3526164843352964
17.400999999998284,1.1957185545758158,-0.3453174054814177
17.60099999999853,1.2139490854851507,-0.34767986933981554
17.800999999998773,1.2336392256020419,-0.34732972710753
18.000999999999017,1.2525074219108994,-0.3497527706028732
18.20099999999926,1.270833845908707,-0.35927070210576123
18.400999999999506,1.2857582920225605,-0.3718443664234716
18.60099999999975,1.3028221301649783,-0.377673195346002
18.799999999999994,1.3179132612028894,-0.3895470938361622
19.000000000000238,1.3319856204325993,-0.4060397830500913
19.200000000000482,1.3499693991850297,-0.42828499925424557
19.400000000000727,1.3681069711112488,-0.4435383578598649
19.60000000000097,1.3816939864041866,-0.45557794284399616
19.800000000001216,1.3977619200355333,-0.4730260617548501
20.00000000000146,1.4179872883463784,-0.4710821774148245
