Time (s),X (m),Y (m)
0.001,0.0008589492133542695,0.0009348340498585851
0.20000000000000015,0.0008821661832673429,-0.00019769463446237087
0.4000000000000003,0.0025314623079211365,-0.0005221472238657881
0.6000000000000004,0.005629020638492358,0.0006543732715207754
0.8000000000000006,0.010018482407947372,0.005278917672276919
1.0000000000000007,0.01869239173461607,0.011056144652648245
1.2009999999999785,0.029322531964788894,0.012265250603933358
1.4009999999999565,0.04027685029208913,0.015317360298856025
1.6009999999999345,0.051178782318729105,0.02519590861905855
1.8009999999999124,0.0659131597268302,0.034189307213637395
2.0009999999998906,0.07812776373732457,0.04149835728602276
2.2009999999998686,0.0951669796458475,0.044485461482342906
2.4009999999998466,0.10930138346742824,0.05134478306492111
2.6009999999998246,0.12029874546007978,0.0574580523545543
2.8009999999998025,0.13078619762872018,0.07082778457999879
3.0009999999997805,0.14436461759689237,0.07282025177692095
3.2009999999997585,0.15747714683914513,0.07817149272367288
3.4009999999997365,0.1667863776875005,0.09132768321213716
3.6009999999997144,0.1794981883596341,0.09094490532263565
3.8009999999996924,0.1911097384585723,0.09131340693789804
4.000999999999671,0.20447089762430332,0.09201320809614938
4.200999999999738,0.216840148956399,0.09877174878902512
4.400999999999804,0.22615469402021912,0.11087022095397486
4.600999999999871,0.23779213931145554,0.11640934040196958
4.800999999999938,0.2530301862956623,0.12915435563360964
5.000000000000004,0.27577840763259864,0.13647679282950578
5.200000000000071,0.2932681530896303,0.1419351602999917
5.400000000000138,0.31202584773673087,0.14758913978166213
5.600000000000205,0.32966695772123134,0.15039253372304734
5.800000000000272,0.34772479406508433,0.15532920531249678
6.000000000000338,0.36827888523376096,0.16765972932191592
6.200000000000405,0.38836631890117607,0.17424958723807207
6.400000000000472,0.4044936533492316,0.1831376178223106
6.600000000000539,0.42099632449437396,0.18710193975538775
6.800000000000606,0.44185595713396175,0.20443951556087336
7.000000000000672,0.45826332124096697,0.22188924202740656
7.200000000000739,0.4786735588179648,0.24248855962951563
7.400000000000806,0.49996814542769225,0.25646715422976774
7.600000000000873,0.5203205539642344,0.2759438187663974
7.8000000000009395,0.5369751219014648,0.28027159087295594
8.000000000001005,0.5513059987567648,0.28840033020724765
8.200000000000895,0.5669019479694717,0.2935441859203001
8.400000000000784,0.5849569693928898,0.3079680307527989
8.600000000000673,0.602314692778818,0.31880615095360576
8.800000000000562,0.6157222825329193,0.32690470548647327
9.000000000000451,0.6317732963259183,0.33447029849861576
9.20000000000034,0.6539404133255577,0.34023022243071405
9.40000000000023,0.6748795485165422,0.357342578622443
9.600000000000119,0.6932304213622648,0.3628413291597444
9.800000000000008,0.7109679580970036,0.373226390132454
10.000999999999896,0.7284741151511749,0.3799081684800509
10.200999999999786,0.7471448305545073,0.39511760351056974
10.400999999999675,0.7658764640338828,0.40715303595688185
10.600999999999564,0.77755724601987,0.4130786551860957
10.800999999999453,0.7912445234257269,0.4309027075275971
11.000999999999342,0.8089236799456783,0.442222295126067
11.200999999999231,0.8285840264274842,0.451087747920242
11.40099999999912,0.8522858938401696,0.4689990859292933
11.60099999999901,0.872549577024771,0.4796679067477707
11.800999999998899,0.8933874061969029,0.487937031201328
12.000999999998788,0.9109479553847446,0.49517957470924423
12.200999999998677,0.923490470101909,0.5118926043831631
12.400999999998566,0.9389479986382283,0.5256365431021305
12.600999999998455,0.9571776092494833,0.5328429342541199
12.800999999998345,0.9754293634410333,0.548295422012639
13.000999999998234,0.9907862492392838,0.5663511161271126
13.200999999998123,1.0071553492197762,0.5828486286702902
13.400999999998012,1.0233433411069441,0.588804699163404
13.600999999997901,1.0467266595111737,0.6082601722002218
13.80099999999779,1.0682700912297245,0.6335958537940761
14.00099999999768,1.0900942089429768,0.6521404361616269
14.200999999997569,1.1079363256709855,0.6614736749023107
14.400999999997458,1.1225967222581716,0.6742424304841406
14.600999999997347,1.1342758040433605,0.6819341540630584
14.800999999997236,1.1477137697029263,0.6953283413141902
15.000999999997125,1.1619995752151377,0.7224906224999419
15.200999999997014,1.1801122213608906,0.7432615058004757
15.400999999996904,1.1988053799443108,0.7662620467393532
15.600999999996793,1.2218515849288956,0.7859251349307748
15.800999999996682,1.2407891604762482,0.7984273978643087
16.000999999996573,1.260737583531898,0.8121815879296714
16.200999999996817,1.2818130000042995,0.8247714507331172
16.40099999999706,1.299023126301765,0.8336195932786665
16.600999999997306,1.3141454576090479,0.83749528598602
16.80099999999755,1.3290111909786306,0.8564401228670858
17.000999999997795,1.3439666980346399,0.8816006190268961
17.20099999999804,1.3601240563588826,0.9037887492330439
17.400999999998284,1.3814553947368775,0.9140133197937379
17.60099999999853,1.4049525165077277,0.9279933189119549
17.800999999998773,1.4263812851345727,0.9424831592049229
18.000999999999017,1.4496908941233664,0.9552453872205992
18.20099999999926,1.4722998092592081,0.9665703446500343
18.400999999999506,1.4946815098628776,0.9762975274507392
18.60099999999975,1.5184468102377802,0.98977334762236
18.799999999999994,1.5420376899079113,1.008308126056677
19.000000000000238,1.5702384979517419,1.0215395858357126
19.200000000000482,1.597430365627451,1.0324285476263766
19.400000000000727,1.6204854705253984,1.0415073446005165
19.60000000000097,1.640659330490921,1.04830867870365
19.800000000001216,1.6589004497728135,1.0544477282257902
20.00000000000146,1.6800695351648829,1.0627252284304294
