Time (s),X (m),Y (m)
0.001,-0.000592775884969954,-0.0001791137972120003
0.20000000000000015,0.0005252565013443729,0.0005006324566511744
0.4000000000000003,0.005233377286348221,0.0038245571084155917
0.6000000000000004,0.004159682146860931,0.00739358476975559
0.8000000000000006,0.008163540954179187,0.006318345589959297
1.0000000000000007,0.016555543602716456,0.001963428406100568
1.2009999999999785,0.03440055469209601,-0.009851828200013964
1.4009999999999565,0.056381476263076644,-0.02654988382275057
1.6009999999999345,0.07402371956568006,-0.04457298850992371
1.8009999999999124,0.07782084436250822,-0.07084898700276838
2.0009999999998906,0.07621202430972807,-0.09545121787944724
2.2009999999998686,0.056378248711700205,-0.11425761266239091
2.4009999999998466,0.0405255544688605,-0.1249428344261471
2.6009999999998246,0.020410274129583374,-0.1239774324688358
2.8009999999998025,-0.0031113581266049334,-0.11915478837404803
3.0009999999997805,-0.03383819506303421,-0.10096597542730812
3.2009999999997585,-0.06399220310332428,-0.08026425391639899
3.4009999999997365,-0.09105804520859327,-0.05248474333253293
3.6009999999997144,-0.11586686336241123,-0.015890338984100024
3.8009999999996924,-0.12812566283880228,0.018036182684915664
4.000999999999671,-0.12421690541838289,0.04731072844437651
4.200999999999738,-0.10649177276221036,0.08992422410982413
4.400999999999804,-0.07798798368227693,0.13800965111359123
4.600999999999871,-0.046520544392748296,0.18382869139165695
4.800999999999938,-0.016993485630506452,0.22541813001939356
5.000000000000004,0.012395287460587738,0.2558783689579297
5.200000000000071,0.04068964471559541,0.2959334093535279
5.400000000000138,0.0798278596756519,0.34915698514448384
5.600000000000205,0.12617545148069423,0.40253326078824275
5.800000000000272,0.1769345500536369,0.45802525491410434
6.000000000000338,0.21756714482695003,0.5081271834497373
6.200000000000405,0.25744230518684524,0.5571473532902281
6.400000000000472,0.3106920264389111,0.6004870267769546
6.600000000000539,0.3724577011218922,0.6313110241248677
6.800000000000606,0.4363736529429447,0.6388533175951079
7.000000000000672,0.4918375480287973,0.6222238145071738
7.200000000000739,0.5385511054542719,0.5745563493892364
7.400000000000806,0.5667058702099774,0.5313474532485022
7.600000000000873,0.5696931619509265,0.49060056849636374
7.8000000000009395,0.5533440555686312,0.4539502631160722
8.000000000001005,0.511921062231686,0.4237798065495375
8.200000000000895,0.4569304483851206,0.4040284990949969
8.400000000000784,0.3992328053037592,0.40141276914864615
8.600000000000673,0.34477083179464085,0.41413964987156937
8.800000000000562,0.29928428564784326,0.43391435320841254
9.000000000000451,0.24971700646919098,0.46625996521614754
9.20000000000034,0.20335988618997758,0.5039036878334725
9.40000000000023,0.15388084767002702,0.5466998748665446
9.600000000000119,0.10985519863752372,0.5890630895757781
9.800000000000008,0.09004428484939149,0.6369489773489249
10.000999999999896,0.09406552335588014,0.6900017052638432
10.200999999999786,0.11399974566810378,0.7455260532042178
10.400999999999675,0.14355626412734965,0.7999103013477262
10.600999999999564,0.17918695959911357,0.8480725638029436
10.800999999999453,0.22671631985961313,0.8810491148018204
11.000999999999342,0.2768449191464059,0.8927830749485876
11.200999999999231,0.3213201360980448,0.8889169386777437
11.40099999999912,0.3660013826351597,0.8723787229473471
11.60099999999901,0.41448940954466923,0.8386062327481911
11.800999999998899,0.4680056009037296,0.7888887499805262
12.000999999998788,0.5179442955611478,0.7495504254460151
12.200999999998677,0.5491235427489268,0.7004867098161872
12.400999999998566,0.5605128261976023,0.6501259151053342
12.600999999998455,0.5609364987301968,0.6042382999355562
12.800999999998345,0.5440404756259687,0.5553597913151319
13.000999999998234,0.5155248232472486,0.5033763660145654
13.200999999998123,0.47830627183959723,0.4426286033882861
13.400999999998012,0.42825800443598877,0.37054614546844444
13.600999999997901,0.37598159014809457,0.29810656107429856
13.80099999999779,0.3232992455033823,0.22951368830769994
14.00099999999768,0.27340721636692666,0.1725341771077403
14.200999999997569,0.21826009957055267,0.14364862972035175
14.400999999997458,0.16546420052798586,0.13459522991903164
14.600999999997347,0.106420950797254,0.14407799343900285
14.800999999997236,0.03984531154793337,0.17208899117471224
15.000999999997125,-0.029731430732670587,0.22331996057566747
15.200999999997014,-0.08857841868544826,0.2886259660829211
15.400999999996904,-0.11816529271148024,0.3421190494233331
15.600999999996793,-0.12296055427107544,0.3848420210376846
15.800999999996682,-0.11168639101084583,0.43063612721698963
16.000999999996573,-0.08952243024504555,0.4784134371722633
16.200999999996817,-0.05417467415450529,0.5332068468895357
16.40099999999706,-0.004796553155345996,0.5841066193883558
16.600999999997306,0.055694422359990337,0.6263897612465537
16.80099999999755,0.11038240544953504,0.6498257076814036
17.000999999997795,0.15287152763980918,0.656690791146799
17.20099999999804,0.19378141529404355,0.6367083630968049
17.400999999998284,0.22702271653713937,0.6033239939478585
17.60099999999853,0.2413329677626729,0.565330455854222
17.800999999998773,0.23573712613086686,0.5259251999403105
18.000999999999017,0.21853120963954528,0.48665283802283293
18.20099999999926,0.19234193477774206,0.442557590656608
18.400999999999506,0.1625192994168339,0.4017877795472074
18.60099999999975,0.1257452494455662,0.3571065911852623
18.799999999999994,0.08103034338659572,0.30800357578436705
19.000000000000238,0.0321970477102843,0.25695825713746856
19.200000000000482,-0.014808246139665346,0.21155446981418086
19.400000000000727,-0.06877145246675459,0.1824257585905022
19.60000000000097,-0.12767160538642808,0.16283535304659716
19.800000000001216,-0.19279094761578677,0.16574924751302175
20.00000000000146,-0.26914408084250935,0.19100597010682974
