Time (s),X (m),Y (m)
0.001,-0.0005118051130574269,0.0004359202765531096
0.20000000000000015,0.000786244698098184,-9.569373699529457e-05
0.4000000000000003,0.0014436571815129259,-0.0003338918912426979
0.6000000000000004,0.002359728299860337,-0.0008752930203735563
0.8000000000000006,0.0031502248355578413,-0.0013423928864028534
1.0000000000000007,0.0025664937165589896,-0.000549732776858216
1.2009999999999785,0.003873673537379579,-0.0008971123747863531
1.4009999999999565,0.004140309589407865,-0.0006665310512082268
1.6009999999999345,0.004651485228732439,-0.00047055383439390837
1.8009999999999124,0.006011387458594967,-0.0007796299472627123
2.0009999999998906,0.009225182388714628,-0.0028305810711863884
2.2009999999998686,0.011489760717767378,-0.004151587147279554
2.4009999999998466,0.014954778749004234,-0.006049165327915498
2.6009999999998246,0.01749600885927421,-0.007533113037235732
2.8009999999998025,0.019901726512656728,-0.008780248726461364
3.0009999999997805,0.022319529013164936,-0.010135792498502326
3.2009999999997585,0.02436031616689332,-0.011327838379936566
3.4009999999997365,0.02667177239823936,-0.012347643683870427
3.6009999999997144,0.02927675569376429,-0.013451511466056392
3.8009999999996924,0.03186947482410437,-0.014340101822853528
4.000999999999671,0.03441531721886298,-0.015212332076177509
4.200999999999738,0.03677087134910454,-0.015986060668619323
4.400999999999804,0.03936543331890205,-0.016751151258383164
4.600999999999871,0.04211737725385771,-0.017400145256855494
4.800999999999938,0.04456428715051666,-0.017941483566416047
5.000000000000004,0.047554309543600966,-0.01827188664087888
5.200000000000071,0.050149975723758164,-0.018456370089750603
5.400000000000138,0.05276832650470138,-0.018400934889113707
5.600000000000205,0.055473371351027395,-0.017902446336169765
5.800000000000272,0.058892696466754046,-0.01731386380572526
6.000000000000338,0.06209032301946858,-0.016364500727061696
6.200000000000405,0.0651670919168254,-0.014826156453516953
6.400000000000472,0.06843175155331455,-0.013240202593330943
6.600000000000539,0.07107181598259259,-0.01106376196351945
6.800000000000606,0.07409175397769975,-0.008759749292484633
7.000000000000672,0.07673227781274847,-0.005992814361214084
7.200000000000739,0.07915939785725191,-0.0031791113406896467
7.400000000000806,0.08173762035194254,-0.00023150394615346765
7.600000000000873,0.08442204271811929,0.0026871627903199556
7.8000000000009395,0.08787425687160101,0.006156943002745089
8.000000000001005,0.0901645721976326,0.009677620087284568
8.200000000000895,0.09332650492354667,0.01348052647783812
8.400000000000784,0.09667581458848334,0.017348555231813115
8.600000000000673,0.10032599140884127,0.02153845321294645
8.800000000000562,0.10385026818303579,0.025627144205000656
9.000000000000451,0.1070940905696822,0.029969106421965114
9.20000000000034,0.1098780756500232,0.034561166361607394
9.40000000000023,0.1132016102430947,0.039230249224294925
9.600000000000119,0.11651947224251882,0.04366824942482474
9.800000000000008,0.11971072329460768,0.048323182431030925
10.000999999999896,0.12216967700388263,0.052921890039788526
10.200999999999786,0.12492954128745823,0.05768739819278683
10.400999999999675,0.12789379602158887,0.06194930806271574
10.600999999999564,0.13105783981926616,0.06669135410595732
10.800999999999453,0.13488491131596086,0.07213750492587674
11.000999999999342,0.13715199315804924,0.07861268473595406
11.200999999999231,0.14038464568242615,0.08489817370122
11.40099999999912,0.1437100125836179,0.08969772125516565
11.60099999999901,0.14767737768382777,0.0952799537094889
11.800999999998899,0.15218312895551522,0.10288996717421393
12.000999999998788,0.15542940289919777,0.10867009040243981
12.200999999998677,0.15885594172158138,0.11490135224884918
12.400999999998566,0.16135142112330678,0.12245482019475157
12.600999999998455,0.1642282975757344,0.12917099347798422
12.800999999998345,0.1672505563774931,0.1353168843213115
13.000999999998234,0.1699017180104238,0.14317083464611913
13.200999999998123,0.17229717882466034,0.1509475293197331
13.400999999998012,0.17520963433759168,0.15844155191544165
13.600999999997901,0.17795410496295233,0.16376109140626963
13.80099999999779,0.18149568350877573,0.17077811779436775
14.00099999999768,0.1841253731318083,0.17828785587861165
14.200999999997569,0.18627354860386552,0.18649388105600906
14.400999999997458,0.1883026270815579,0.19489430914138695
14.600999999997347,0.1900862031241632,0.2027419084420057
14.800999999997236,0.19200840127995458,0.21173442050773456
15.000999999997125,0.19365130092218488,0.21976264340335142
15.200999999997014,0.19485463689760643,0.22832470902788282
15.400999999996904,0.1965873026813873,0.23618097054586573
15.600999999996793,0.19736698384976828,0.24408298433743422
15.800999999996682,0.1979522950721762,0.2513339747187741
16.000999999996573,0.19813787121339438,0.2594514212909885
16.200999999996817,0.1982913688689819,0.2674340968252804
16.40099999999706,0.19859516541339817,0.2759213093970455
16.600999999997306,0.19882664164489108,0.28385251060797406
16.80099999999755,0.1978472251966875,0.2917216552086454
17.000999999997795,0.1972295702866479,0.2995178837447967
17.20099999999804,0.19553565997894945,0.307568479192274
17.400999999998284,0.194237683277792,0.31498657916055484
17.60099999999853,0.1918656965298731,0.3227950704617103
17.800999999998773,0.18973564759934422,0.32926490876049275
18.000999999999017,0.1872221797571853,0.3371957378362649
18.20099999999926,0.18417223364422008,0.34410825936290007
18.400999999999506,0.18030897987577216,0.3511883400289785
18.60099999999975,0.17665233067015962,0.35786210824189923
18.799999999999994,0.17291939699957531,0.36493375276262807
19.000000000000238,0.168599517271827,0.3715031193539417
19.200000000000482,0.1640661937032398,0.3788816229499055
19.400000000000727,0.159490525204096,0.3853756653352066
19.60000000000097,0.1539973612278027,0.3918139118066453
19.800000000001216,0.14870618326325383,0.39748213985405967
20.00000000000146,0.14269416938623933,0.40351819825259927
