Time (s),X (m),Y (m)
0.001,0.0013163127053841656,0.0005157376242541218
0.20000000000000015,0.0006661234216583953,-0.0002969818770209167
0.4000000000000003,-0.0018612655653480414,-0.00019415367983576553
0.6000000000000004,0.008585803787321416,0.003307680085568754
0.8000000000000006,0.028584628850667603,0.009396582241194083
1.0000000000000007,0.044051908774343874,0.011508588097771923
1.2009999999999785,0.05616596770752986,0.011596889433882134
1.4009999999999565,0.07118396065634748,0.00996867126102357
1.6009999999999345,0.09790026642009732,0.006108312362586565
1.8009999999999124,0.1234909186159353,-0.0017955109893201347
2.0009999999998906,0.14695444080753897,-0.013442161081638154
2.2009999999998686,0.172778829376315,-0.03207175567317916
2.4009999999998466,0.20346329665024512,-0.05785104004515819
2.6009999999998246,0.23513626707611435,-0.08870825890365787
2.8009999999998025,0.2706324649555871,-0.12496800329110448
3.0009999999997805,0.30102154922215674,-0.16212015401868451
3.2009999999997585,0.32837062308583626,-0.19584428735258552
3.4009999999997365,0.3635107742844953,-0.24493941047579088
3.6009999999997144,0.4002970432735945,-0.29175436161746343
3.8009999999996924,0.43793682634226566,-0.3358487119171813
4.000999999999671,0.48190666563108225,-0.38068804394161676
4.200999999999738,0.5284944302232734,-0.4159970159365556
4.400999999999804,0.5707401111854191,-0.4482079069307374
4.600999999999871,0.6108894524844107,-0.4843224999340184
4.800999999999938,0.6309931891455592,-0.5216814211271308
5.000000000000004,0.6501573167387656,-0.5614814803102713
5.200000000000071,0.6892355963698812,-0.6038803736070901
5.400000000000138,0.7377250354657426,-0.6501087142828168
5.600000000000205,0.7978337503803927,-0.702005326700197
5.800000000000272,0.8527930554311007,-0.755041687706092
6.000000000000338,0.9097243714500243,-0.8084625117417022
6.200000000000405,0.9651469248472434,-0.8608421199329872
6.400000000000472,1.022305624318021,-0.9149109558053833
6.600000000000539,1.0804346981738282,-0.9692245737278821
6.800000000000606,1.140622025291485,-1.0273507543804714
7.000000000000672,1.2005073909170056,-1.0884409407000024
7.200000000000739,1.2544519155522034,-1.1489899304954028
7.400000000000806,1.298483800391083,-1.2049293284723122
7.600000000000873,1.327014271987926,-1.2687950696141046
7.8000000000009395,1.3222054617671903,-1.3318703131339926
8.000000000001005,1.2956481382172413,-1.3758889736001907
8.200000000000895,1.2473799882871348,-1.428115369601872
8.400000000000784,1.197036498493538,-1.478346558244855
8.600000000000673,1.149550345458547,-1.5240405722411519
8.800000000000562,1.1026958014632742,-1.564907616707127
9.000000000000451,1.04885087024091,-1.6060010607059056
9.20000000000034,0.9909396800100971,-1.646405438930768
9.40000000000023,0.9270629043283413,-1.6966197993504573
9.600000000000119,0.8582240836401155,-1.7546778068161113
9.800000000000008,0.7916042533102053,-1.808798877286984
10.000999999999896,0.7364825179905496,-1.8518697656130338
10.200999999999786,0.6909638648048719,-1.891350918622072
10.400999999999675,0.6439804115528523,-1.9398926965150833
10.600999999999564,0.588193165209141,-1.9851630322342766
10.800999999999453,0.5320141425100215,-2.0390440078491716
11.000999999999342,0.47667446459306434,-2.0909954818348626
11.200999999999231,0.42213525044998346,-2.1514945366990728
11.40099999999912,0.3640602915421907,-2.2192617468848175
11.60099999999901,0.3032387266826724,-2.272585354608803
11.800999999998899,0.23510875935508652,-2.3296719512336947
12.000999999998788,0.16321086193198409,-2.3882739601186134
12.200999999998677,0.09337856834622209,-2.4502081342344755
12.400999999998566,0.021577949778603542,-2.5220150681186877
12.600999999998455,-0.05387074008946242,-2.5977122655857654
12.800999999998345,-0.13056174083680608,-2.6655497271292425
13.000999999998234,-0.21501749751412005,-2.7298337540348094
13.200999999998123,-0.3039266458385853,-2.7935251939942076
13.400999999998012,-0.39684427839424496,-2.8590413642303125
13.600999999997901,-0.48882964807085083,-2.919086201328215
13.80099999999779,-0.5764732662778443,-2.971642627270552
14.00099999999768,-0.6627177683571275,-3.0143317156841145
14.200999999997569,-0.7473233733098662,-3.0308257975097455
14.400999999997458,-0.8238749543741667,-3.012216893976645
14.600999999997347,-0.9016506554821077,-2.979450542012162
14.800999999997236,-0.9682573054508126,-2.9431490522712958
15.000999999997125,-1.0270740569537617,-2.9003799245006934
15.200999999997014,-1.0884812829538097,-2.8565705746233188
15.400999999996904,-1.1590853630954805,-2.8122886211038893
15.600999999996793,-1.2295623151848316,-2.758248137263919
15.800999999996682,-1.302169989445963,-2.692823100966149
16.000999999996573,-1.3617649360609818,-2.6299980792539643
16.200999999996817,-1.4207630454415388,-2.556973216415632
16.40099999999706,-1.4761606662153965,-2.485024298652357
16.600999999997306,-1.5112425506983138,-2.4141905009013387
16.80099999999755,-1.5077091715963866,-2.360793967852246
17.000999999997795,-1.4819665998550837,-2.3114417523243764
17.20099999999804,-1.4478492001289798,-2.2601195442317925
17.400999999998284,-1.4059425409789026,-2.2111507050588317
17.60099999999853,-1.3550216181032542,-2.163715469317562
17.800999999998773,-1.2910174125272744,-2.09195213452779
18.000999999999017,-1.2240232898521493,-2.0238811826460177
18.20099999999926,-1.1512354853202456,-1.9590845205923937
18.400999999999506,-1.0751766617293488,-1.8934607174670024
18.60099999999975,-1.0024142807159375,-1.8314809272818102
18.799999999999994,-0.9322728508439223,-1.7680607780495048
19.000000000000238,-0.8662023569361592,-1.6949257463025136
19.200000000000482,-0.8085683943946973,-1.6326746642739542
19.400000000000727,-0.7532604654878325,-1.5574630951768427
19.60000000000097,-0.6939610722699355,-1.4780910650804544
19.800000000001216,-0.6285687029174307,-1.4024493223899919
20.00000000000146,-0.5607501565941392,-1.3189719810559022
