Time (s),X (m),Y (m)
0.001,-0.00030633420604510037,-0.000729363142846258
0.20000000000000015,0.0006172179667846009,-0.0002687391128410576
0.4000000000000003,0.0016665624524185474,0.00031082243737123785
0.6000000000000004,0.0028418271560792115,0.0003235214770789618
0.8000000000000006,0.002902094781686707,-0.00038366620080243036
1.0000000000000007,0.005476048366417307,-0.0005781826555028807
1.2009999999999785,0.009394098870227541,0.0007319794798324643
1.4009999999999565,0.01403216093330224,0.001734098044348117
1.6009999999999345,0.017279121403929135,0.0041062174847669945
1.8009999999999124,0.021787215921361843,0.005816771380364819
2.0009999999998906,0.02556358549832251,0.008840225496217212
2.2009999999998686,0.030172453424947586,0.011505849211496989
2.4009999999998466,0.0342131776870992,0.01486635090766214
2.6009999999998246,0.03840747525730993,0.019117194950768704
2.8009999999998025,0.04193476357023333,0.01996944564958866
3.0009999999997805,0.045164242744143636,0.02358171433074903
3.2009999999997585,0.050677576781028785,0.028414491619412646
3.4009999999997365,0.055948507008314954,0.03224026913543996
3.6009999999997144,0.05996345647736853,0.03588394042133879
3.8009999999996924,0.06416566790241959,0.04075481687049459
4.000999999999671,0.06887648172038047,0.04511618012782118
4.200999999999738,0.07338519099886155,0.050022525740787915
4.400999999999804,0.0784323056494113,0.054075050785753545
4.600999999999871,0.08182360543653704,0.05954980651448717
4.800999999999938,0.08472017067104107,0.06357735243321123
5.000000000000004,0.08779051693494416,0.06768119741831585
5.200000000000071,0.09082235979749562,0.07288894675815831
5.400000000000138,0.09263146090989803,0.0777297328485783
5.600000000000205,0.09440848822342056,0.08241588844190881
5.800000000000272,0.09610898711465395,0.08664955726538479
6.000000000000338,0.09673941792046685,0.09272154879198861
6.200000000000405,0.09762167989229932,0.09850152510218031
6.400000000000472,0.09736372918203265,0.1056946561955924
6.600000000000539,0.09615987102030252,0.11217037667017671
6.800000000000606,0.0972496014948798,0.1170932277448933
7.000000000000672,0.09716870749143083,0.12486007976325914
7.200000000000739,0.09703628759853784,0.13098410188851264
7.400000000000806,0.09711497763286209,0.13686372495278576
7.600000000000873,0.09461521663540139,0.14465264407848383
7.8000000000009395,0.09417111449269416,0.15120441274585097
8.000000000001005,0.09389711699962786,0.15688352854310278
8.200000000000895,0.09208485073463288,0.164221236320849
8.400000000000784,0.0886423469389958,0.17334384219090362
8.600000000000673,0.08607764755148375,0.17988158825669934
8.800000000000562,0.08342619984174272,0.1867761193478129
9.000000000000451,0.07955931025524356,0.19402325596258693
9.20000000000034,0.07720832427115816,0.20040228392008105
9.40000000000023,0.07492672314914399,0.20658958005241077
9.600000000000119,0.07055333748401456,0.2139805020960946
9.800000000000008,0.06625170427442809,0.22154538015550052
10.000999999999896,0.06038868750656724,0.2284752845286685
10.200999999999786,0.056849277614071214,0.23496871391806293
10.400999999999675,0.05290402015807372,0.24176725008794692
10.600999999999564,0.04867280264591591,0.24879164075563961
10.800999999999453,0.042490414775216485,0.25546132792175624
11.000999999999342,0.03710499231005187,0.26159827253542556
11.200999999999231,0.030081448711773102,0.2684141972559792
11.40099999999912,0.025343765691688464,0.27400435228933734
11.60099999999901,0.018424521867532337,0.27785894172061437
11.800999999998899,0.011961333614785958,0.2822116334479701
12.000999999998788,0.0071005119822199775,0.2865401735106888
12.200999999998677,0.0005407975064168119,0.28973240353741864
12.400999999998566,-0.0070147013087799815,0.29333777209762263
12.600999999998455,-0.01292890890735339,0.2954962634684754
12.800999999998345,-0.019771362226446088,0.2974585967426886
13.000999999998234,-0.02734497504943429,0.29851187169727716
13.200999999998123,-0.03266137787544134,0.3007356558671556
13.400999999998012,-0.040459191999378266,0.3012692773287613
13.600999999997901,-0.048414772938403905,0.301591367199615
13.80099999999779,-0.0566195068193816,0.30151820747918784
14.00099999999768,-0.06297870946844498,0.3023625303208576
14.200999999997569,-0.06927947754390996,0.30462141175869933
14.400999999997458,-0.07654531699299495,0.30345187154922726
14.600999999997347,-0.08371350827979974,0.30266348112687763
14.800999999997236,-0.09091126725015766,0.3002142347681456
15.000999999997125,-0.09735821956724848,0.29965882076913597
15.200999999997014,-0.10470905822904372,0.29772960194536696
15.400999999996904,-0.11169138383154213,0.29611487522370294
15.600999999996793,-0.12011621892293207,0.29188055380686745
15.800999999996682,-0.12814056669691193,0.28775684163743126
16.000999999996573,-0.13550810128455237,0.2849557253255425
16.200999999996817,-0.1432991210974883,0.2810250454166489
16.40099999999706,-0.15206173570632936,0.27514665104382086
16.600999999997306,-0.159447801019963,0.27083860217480826
16.80099999999755,-0.1665205389795244,0.26770954669265123
17.000999999997795,-0.17340524137325714,0.2642210072414059
17.20099999999804,-0.18180911915497203,0.2577420969104521
17.400999999998284,-0.18860831785856944,0.2529880194373866
17.60099999999853,-0.195415909656521,0.24640152458115688
17.800999999998773,-0.2020741334683271,0.24014294795553962
18.000999999999017,-0.20754032024553007,0.23521627234533043
18.20099999999926,-0.21212826109954058,0.22849464390451113
18.400999999999506,-0.21641160690623568,0.22405309317755745
18.60099999999975,-0.22011102128967577,0.21643228767234496
18.799999999999994,-0.22382060206513787,0.20927965958715544
19.000000000000238,-0.2265021763677783,0.20172871918594318
19.200000000000482,-0.22913976070295958,0.19412850525273492
19.400000000000727,-0.2315245489136896,0.18741665853738618
19.60000000000097,-0.2324251846072016,0.17814503496223957
19.800000000001216,-0.23316037624445807,0.1695354500085218
20.00000000000146,-0.2337769596168982,0.16117856876156855
