Time (s),X (m),Y (m)
0.001,-0.0005462407427453492,-0.00035278531233166996
0.20000000000000015,0.0006875817449936702,-0.00011315399260730472
0.4000000000000003,0.0012936812159295367,-3.743327845459935e-05
0.6000000000000004,0.002372261873976063,0.0004248316202848898
0.8000000000000006,0.0035634112804290396,0.0011318007134119455
1.0000000000000007,0.004856866389309068,0.001952204887027207
1.2009999999999785,0.006440454714643927,0.002896265612616457
1.4009999999999565,0.007886981267432158,0.003747872198192583
1.6009999999999345,0.009289590588847525,0.004575690700412364
1.8009999999999124,0.010747145210158102,0.005454306787735486
2.0009999999998906,0.01231669245945905,0.006419621470716017
2.2009999999998686,0.013980213477747507,0.007458521624835331
2.4009999999998466,0.015701080543129003,0.008550940206378607
2.6009999999998246,0.017441246748681857,0.009668504471166836
2.8009999999998025,0.019212942494954453,0.01082039479089686
3.0009999999997805,0.021011178593664716,0.012004296614824099
3.2009999999997585,0.022847898633369505,0.013230604241940887
3.4009999999997365,0.024725709239326203,0.014498938180499582
3.6009999999997144,0.026642557396924647,0.01580971535152482
3.8009999999996924,0.028594885442378808,0.017159575034738642
4.000999999999671,0.030578952323040996,0.018545110395969563
4.200999999999738,0.03259283087223257,0.01996575166647425
4.400999999999804,0.03463578304512295,0.021422779493278803
4.600999999999871,0.03672773924919425,0.022903194926546338
4.800999999999938,0.03887353423554662,0.024455264561451133
5.000000000000004,0.04102437743352212,0.026050728675701833
5.200000000000071,0.043311925917590595,0.0276578474652837
5.400000000000138,0.045629568180891665,0.029372186201776826
5.600000000000205,0.04804719289564493,0.031136511475871424
5.800000000000272,0.05036938906699528,0.03288672502941018
6.000000000000338,0.05274020725963351,0.0347125422295795
6.200000000000405,0.05527821827920874,0.036628169904703585
6.400000000000472,0.057692338055635305,0.03853817522769346
6.600000000000539,0.060055829230066624,0.040484140803479694
6.800000000000606,0.06235579623859207,0.0424414111414851
7.000000000000672,0.06463920224161519,0.044428856706780484
7.200000000000739,0.0669102829431459,0.04644660720784406
7.400000000000806,0.0693573939902981,0.04860610553308724
7.600000000000873,0.07177753017920592,0.0507776710155305
7.8000000000009395,0.07408468620195892,0.052932132006671864
8.000000000001005,0.07639684303383805,0.05514351179592479
8.200000000000895,0.07869075379659271,0.05738291329737554
8.400000000000784,0.08096572818157827,0.05964922662964382
8.600000000000673,0.08322834364694544,0.06194614657628268
8.800000000000562,0.08548406191024695,0.06427663964218576
9.000000000000451,0.08773442728890504,0.06664181833039788
9.20000000000034,0.08999008389731801,0.0690457111636884
9.40000000000023,0.09225041501615791,0.07150463863127834
9.600000000000119,0.09450745556169943,0.0740057854838901
9.800000000000008,0.09674914291565721,0.07653895819710094
10.000999999999896,0.09899687668384355,0.07912774398522021
10.200999999999786,0.10120756041403335,0.08172151595424615
10.400999999999675,0.10340432595764107,0.08434736624194601
10.600999999999564,0.1055866558625426,0.08700508979842922
10.800999999999453,0.10774234939460607,0.08967147305633098
11.000999999999342,0.10978300850224297,0.09230435679238376
11.200999999999231,0.11177516666419957,0.09490691412414211
11.40099999999912,0.11376314780521553,0.09756045654655701
11.60099999999901,0.11572359966459128,0.10021549981718829
11.800999999998899,0.11768956426434433,0.10295001388862866
12.000999999998788,0.1194982518161834,0.10552895929858516
12.200999999998677,0.12130625053140882,0.10816276583337897
12.400999999998566,0.12309696656835424,0.1108179426902113
12.600999999998455,0.12487207598313046,0.11349469459769457
12.800999999998345,0.12663361651657376,0.1161982384155677
13.000999999998234,0.12838187829713804,0.11893297409608095
13.200999999998123,0.13011491267177583,0.1216990698813406
13.400999999998012,0.13182964061980143,0.12449311762148728
13.600999999997901,0.1335240689574745,0.1273081014054972
13.80099999999779,0.13519636800856227,0.13014291446610077
14.00099999999768,0.13684509641820175,0.13299794367060874
14.200999999997569,0.13846860299852493,0.13587368035803155
14.400999999997458,0.1400625512068462,0.1387686468745563
14.600999999997347,0.1416234648883531,0.14168034870942706
14.800999999997236,0.14314687628172623,0.14460685424741823
15.000999999997125,0.14461785035115346,0.14752275211847438
15.200999999997014,0.14597953248194157,0.15034620157621503
15.400999999996904,0.14727283206464292,0.15311737795921165
15.600999999996793,0.14856575365987862,0.15597693752817918
15.800999999996682,0.1497435275299918,0.1587659112822386
16.000999999996573,0.15086865405267105,0.16145871744925722
16.200999999996817,0.15195284790781352,0.16427110582510507
16.40099999999706,0.15305834943428667,0.16732579370729314
16.600999999997306,0.1540079124970102,0.17011226512685748
16.80099999999755,0.15488099633178476,0.17288341087951709
17.000999999997795,0.15569037028211227,0.17565485763702415
17.20099999999804,0.15642820681579586,0.17843083349789868
17.400999999998284,0.15709628440855833,0.18122276480170604
17.60099999999853,0.15770343169932716,0.18404101469193368
17.800999999998773,0.15824857479579973,0.18689185268369568
18.000999999999017,0.15872408668590196,0.18977621056215224
18.20099999999926,0.15912800812807154,0.19268940327356038
18.400999999999506,0.15945910863215812,0.1956272981084541
18.60099999999975,0.15971766828199122,0.1985884793106846
18.799999999999994,0.15990661628242053,0.20154269176345863
19.000000000000238,0.16002996985794002,0.2045522306949353
19.200000000000482,0.1600848267090913,0.20758824209878182
19.400000000000727,0.16007112033194668,0.21065311502206796
19.60000000000097,0.15998802634913745,0.21374557003073943
19.800000000001216,0.15983680799504624,0.21686713781946565
20.00000000000146,0.1596188859181032,0.22003671365294153
