Time (s),X (m),Y (m)
0.001,0.00015606349793537,-0.0009963285817120471
0.20000000000000015,0.0017075889264744962,0.0010058288039125755
0.4000000000000003,0.0060155308348908065,-0.001747808171639377
0.6000000000000004,0.014743033006520913,-0.01242109462854053
0.8000000000000006,0.03698160117319405,-0.018124842343493687
1.0000000000000007,0.053951054818496436,-0.025087991022939998
1.2009999999999785,0.07908113098466905,-0.03022414452523147
1.4009999999999565,0.10594132686614188,-0.03820657979715024
1.6009999999999345,0.11617074969139142,-0.05036232081949009
1.8009999999999124,0.11785077396416385,-0.06044418969127654
2.0009999999998906,0.12208757626738508,-0.07498103858442023
2.2009999999998686,0.12910048634716093,-0.10072371200584991
2.4009999999998466,0.12953347378521743,-0.1312026524753088
2.6009999999998246,0.12550489597764292,-0.14949395494819878
2.8009999999998025,0.10900057978648031,-0.1638580838172296
3.0009999999997805,0.08566425707081579,-0.18508634369547664
3.2009999999997585,0.05645881296991546,-0.2117410557337432
3.4009999999997365,0.021596753941074003,-0.2436696852710793
3.6009999999997144,-0.019380254162097207,-0.2703409807814986
3.8009999999996924,-0.06913232733658072,-0.29885802903743963
4.000999999999671,-0.10432350819438312,-0.30844126280731476
4.200999999999738,-0.14362044158507487,-0.31387835643020107
4.400999999999804,-0.17245683619915006,-0.3152034803136336
4.600999999999871,-0.1940881394021898,-0.31099885594007776
4.800999999999938,-0.20942026386488527,-0.29809765648659714
5.000000000000004,-0.23379640298250032,-0.26885375279016266
5.200000000000071,-0.2733099928620641,-0.23324609092017887
5.400000000000138,-0.306838572049932,-0.19387986778762611
5.600000000000205,-0.33358188355558993,-0.1492097674545027
5.800000000000272,-0.35370813161930165,-0.10041359062334558
6.000000000000338,-0.3608536722331309,-0.06823418139221171
6.200000000000405,-0.3516093597834847,-0.04852847478158218
6.400000000000472,-0.32638772061838756,-0.025410822411431853
6.600000000000539,-0.2921798535830267,-0.0027699665962822966
6.800000000000606,-0.25249470638891125,0.01608124296738206
7.000000000000672,-0.21777193285091498,0.03232051525142057
7.200000000000739,-0.183779607521982,0.029411169563871218
7.400000000000806,-0.15766036583073942,0.00875266783677648
7.600000000000873,-0.1427896943210954,-0.018033062874024317
7.8000000000009395,-0.1325533959506656,-0.046405314092882545
8.000000000001005,-0.1361566656924322,-0.0727818822897602
8.200000000000895,-0.15676357404983438,-0.09069174056642507
8.400000000000784,-0.1830989798651763,-0.12919555168641503
8.600000000000673,-0.22560994182990607,-0.18165203369067415
8.800000000000562,-0.27709344678949044,-0.23315069686570758
9.000000000000451,-0.31929843944229375,-0.2491953774643121
9.20000000000034,-0.3681888145672483,-0.2642639534118204
9.40000000000023,-0.4151111956259327,-0.27441927662546794
9.600000000000119,-0.45150069868194387,-0.2720139186956314
9.800000000000008,-0.5103455840693397,-0.26871055634406193
10.000999999999896,-0.5646384801092,-0.2600868064427653
10.200999999999786,-0.6128387959053496,-0.24373097663505358
10.400999999999675,-0.6539438087955188,-0.22265411819737083
10.600999999999564,-0.6754866438005444,-0.19025735408461794
10.800999999999453,-0.6896514645652909,-0.15144824228126247
11.000999999999342,-0.7034530506163191,-0.10586196803364212
11.200999999999231,-0.7153356231444943,-0.060211845624810904
11.40099999999912,-0.7226525040653953,-0.013746599220808783
11.60099999999901,-0.7216306626138494,0.009312111472561961
11.800999999998899,-0.7047512164736757,0.02568670428761347
12.000999999998788,-0.679733756064581,0.03349677150245864
12.200999999998677,-0.6386158980449378,0.02770962230208916
12.400999999998566,-0.6158799680720091,0.009501462284277847
12.600999999998455,-0.6021548811560498,-0.018447970508621184
12.800999999998345,-0.583372340759432,-0.0577747766048211
13.000999999998234,-0.5724354277043759,-0.09416061035400888
13.200999999998123,-0.5660990070595242,-0.13411655232807385
13.400999999998012,-0.5557312804724794,-0.18098110067664597
13.600999999997901,-0.5404546312726597,-0.22995824917517452
13.80099999999779,-0.5384310343803926,-0.2768966310151273
14.00099999999768,-0.5561766134075756,-0.32240714605489273
14.200999999997569,-0.5881208296282887,-0.35931328575809124
14.400999999997458,-0.6386792104535943,-0.38445410389092965
14.600999999997347,-0.699080753571646,-0.4007172639121217
14.800999999997236,-0.7677056971431697,-0.40231045651481584
15.000999999997125,-0.8165956387340817,-0.37061692629367016
15.200999999997014,-0.8567062299542663,-0.3250885837614237
15.400999999996904,-0.8815846040284444,-0.27342491667142144
15.600999999996793,-0.8926438580974976,-0.23457507593927568
15.800999999996682,-0.8746925649241739,-0.20833778198988362
16.000999999996573,-0.8464275662202624,-0.19684252146603498
16.200999999996817,-0.8183494106130843,-0.19337536930670252
16.40099999999706,-0.787905024904549,-0.19649533344692446
16.600999999997306,-0.7515918239821133,-0.2059839987797636
16.80099999999755,-0.7117178970214587,-0.2256138327698966
17.000999999997795,-0.6894183599217661,-0.2531911613678314
17.20099999999804,-0.6724203383994131,-0.29285635597746545
17.400999999998284,-0.6622775829981203,-0.35089267243409183
17.60099999999853,-0.6555222709741607,-0.4097443000585788
17.800999999998773,-0.6447517001850046,-0.46669349704654184
18.000999999999017,-0.6437140343626945,-0.5098589267318765
18.20099999999926,-0.6600008116208698,-0.5400850883828681
18.400999999999506,-0.7027145819135304,-0.5742046838392756
18.60099999999975,-0.7575262880886469,-0.6077633223024749
18.799999999999994,-0.8114507961856781,-0.6294822356190934
19.000000000000238,-0.8657705813956154,-0.6475853618651178
19.200000000000482,-0.9157144434785834,-0.6579288787353653
19.400000000000727,-0.9607660086532854,-0.6600393038819121
19.60000000000097,-1.0156198267056202,-0.6484893248873775
19.800000000001216,-1.0584635372001616,-0.6212995631954548
20.00000000000146,-1.0856173086102419,-0.5743637704594537
