Time (s),X (m),Y (m)
0.001,-0.00042190612164786544,-0.0005916298972236683
0.20000000000000015,0.002374983814784559,0.0014492274300096472
0.4000000000000003,0.000978839669422344,0.0023954339959755926
0.6000000000000004,0.0030846842052267755,0.002290462411280448
0.8000000000000006,0.01289533928798332,0.004401767917274637
1.0000000000000007,0.021966876395874878,0.006712475852571199
1.2009999999999785,0.026583189849048856,0.007351435474300672
1.4009999999999565,0.024725095399471462,0.007439241452988689
1.6009999999999345,0.021040090242453898,0.008192779202384202
1.8009999999999124,0.029887327392851028,0.008209097947757243
2.0009999999998906,0.03058135494374127,0.005314430628197535
2.2009999999998686,0.03357519617578194,0.002777642087056701
2.4009999999998466,0.044948854831112536,-4.7567650080048834e-05
2.6009999999998246,0.049299118246891954,-0.006917691387492242
2.8009999999998025,0.05615320887855315,-0.014778866796605948
3.0009999999997805,0.07542809308146937,-0.021070533446206265
3.2009999999997585,0.08265059395571811,-0.02822318880383657
3.4009999999997365,0.09163459089661156,-0.03926008933601646
3.6009999999997144,0.10366548791310017,-0.05358053266199001
3.8009999999996924,0.11895988983107325,-0.07233933006251143
4.000999999999671,0.14808624767050643,-0.08795595470448522
4.200999999999738,0.18331044995422796,-0.10875343776432819
4.400999999999804,0.2087656768130356,-0.13601658379066314
4.600999999999871,0.231216861763757,-0.16978255929835367
4.800999999999938,0.2563463264526465,-0.2087390338769592
5.000000000000004,0.28151807634321624,-0.2483537843721554
5.200000000000071,0.3046013665017818,-0.2842967766484811
5.400000000000138,0.33592333774966693,-0.3234052448103167
5.600000000000205,0.3777338214239621,-0.37101881263310904
5.800000000000272,0.41974067947156274,-0.4269631941055879
6.000000000000338,0.4565020050734877,-0.475112592671034
6.200000000000405,0.4929769005249369,-0.5262579905748421
6.400000000000472,0.5203941977738421,-0.5684602557418736
6.600000000000539,0.5195662189335761,-0.6102969342619703
6.800000000000606,0.4994897744970239,-0.6414950727884671
7.000000000000672,0.47020522230132367,-0.669723924931507
7.200000000000739,0.43130634472662965,-0.7012126988100602
7.400000000000806,0.38812451543849935,-0.7299712595258678
7.600000000000873,0.33835533588268,-0.7583775793877211
7.8000000000009395,0.28610793929471845,-0.7813256740283844
8.000000000001005,0.21400724092817053,-0.7987672985237408
8.200000000000895,0.14583798641766837,-0.8166690995792314
8.400000000000784,0.08286880315313618,-0.8347218355722086
8.600000000000673,0.024182473296142707,-0.8495997698742846
8.800000000000562,-0.028590015055499622,-0.8587110481722625
9.000000000000451,-0.08233240218953183,-0.8592733514305895
9.20000000000034,-0.1272360856586162,-0.8517984041559524
9.40000000000023,-0.18115303573267594,-0.8308489487673915
9.600000000000119,-0.23734913648100667,-0.7942650492523795
9.800000000000008,-0.2883096352952653,-0.7460204222884032
10.000999999999896,-0.3356208390256467,-0.6930896016933984
10.200999999999786,-0.3726481930080987,-0.641659821980177
10.400999999999675,-0.40012032976116074,-0.5896268762794896
10.600999999999564,-0.4470707525438878,-0.5305784914589885
10.800999999999453,-0.5012010547627684,-0.4700755822345321
11.000999999999342,-0.5564156021385132,-0.40931740348847917
11.200999999999231,-0.6232098243293839,-0.35529463343501966
11.40099999999912,-0.6900731646348212,-0.3086650699535693
11.60099999999901,-0.7412021738113114,-0.26463755411518936
11.800999999998899,-0.7839741233320939,-0.21688727191763382
12.000999999998788,-0.8199802629782024,-0.16380300297320616
12.200999999998677,-0.8574449522825889,-0.11018104150801014
12.400999999998566,-0.9112682606475884,-0.05934463513233603
12.600999999998455,-0.9774359050668708,-0.006246031346123795
12.800999999998345,-1.0466149667085503,0.05127730923535409
13.000999999998234,-1.1222476441043223,0.10679415194206758
13.200999999998123,-1.193146934803865,0.16977638612135126
13.400999999998012,-1.2534308469791497,0.2326246879271693
13.600999999997901,-1.3193305054341788,0.28460014525932664
13.80099999999779,-1.3863286943954547,0.3222804234872793
14.00099999999768,-1.4459779032937168,0.34303188193327777
14.200999999997569,-1.5095329671041993,0.3447943869752638
14.400999999997458,-1.5734396318710366,0.33661173668732824
14.600999999997347,-1.6426380270301602,0.31857900498637093
14.800999999997236,-1.7185492487828475,0.2916417833273319
15.000999999997125,-1.7842991153078644,0.2676394542282275
15.200999999997014,-1.8412851844230809,0.2519892464152663
15.400999999996904,-1.905495030741815,0.2567405930850877
15.600999999996793,-1.9742877475426623,0.2748665905677747
15.800999999996682,-2.0314692605422944,0.29954304690581574
16.000999999996573,-2.088331585438796,0.33406719414806263
16.200999999996817,-2.1375573114467934,0.3770207650254795
16.40099999999706,-2.192720116394023,0.4271211553768765
16.600999999997306,-2.2539592908205894,0.48677130091777693
16.80099999999755,-2.3106093084692394,0.5525179242699787
17.000999999997795,-2.3714777215355705,0.6251547186711146
17.20099999999804,-2.4420262327003126,0.7051864950421128
17.400999999998284,-2.4942948906787885,0.781621606897705
17.60099999999853,-2.5471065268339252,0.8553525825959686
17.800999999998773,-2.609080575810708,0.9287367324559591
18.000999999999017,-2.6783647937231922,1.0049867572965747
18.20099999999926,-2.741258814325485,1.081392512459774
18.400999999999506,-2.800763446473548,1.1576395377911068
18.60099999999975,-2.866215515726353,1.2350096258908654
18.799999999999994,-2.93097941584422,1.3090870855634937
19.000000000000238,-2.993327313713211,1.3865118277553736
19.200000000000482,-3.0535373964991273,1.4664075521119784
19.400000000000727,-3.1174654585782346,1.5469472618044944
19.60000000000097,-3.191292836689624,1.6284234096774939
19.800000000001216,-3.2681636931303535,1.695147689206846
20.00000000000146,-3.346355867817313,1.7483936253394714
