Time (s),X (m),Y (m)
0.001,0.00015606349793537,0.0009963285817120476
0.20000000000000015,0.0010540530519832796,-0.0010037029902445344
0.4000000000000003,0.0027154611156943926,-0.0044931659022358125
0.6000000000000004,0.004896926524803505,-0.00653130339962542
0.8000000000000006,0.009216124051057486,-0.01039106134841183
1.0000000000000007,0.016490944575816836,-0.015662668293647684
1.2009999999999785,0.022494555033771176,-0.02960429102700902
1.4009999999999565,0.02897058990672682,-0.037232335432892075
1.6009999999999345,0.040737130304369526,-0.0473767621990249
1.8009999999999124,0.05339683380830495,-0.053524283547266245
2.0009999999998906,0.06849684445451858,-0.062183861849988746
2.2009999999998686,0.08372159950884302,-0.06476690729116735
2.4009999999998466,0.09824653218009442,-0.06145727351520657
2.6009999999998246,0.11420704369747639,-0.05989101134691854
2.8009999999998025,0.12866301434705404,-0.058298883243873056
3.0009999999997805,0.14253087896724514,-0.07067796311764078
3.2009999999997585,0.15407585141787222,-0.07683562435048706
3.4009999999997365,0.16644396405141187,-0.07822901746933471
3.6009999999997144,0.18082730768800448,-0.07621382807998699
3.8009999999996924,0.19253020771985485,-0.0810635071226303
4.000999999999671,0.20518491871666605,-0.09012646952547883
4.200999999999738,0.22172013200739887,-0.09415586516152885
4.400999999999804,0.23282150385556485,-0.09934139248564508
4.600999999999871,0.24587549933510675,-0.10292192289990346
4.800999999999938,0.2604714486000892,-0.10179198736837432
5.000000000000004,0.2777314944286114,-0.09616905204056271
5.200000000000071,0.29542959206858943,-0.08862398239927591
5.400000000000138,0.3099119918106819,-0.09875267227662268
5.600000000000205,0.3257337013247501,-0.10505285424729405
5.800000000000272,0.34117746599048066,-0.09240328513980059
6.000000000000338,0.36197522141685995,-0.0818875587298219
6.200000000000405,0.38144106811214834,-0.08496301936520255
6.400000000000472,0.40429123092543223,-0.08409240445696352
6.600000000000539,0.4264875567283581,-0.08756749180618846
6.800000000000606,0.44683238032563916,-0.08400437318156857
7.000000000000672,0.46538344964364825,-0.08590198946869455
7.200000000000739,0.4842976021659737,-0.091627319460909
7.400000000000806,0.504388872343431,-0.081845804143736
7.600000000000873,0.5217863525557908,-0.07490068134504412
7.8000000000009395,0.5422127985864363,-0.07905214483830116
8.000000000001005,0.5652519869493593,-0.07743649228919003
8.200000000000895,0.5860488587096198,-0.08431961391402677
8.400000000000784,0.6093734341025605,-0.08505364497949175
8.600000000000673,0.6316570268571341,-0.08817939243713727
8.800000000000562,0.6481842206335384,-0.0981410920123878
9.000000000000451,0.6647519520894449,-0.10891552427774623
9.20000000000034,0.680638637887138,-0.12163044319737003
9.40000000000023,0.6948837123219955,-0.1267478342471528
9.600000000000119,0.7102407720774893,-0.13428115578275643
9.800000000000008,0.7284118195729429,-0.13979011044756917
10.000999999999896,0.7517495060228143,-0.13053139299639605
10.200999999999786,0.775092091324561,-0.1327493273482267
10.400999999999675,0.7887752848572481,-0.14954520634434668
10.600999999999564,0.8049036460276948,-0.1551368426510699
10.800999999999453,0.8230416855371591,-0.1613606281695681
11.000999999999342,0.842605413243361,-0.16600312519510677
11.200999999999231,0.8628956212166976,-0.1779922385480034
11.40099999999912,0.8797430164864458,-0.18685113591929461
11.60099999999901,0.888800856223465,-0.1883150143070355
11.800999999998899,0.8979991645168991,-0.19511075284407411
12.000999999998788,0.9128109278610353,-0.19550784921687653
12.200999999998677,0.9261029794671799,-0.19861249081789453
12.400999999998566,0.9428783662250123,-0.20541324616072573
12.600999999998455,0.954988874726908,-0.21575492510837543
12.800999999998345,0.9694362860917575,-0.22255953174126603
13.000999999998234,0.9858052521558882,-0.22621173040994047
13.200999999998123,1.0087491379882862,-0.22432692115878441
13.400999999998012,1.0314798989269511,-0.22098816261800422
13.600999999997901,1.045367726951737,-0.23126158201127545
13.80099999999779,1.0588726294138338,-0.23926970051391838
14.00099999999768,1.077146551330712,-0.2573176605182211
14.200999999997569,1.0990372343648622,-0.26727048562020134
14.400999999997458,1.1212393209940568,-0.2636094907657153
14.600999999997347,1.140539839969424,-0.2576428854301128
14.800999999997236,1.163629111602673,-0.2572527615501592
15.000999999997125,1.1818383829640169,-0.26595763773276976
15.200999999997014,1.2034965805420357,-0.2710310066912326
15.400999999996904,1.2268269599941775,-0.26931569561801333
15.600999999996793,1.250294305201371,-0.26227447591359065
15.800999999996682,1.2694133430986696,-0.26151080216838973
16.000999999996573,1.285697466531266,-0.2635984854915548
16.200999999996817,1.3027364494410723,-0.2719942777842172
16.40099999999706,1.3235013311692179,-0.274929094921595
16.600999999997306,1.3408932341983892,-0.27305824935187456
16.80099999999755,1.3609821535422804,-0.2709973662658166
17.000999999997795,1.3783371899097618,-0.28371931985089105
17.20099999999804,1.3982255448726713,-0.29704663277563365
17.400999999998284,1.4185368296732344,-0.2994708463314471
17.60099999999853,1.4370218516996631,-0.29683309914752465
17.800999999998773,1.4521829826719408,-0.30155380839540735
18.000999999999017,1.4657407271107643,-0.3184115775514167
18.20099999999926,1.4834109208869253,-0.3250029380423947
18.400999999999506,1.5031837814948468,-0.3236800320971471
18.60099999999975,1.522213955234252,-0.33572186321975217
18.799999999999994,1.5416958278375932,-0.34078133127399274
19.000000000000238,1.5611411217788065,-0.35066619279411343
19.200000000000482,1.5825375887457016,-0.35867883991453686
19.400000000000727,1.603914420312418,-0.3605914799438989
19.60000000000097,1.6243081441002276,-0.3653312820158322
19.800000000001216,1.646338235067442,-0.3734203844000319
20.00000000000146,1.6597803573117813,-0.385140462656308
