Time (s),X (m),Y (m)
0.001,-0.0005732996449108882,0.0002669654388657892
0.20000000000000015,0.0012654793347801475,-0.00028607923826068143
0.4000000000000003,0.0021753945741592937,0.0002732575248122688
0.6000000000000004,0.0054862025645960304,-0.002052537881889468
0.8000000000000006,0.011567122079625293,-0.007996722851908885
1.0000000000000007,0.0167801688383489,-0.010832218744398435
1.2009999999999785,0.028724442906063095,-0.01630329413109615
1.4009999999999565,0.03609326827630703,-0.01664688833570027
1.6009999999999345,0.04706845505352186,-0.019386608024152725
1.8009999999999124,0.0522463249216734,-0.019818994517770472
2.0009999999998906,0.05580233003819348,-0.019104944715400418
2.2009999999998686,0.05680422980536767,-0.016987671833202274
2.4009999999998466,0.062576020023378,-0.024308477710966492
2.6009999999998246,0.08143065736926501,-0.03234953149010988
2.8009999999998025,0.1038355313353044,-0.04318385631241267
3.0009999999997805,0.12044788508151337,-0.053077816102550246
3.2009999999997585,0.13646505299974301,-0.057727280122559656
3.4009999999997365,0.15600864211517798,-0.06974906795597036
3.6009999999997144,0.1665576663676645,-0.07391452904098329
3.8009999999996924,0.17464495749511907,-0.07606579223223058
4.000999999999671,0.1886870972620654,-0.07774631147510544
4.200999999999738,0.2110397360585156,-0.08541238398634717
4.400999999999804,0.24087746256226936,-0.09354456978359989
4.600999999999871,0.27272769172688005,-0.10919244427148357
4.800999999999938,0.30670098224447256,-0.13127721986880878
5.000000000000004,0.3323652151335833,-0.1447238680820323
5.200000000000071,0.3561429015379369,-0.16576536754791354
5.400000000000138,0.374926183916152,-0.1750463513234483
5.600000000000205,0.39319142549143077,-0.18411064262311436
5.800000000000272,0.41340141559516935,-0.20125925661477354
6.000000000000338,0.4314627356785235,-0.21308974228552122
6.200000000000405,0.447323116977401,-0.22536136396531206
6.400000000000472,0.4644625512932741,-0.24734624138417438
6.600000000000539,0.47844720898796955,-0.2753790952757243
6.800000000000606,0.4893785921190625,-0.30215490418493984
7.000000000000672,0.4907525842002711,-0.3267197005295568
7.200000000000739,0.48897609911651274,-0.3585543555084722
7.400000000000806,0.48488732222295183,-0.39056844131905616
7.600000000000873,0.47924603750284395,-0.4178023349419439
7.8000000000009395,0.4695611373190242,-0.43763037940381144
8.000000000001005,0.4639452082440899,-0.46417619596548004
8.200000000000895,0.4564208250783659,-0.485530302784566
8.400000000000784,0.4460364433467262,-0.512059643841593
8.600000000000673,0.43677857882302573,-0.5298900438035581
8.800000000000562,0.42683927291055856,-0.5538073185095045
9.000000000000451,0.4176881011010973,-0.5751364248413052
9.20000000000034,0.41170447225001056,-0.5925989152201621
9.40000000000023,0.4010299742925221,-0.6226645773653625
9.600000000000119,0.38657641338790866,-0.64787979332899
9.800000000000008,0.3712601278103797,-0.6752340658861895
10.000999999999896,0.3622031643132907,-0.6988440475699554
10.200999999999786,0.34825190354893043,-0.7249430895074399
10.400999999999675,0.333835494001809,-0.7505313544493047
10.600999999999564,0.3137395633154276,-0.7826470888634047
10.800999999999453,0.2972388282912158,-0.8149162056805901
11.000999999999342,0.276341634314639,-0.850070872019363
11.200999999999231,0.2537117202972487,-0.8803130424789966
11.40099999999912,0.23358362265385937,-0.9051329241793645
11.60099999999901,0.21788815914897733,-0.9235672319213852
11.800999999998899,0.20225405936550886,-0.936833918591183
12.000999999998788,0.1876337431276648,-0.9462787448742292
12.200999999998677,0.16578147309749075,-0.9497270832011263
12.400999999998566,0.1263543715148142,-0.9491632112355779
12.600999999998455,0.09751069834314838,-0.9468140768891649
12.800999999998345,0.06453776211597814,-0.9370181734334369
13.000999999998234,0.03447217218639009,-0.9276150769228637
13.200999999998123,0.0019062641896142943,-0.9153530389760207
13.400999999998012,-0.030713104020778467,-0.9057173383105106
13.600999999997901,-0.060787477990064905,-0.8913472768720663
13.80099999999779,-0.09129466943871999,-0.8746830638906706
14.00099999999768,-0.1292205246620725,-0.8544996080557925
14.200999999997569,-0.16963661050113785,-0.8344858077992778
14.400999999997458,-0.20286249470836662,-0.8186640135019049
14.600999999997347,-0.235453257652516,-0.8000453599280785
14.800999999997236,-0.26195181754582497,-0.7920461352686101
15.000999999997125,-0.2952962162201311,-0.774530240760806
15.200999999997014,-0.3315285826663451,-0.7521425927163771
15.400999999996904,-0.360699199883577,-0.7338576742794423
15.600999999996793,-0.38955176469339264,-0.7190450186508208
15.800999999996682,-0.4160971378020997,-0.716239414466226
16.000999999996573,-0.44849463898343234,-0.699009646657534
16.200999999996817,-0.48556931580794965,-0.6713088050474834
16.40099999999706,-0.5171504219301134,-0.6431672757141608
16.600999999997306,-0.5358601787744557,-0.6273319081441279
16.80099999999755,-0.5513462940415095,-0.6129271701908718
17.000999999997795,-0.5595578186800524,-0.5807597641985078
17.20099999999804,-0.5554670272800608,-0.5459831513400626
17.400999999998284,-0.5510924972145491,-0.5106573546207525
17.60099999999853,-0.5426156717143613,-0.47371204221215846
17.800999999998773,-0.5372707826668958,-0.44670899601596326
18.000999999999017,-0.5260482537872407,-0.4131587628975505
18.20099999999926,-0.50731615479256,-0.37327791595344983
18.400999999999506,-0.4977299340164059,-0.33660263329677237
18.60099999999975,-0.4847152698753559,-0.30606789504467874
18.799999999999994,-0.4747802661824761,-0.279713908556417
19.000000000000238,-0.45799899839637315,-0.24269422096598767
19.200000000000482,-0.4319390513983603,-0.1997438167800201
19.400000000000727,-0.4046787669859603,-0.15847579606172135
19.60000000000097,-0.38801958413482623,-0.12771516525557136
19.800000000001216,-0.35702111363352057,-0.09657825105357165
20.00000000000146,-0.33485902876455936,-0.06959416330445715
