Time (s),X (m),Y (m)
0.001,0.00042302893680115855,-0.0010314752485082442
0.20000000000000015,0.0013284690764852228,0.0005874218250905448
0.4000000000000003,0.007967926875058514,0.0047072739278163885
0.6000000000000004,0.021801836686956837,0.0039385070358956735
0.8000000000000006,0.03676221496797317,-0.0010623049637824562
1.0000000000000007,0.05646558294082386,-0.005498781478495251
1.2009999999999785,0.07879244988770952,-0.01428488526592503
1.4009999999999565,0.08940496296652686,-0.027780016298563196
1.6009999999999345,0.08964453446140785,-0.04313699922829849
1.8009999999999124,0.08462972907711544,-0.057526395998217815
2.0009999999998906,0.07791380619919866,-0.0749542487701175
2.2009999999998686,0.07251915495924963,-0.09943640962631031
2.4009999999998466,0.06115791302364238,-0.10815843714752062
2.6009999999998246,0.038648483036544855,-0.11345485515009789
2.8009999999998025,0.005423488297111887,-0.11749458208687372
3.0009999999997805,-0.027096269115344556,-0.11318670414497889
3.2009999999997585,-0.05659271409084573,-0.09966248903248608
3.4009999999997365,-0.09256530038399416,-0.08205119701830134
3.6009999999997144,-0.11983028054212358,-0.05839665021624017
3.8009999999996924,-0.1363666725817317,-0.02472272317654125
4.000999999999671,-0.1449734404532929,0.009904848669390783
4.200999999999738,-0.15291057041376974,0.04954386668076805
4.400999999999804,-0.15480729576460847,0.09366456135561374
4.600999999999871,-0.16942614559437824,0.14563643246381808
4.800999999999938,-0.17681208938287146,0.1909954122602034
5.000000000000004,-0.167796952625826,0.23275332142371002
5.200000000000071,-0.14557760448931595,0.27860792071193136
5.400000000000138,-0.11785033518105932,0.31788491899712357
5.600000000000205,-0.08066599522175409,0.35260463557505595
5.800000000000272,-0.034311402544723535,0.36649596143828045
6.000000000000338,0.011758340273160871,0.37774862597410375
6.200000000000405,0.05841468566607673,0.37874412857138917
6.400000000000472,0.08083769977089902,0.36719549298507737
6.600000000000539,0.0856181000161229,0.3515912749446896
6.800000000000606,0.07463595988526238,0.3328800294317742
7.000000000000672,0.05112346699285973,0.30524485673048696
7.200000000000739,0.019738058366371308,0.296015478322369
7.400000000000806,-0.018567127885981045,0.2966756427506108
7.600000000000873,-0.057452963090704016,0.30115863820614935
7.8000000000009395,-0.10878997772361496,0.3016947616394763
8.000000000001005,-0.16532036490927707,0.2993591471159385
8.200000000000895,-0.20805166089790647,0.31117378683147834
8.400000000000784,-0.23246662802540105,0.3428069018937276
8.600000000000673,-0.24869919305874422,0.39357946727939297
8.800000000000562,-0.2443479426191438,0.43737703946911866
9.000000000000451,-0.2255248211385571,0.4582437583877189
9.20000000000034,-0.19883122599472797,0.4681636005554888
9.40000000000023,-0.18426355370007105,0.4611823001833457
9.600000000000119,-0.17979659314171959,0.44084626669797833
9.800000000000008,-0.17948537406822154,0.4183868382447923
10.000999999999896,-0.18361486547591835,0.3905334523859217
10.200999999999786,-0.19568965149214293,0.3658800654237279
10.400999999999675,-0.21810007894978595,0.35917085239200836
10.600999999999564,-0.2545500675516394,0.35973940134932275
10.800999999999453,-0.29601514648763316,0.370178472068847
11.000999999999342,-0.3457188722647721,0.3740997743614491
11.200999999999231,-0.4056356649239206,0.3725235355490937
11.40099999999912,-0.46694577635884765,0.3758414853566833
11.60099999999901,-0.515177871045049,0.3830577346911893
11.800999999998899,-0.5566127503607871,0.39531420864780825
12.000999999998788,-0.5951126021450062,0.4174421030701655
12.200999999998677,-0.6379504670556282,0.45032088414875715
12.400999999998566,-0.6727776077484574,0.4969464872422035
12.600999999998455,-0.6987299495464456,0.5557055573850532
12.800999999998345,-0.7033305085303889,0.6122638861005136
13.000999999998234,-0.687520181540726,0.6645620698384239
13.200999999998123,-0.6653287751461006,0.7239526237373997
13.400999999998012,-0.6314724520462527,0.7632160010378428
13.600999999997901,-0.5932403302641784,0.7851430672938347
13.80099999999779,-0.5490099507990642,0.7892779614677558
14.00099999999768,-0.4994596917888937,0.7925894850636446
14.200999999997569,-0.454847171291857,0.7819707266922803
14.400999999997458,-0.4171129592841427,0.7620120894167964
14.600999999997347,-0.39718589754101963,0.7257656090197478
14.800999999997236,-0.3852570433153522,0.6744009721842659
15.000999999997125,-0.38823740930096556,0.6256759997659209
15.200999999997014,-0.40463640496615233,0.5708384867027855
15.400999999996904,-0.4455910958989045,0.5238879709452735
15.600999999996793,-0.5044133803273428,0.49191908404866
15.800999999996682,-0.5716303405943153,0.47874443182817844
16.000999999996573,-0.6270816993888785,0.47856223215181426
16.200999999996817,-0.66055127299578,0.4945911706820514
16.40099999999706,-0.6838645926785507,0.5281960087697624
16.600999999997306,-0.6982553704814665,0.5744634851365008
16.80099999999755,-0.7029515186516285,0.6251135228349725
17.000999999997795,-0.6938703440079116,0.6721430387445329
17.20099999999804,-0.6728900774946934,0.6989672705040536
17.400999999998284,-0.6367255618722835,0.7155456647992636
17.60099999999853,-0.5971032133514144,0.7100743036810236
17.800999999998773,-0.5516265822113695,0.6961805647178338
18.000999999999017,-0.49551562137300603,0.6920697626472433
18.20099999999926,-0.4381112684803644,0.6818256508037834
18.400999999999506,-0.37296355251529584,0.6687560420402173
18.60099999999975,-0.3154889826011318,0.6489915215437938
18.799999999999994,-0.2827511602748325,0.6133213653836387
19.000000000000238,-0.27727817169149077,0.5725278271949232
19.200000000000482,-0.277668852022365,0.5152929707589525
19.400000000000727,-0.29039595993767586,0.4641317394274423
19.60000000000097,-0.3173170237801056,0.43143376996596444
19.800000000001216,-0.34137014954103306,0.41570150643530956
20.00000000000146,-0.3572347246915408,0.42608111341240434
