Time (s),X (m),Y (m)
0.001,0.0006899943756669482,0.0009963285817120476
0.20000000000000015,0.0014629366868389368,0.0011947960517880594
0.4000000000000003,0.007988989651280913,0.01085545553810826
0.6000000000000004,0.019203881232462288,0.018756225911617498
0.8000000000000006,0.024139739150209918,0.021384376379431715
1.0000000000000007,0.01778598060787668,0.028842495103468264
1.2009999999999785,0.0009962016796529565,0.03711577724277566
1.4009999999999565,-0.01847025364886225,0.04094104195830411
1.6009999999999345,-0.039910015246252865,0.03667387236384403
1.8009999999999124,-0.06783735933184908,0.03186600680691806
2.0009999999998906,-0.09339047949272068,0.02079185643009959
2.2009999999998686,-0.11663315524155833,0.0020367097029144556
2.4009999999998466,-0.13681156157065205,-0.035243796618421516
2.6009999999998246,-0.16137737214283332,-0.05399992212304703
2.8009999999998025,-0.18622275883145253,-0.05640651683037672
3.0009999999997805,-0.2132815314517209,-0.05927618267755516
3.2009999999997585,-0.2417701146314961,-0.06789462057957861
3.4009999999997365,-0.2743571937245391,-0.07223926112317261
3.6009999999997144,-0.30740989341581276,-0.07186373915523607
3.8009999999996924,-0.341054049319087,-0.06699328682914142
4.000999999999671,-0.36937936853602665,-0.054827046044504946
4.200999999999738,-0.39605214622378976,-0.030599027426511518
4.400999999999804,-0.40755192625119635,-0.0006091356843776327
4.600999999999871,-0.40710860134010823,0.032908702787233346
4.800999999999938,-0.40975769418772845,0.07048054570159971
5.000000000000004,-0.4239613789033549,0.11238612910863109
5.200000000000071,-0.4529289864602236,0.158237249181735
5.400000000000138,-0.4877865110007508,0.20390035459299952
5.600000000000205,-0.5177700971591025,0.2503580598081115
5.800000000000272,-0.5513018829646649,0.3058060467717909
6.000000000000338,-0.5829990829957766,0.3732030409118775
6.200000000000405,-0.6045204625834635,0.4419942588338061
6.400000000000472,-0.6197156387833036,0.5204036189670876
6.600000000000539,-0.6213362679929942,0.5873828239641024
6.800000000000606,-0.604819541743572,0.6431781031409173
7.000000000000672,-0.5740895811261455,0.6890757156843529
7.200000000000739,-0.5347895745060021,0.7193127964351158
7.400000000000806,-0.48208146424718473,0.7448743451468113
7.600000000000873,-0.42310278259893436,0.7727535132111892
7.8000000000009395,-0.3663007061971719,0.7950627034939791
8.000000000001005,-0.31584969510157085,0.8071896297823334
8.200000000000895,-0.3004536502835009,0.7981497292706565
8.400000000000784,-0.2729214266224985,0.7787637948661464
8.600000000000673,-0.22456765523816494,0.7589037675751206
8.800000000000562,-0.17290303974473198,0.7368279935354228
9.000000000000451,-0.13685701032073963,0.710357453826716
9.20000000000034,-0.11362684411336749,0.6714135524451436
9.40000000000023,-0.09151989934801498,0.6243194320246639
9.600000000000119,-0.0690815374221865,0.5657981007734603
9.800000000000008,-0.04750586568200479,0.4976216568481177
10.000999999999896,-0.04493205957717651,0.43569446040276655
10.200999999999786,-0.04638168821963564,0.37865048700537374
10.400999999999675,-0.02984836372418976,0.32055348355981794
10.600999999999564,-0.0028569606167403684,0.2513766110679045
10.800999999999453,0.02516737454197985,0.18353586679974196
11.000999999999342,0.045441341824746295,0.10762014387790106
11.200999999999231,0.06885880367688042,0.03034257097124219
11.40099999999912,0.11970506340813511,-0.044145442662996484
11.60099999999901,0.1719891794843626,-0.11620100796967774
11.800999999998899,0.20785521232963666,-0.18964505492683517
12.000999999998788,0.2339566437378876,-0.27167176364660733
12.200999999998677,0.24812489868063403,-0.3524678557045922
12.400999999998566,0.24009668975259765,-0.4128959047589223
12.600999999998455,0.21849876985831473,-0.44434250140004466
12.800999999998345,0.17576053014785437,-0.4611336768213648
13.000999999998234,0.1290160270909152,-0.47165808598583836
13.200999999998123,0.09553706634374061,-0.45942453273140527
13.400999999998012,0.0730190023750584,-0.42576949726298957
13.600999999997901,0.048076582349474,-0.3757076778401257
13.80099999999779,0.014304806990135229,-0.31990257144915046
14.00099999999768,-0.02284481953963111,-0.2648373206937484
14.200999999997569,-0.056666345860708414,-0.20929739895839186
14.400999999997458,-0.07257749978351091,-0.1546630033067381
14.600999999997347,-0.08947044512426952,-0.09750971373888492
14.800999999997236,-0.11521827019898306,-0.03027316716290913
15.000999999997125,-0.13833613775102443,0.049183893414720896
15.200999999997014,-0.15384377160346388,0.11751930793256289
15.400999999996904,-0.14504121974507334,0.18790014251007697
15.600999999996793,-0.11836109964195557,0.23025493577692582
15.800999999996682,-0.0770023923724206,0.26235871913887354
16.000999999996573,-0.02433954727730667,0.2844853378608369
16.200999999996817,0.03143042959554488,0.2951158632001206
16.40099999999706,0.07373565367242649,0.2802224188012766
16.600999999997306,0.10488257422566075,0.24655954207912567
16.80099999999755,0.13067329389780505,0.20254966366328692
17.000999999997795,0.12989474909603618,0.15826818584353508
17.20099999999804,0.12676154151891042,0.1125034688218757
17.400999999998284,0.12368010564923392,0.06763852269572605
17.60099999999853,0.10284723249160296,0.018372542163600892
17.800999999998773,0.06195669043222395,-0.02488111905160136
18.000999999999017,0.008925137658926698,-0.05164471988672543
18.20099999999926,-0.03749015520204053,-0.09269276458032442
18.400999999999506,-0.07699928695902103,-0.1266711681392181
18.60099999999975,-0.12224723606822034,-0.1788522295706277
18.799999999999994,-0.1763645195567152,-0.2258442147489218
19.000000000000238,-0.2464646757418828,-0.2672592904076164
19.200000000000482,-0.3252379101635201,-0.2984890913566505
19.400000000000727,-0.41208234508550573,-0.3169580984954333
19.60000000000097,-0.4881071246388349,-0.32144680833292
19.800000000001216,-0.5438220098064608,-0.29903711734717175
20.00000000000146,-0.5922420416480038,-0.2665028586588956
