Time (s),X (m),Y (m)
0.001,0.0014505791105779379,8.989899140956135e-05
0.20000000000000015,0.0005002002980217166,0.00010055967954822429
0.4000000000000003,-0.0014070722233751692,-0.0007931308328702058
0.6000000000000004,0.0031645217536571887,-0.003793533184847277
0.8000000000000006,0.009171812285679176,-0.012025647729148136
1.0000000000000007,0.02587954567042967,-0.021077104226162952
1.2009999999999785,0.05307579670059459,-0.04171454677049796
1.4009999999999565,0.0848710108481296,-0.06324761282436797
1.6009999999999345,0.11641895516956659,-0.08178140105067622
1.8009999999999124,0.14546465264939604,-0.10283790497269643
2.0009999999998906,0.17135866923622667,-0.11833422207335767
2.2009999999998686,0.1848882099102045,-0.1348885925595907
2.4009999999998466,0.18815238277530855,-0.1568665981553217
2.6009999999998246,0.1826782899442715,-0.17616286135846054
2.8009999999998025,0.16981277188068328,-0.20074028053356638
3.0009999999997805,0.1472799357675849,-0.2418391150213564
3.2009999999997585,0.11807503793400786,-0.29003679377177904
3.4009999999997365,0.09009567810013418,-0.3297186338037727
3.6009999999997144,0.06454540898636667,-0.36247427559340784
3.8009999999996924,0.03751417900673306,-0.39743794730426174
4.000999999999671,0.00863702474792957,-0.43638681952698155
4.200999999999738,-0.026468774962089672,-0.47974500249608876
4.400999999999804,-0.0702426010684345,-0.5242054228051853
4.600999999999871,-0.12967183404896152,-0.5619047649699649
4.800999999999938,-0.18668119375584366,-0.5809809015019775
5.000000000000004,-0.2500568277502083,-0.5720577444834052
5.200000000000071,-0.30704077808732994,-0.5508549763256408
5.400000000000138,-0.36362567601083995,-0.5200569073599941
5.600000000000205,-0.42690959797578615,-0.4787989962718918
5.800000000000272,-0.48916730160280997,-0.4391842721613404
6.000000000000338,-0.5450419859743982,-0.3995464278195063
6.200000000000405,-0.6004912925640942,-0.3579272137774618
6.400000000000472,-0.6533410704743303,-0.3187794078281854
6.600000000000539,-0.7136383792587373,-0.2738004714278785
6.800000000000606,-0.7687570372794811,-0.2283965238366188
7.000000000000672,-0.8025269121798416,-0.1733586189938847
7.200000000000739,-0.8091357645496056,-0.11833439512366033
7.400000000000806,-0.7971883007658189,-0.06541417928519372
7.600000000000873,-0.7706579899419738,-0.008605796727532769
7.8000000000009395,-0.736439457503928,0.05932921687976452
8.000000000001005,-0.7003079047214893,0.1172580168121964
8.200000000000895,-0.6593304270088969,0.171019743474737
8.400000000000784,-0.6172864507240585,0.23142972242293872
8.600000000000673,-0.5787269057256921,0.2831687152288339
8.800000000000562,-0.5387107592873587,0.3369604245108329
9.000000000000451,-0.49550736380181065,0.4023907363850241
9.20000000000034,-0.45058247853755073,0.46806463035647733
9.40000000000023,-0.40866462061622966,0.5303731392325985
9.600000000000119,-0.36412518929252685,0.5896531938958488
9.800000000000008,-0.3203719813653418,0.6456981676267395
10.000999999999896,-0.2758639839124761,0.7048801418843224
10.200999999999786,-0.22687740096869877,0.7632302861925523
10.400999999999675,-0.16000410683113309,0.8189617748408702
10.600999999999564,-0.08118723358699696,0.8538489652823041
10.800999999999453,-0.005721607610039461,0.8589535506359856
11.000999999999342,0.06587127004866362,0.8444081507683253
11.200999999999231,0.14534773434888615,0.815076079808706
11.40099999999912,0.21907874797267027,0.7770549713923833
11.60099999999901,0.2901118987294354,0.7353793338588175
11.800999999998899,0.3694619213483197,0.6876280603715922
12.000999999998788,0.44257112769575757,0.633441024069674
12.200999999998677,0.5242356658995168,0.5739492215290586
12.400999999998566,0.5984765904998174,0.5164406044338408
12.600999999998455,0.6776470508079335,0.45457597721565784
12.800999999998345,0.7540531158894668,0.3925011357711408
13.000999999998234,0.8201282392929904,0.33030944663325773
13.200999999998123,0.8658798316341251,0.27008546029731567
13.400999999998012,0.8769720060004716,0.209572976836223
13.600999999997901,0.8556587003820552,0.14831949760102078
13.80099999999779,0.8110270527397078,0.08514071868852016
14.00099999999768,0.755508953224495,0.017115358907780057
14.200999999997569,0.6955128703351415,-0.04808882818522884
14.400999999997458,0.6311553834358984,-0.10504399116040733
14.600999999997347,0.5723037545930565,-0.13627296457688348
14.800999999997236,0.5131117378348797,-0.14605188623878204
15.000999999997125,0.45330095097273415,-0.14175549217871017
15.200999999997014,0.39316460936618164,-0.11803299981856699
15.400999999996904,0.33232024199400034,-0.08158233553505258
15.600999999996793,0.2711250911042823,-0.038930525148481235
15.800999999996682,0.21677245991716917,-0.00724382018276694
16.000999999996573,0.1635399062366765,0.030735440060312463
16.200999999996817,0.10904488848052993,0.08244027439472687
16.40099999999706,0.06399706377846853,0.14386224642993445
16.600999999997306,0.04084768401027153,0.1918361883370626
16.80099999999755,0.04382266048135501,0.24931191215118306
17.000999999997795,0.06612051292467071,0.30814817664694205
17.20099999999804,0.09447557834719654,0.3640002974227755
17.400999999998284,0.13368898512854477,0.4253943504017977
17.60099999999853,0.18070699271836177,0.48521202843818134
17.800999999998773,0.24209324787877737,0.5478663827928331
18.000999999999017,0.3182672794173764,0.5964014025121799
18.20099999999926,0.38709762723853924,0.6238956674204201
18.400999999999506,0.4644097326934145,0.6227766443176611
18.60099999999975,0.5373146791285266,0.6063699075204653
18.799999999999994,0.6078224555329221,0.5826106884698307
19.000000000000238,0.683149069675119,0.54853998639148
19.200000000000482,0.7623427659236571,0.5030735058823255
19.400000000000727,0.8349102205816947,0.4510095833818336
19.60000000000097,0.9053139618666493,0.39287334613393854
19.800000000001216,0.9587917977313943,0.33655359101893195
20.00000000000146,0.9765584317188438,0.2676083604148446
