Time (s),X (m),Y (m)
0.001,7.024362446948994e-05,0.0009692696795465077
0.20000000000000015,0.0007879411496425374,1.463270241665695e-05
0.4000000000000003,0.001295714818489518,-0.0001839003607093116
0.6000000000000004,0.0019494039308287142,-0.00036383252112855185
0.8000000000000006,0.002816563318271048,-0.0006282724078902025
1.0000000000000007,0.0038307451203224243,-0.0010835360080231411
1.2009999999999785,0.0048961682038887976,-0.001423313952459269
1.4009999999999565,0.0059999074808481335,-0.0017707627231522969
1.6009999999999345,0.007163786850785352,-0.0022091550602727607
1.8009999999999124,0.008378130209918202,-0.0026855520626020896
2.0009999999998906,0.009649303695981283,-0.003172550988748552
2.2009999999998686,0.010993310252861665,-0.003670302249523999
2.4009999999998466,0.01238489437998028,-0.004213491446391272
2.6009999999998246,0.013803188027519802,-0.004790271351134199
2.8009999999998025,0.015263344508627055,-0.005391774419035492
3.0009999999997805,0.01672610968226354,-0.006024483192613334
3.2009999999997585,0.018190824940684393,-0.006692862335139399
3.4009999999997365,0.019506689462036937,-0.0074503630406130205
3.6009999999997144,0.020864895480905817,-0.008342339532657434
3.8009999999996924,0.022186639135666774,-0.009092736165336244
4.000999999999671,0.023511614770846647,-0.009861166320920508
4.200999999999738,0.024589725271599323,-0.010959171450579732
4.400999999999804,0.025711461067282174,-0.012191367625340553
4.600999999999871,0.026693447409527466,-0.013318503580896314
4.800999999999938,0.02778680849976374,-0.014585137088926512
5.000000000000004,0.02891064185127646,-0.015866183418380284
5.200000000000071,0.03009028449330133,-0.017187488449436773
5.400000000000138,0.031393293770710054,-0.018635138923144775
5.600000000000205,0.032708654832666904,-0.020051459785459122
5.800000000000272,0.0340439811669395,-0.021470051757805326
6.000000000000338,0.03536480638622765,-0.022866463961725682
6.200000000000405,0.03668652587566812,-0.02422623966922818
6.400000000000472,0.038004524163113375,-0.02555154121787546
6.600000000000539,0.039318981964112626,-0.026844997872959908
6.800000000000606,0.040677884165189825,-0.028135624202200844
7.000000000000672,0.042191614705800705,-0.029471707536227482
7.200000000000739,0.0436833056988258,-0.03077257356797747
7.400000000000806,0.045226025494434954,-0.03204284544553613
7.600000000000873,0.046713093013965215,-0.03320928317744661
7.8000000000009395,0.048192580864714035,-0.03431079093021177
8.000000000001005,0.0496652179973538,-0.03534115884814741
8.200000000000895,0.05112374593581885,-0.03628785797454335
8.400000000000784,0.05257052328602775,-0.037145942164443224
8.600000000000673,0.05401143774081423,-0.03791402952229382
8.800000000000562,0.05544820970942918,-0.03856880947933299
9.000000000000451,0.05688437001550517,-0.03909598449262275
9.20000000000034,0.05832125677484856,-0.039499118534659115
9.40000000000023,0.05975198136768962,-0.03974814822182236
9.600000000000119,0.06117025842097225,-0.03979040093091658
9.800000000000008,0.06250878464501373,-0.03962417687055157
10.000999999999896,0.06370480880316443,-0.03922624789609501
10.200999999999786,0.0649579599497098,-0.03849367781541415
10.400999999999675,0.06631776923577228,-0.03792941221090358
10.600999999999564,0.06779580692729702,-0.03703509191214032
10.800999999999453,0.06903519354329905,-0.03599341589137327
11.000999999999342,0.07045992353430154,-0.035108124905628174
11.200999999999231,0.07192115670604099,-0.03388825659888095
11.40099999999912,0.07322444619452241,-0.03256705075150359
11.60099999999901,0.07471316277020519,-0.031395611807629745
11.800999999998899,0.07622719516352061,-0.029910645023175343
12.000999999998788,0.0775946524405084,-0.028329263013416064
12.200999999998677,0.07915962713787643,-0.026929255606950784
12.400999999998566,0.08054667271206509,-0.02538397356384361
12.600999999998455,0.08202672210812487,-0.023548507571006766
12.800999999998345,0.08361084148107951,-0.021926101218074798
13.000999999998234,0.08504659812525187,-0.020174189403306612
13.200999999998123,0.08665745236390694,-0.018362946095119702
13.400999999998012,0.088163400348638,-0.016471751994542982
13.600999999997901,0.08975149386111259,-0.01456731875774703
13.80099999999779,0.09150747506934732,-0.012563307859447764
14.00099999999768,0.09318679366327484,-0.01047721549050381
14.200999999997569,0.09487033196634623,-0.008421604691382771
14.400999999997458,0.09675996757530203,-0.006236312150311052
14.600999999997347,0.09852714857820269,-0.004110199518056407
14.800999999997236,0.1003027350025733,-0.002004866217342286
15.000999999997125,0.10207243955502188,7.231429713483795e-05
15.200999999997014,0.10382004521647951,0.0021032627055242712
15.400999999996904,0.105494786913197,0.004043415528324694
15.600999999996793,0.10699919346022979,0.005876557486759898
15.800999999996682,0.10837317533846318,0.007994350609407506
16.000999999996573,0.1101747989761724,0.009935421273525398
16.200999999996817,0.11173823791586815,0.01169668742242957
16.40099999999706,0.11316671518604846,0.013397479207965081
16.600999999997306,0.11444081679527915,0.015383226525752679
16.80099999999755,0.11617962410386719,0.017227327083867122
17.000999999997795,0.11794923344084036,0.019151865565847977
17.20099999999804,0.119715470400755,0.021064818596451346
17.400999999998284,0.12146373158546314,0.022966367304736314
17.60099999999853,0.12317548185623797,0.024854023417571203
17.800999999998773,0.12483968976446479,0.02669481033073436
18.000999999999017,0.12644723551645862,0.028477601309840193
18.20099999999926,0.1276729946446673,0.030404921207582366
18.400999999999506,0.1292423982057894,0.032216095354917956
18.60099999999975,0.13069006368736077,0.03394935579097433
18.799999999999994,0.1320845629488359,0.03564531865436068
19.000000000000238,0.1329847498344349,0.03733967370083823
19.200000000000482,0.13430369953600288,0.03903567757191125
19.400000000000727,0.13551143150282818,0.04065181966873042
19.60000000000097,0.13664496318952477,0.04224839318918578
19.800000000001216,0.13770001861019204,0.04383379913268393
20.00000000000146,0.13867325697999175,0.045407900656788396
