Time (s),X (m),Y (m)
0.001,0.0010146588340248276,0.000844935058449024
0.20000000000000015,0.0006322133342000311,-0.0002977518258248538
0.4000000000000003,0.006996270460117433,0.002221189904478149
0.6000000000000004,0.02109445679170545,0.00793725414027044
0.8000000000000006,0.03651018929161408,0.011404959130832426
1.0000000000000007,0.04985245121828936,0.0024238844020546325
1.2009999999999785,0.06367157127176444,0.003096978526003613
1.4009999999999565,0.07693743287691308,0.002194757761117685
1.6009999999999345,0.09434192856534765,0.010117470514321743
1.8009999999999124,0.11491725796202419,0.02618264253697536
2.0009999999998906,0.13178710847186614,0.03547247278448343
2.2009999999998686,0.15347062102564887,0.041249121804898495
2.4009999999998466,0.17452667349987974,0.04629942954950034
2.6009999999998246,0.19849829668898247,0.051375182881514436
2.8009999999998025,0.22420763862287682,0.04933863301294638
3.0009999999997805,0.24723621938415738,0.04114127869019427
3.2009999999997585,0.2769809201725032,0.013826279015216436
3.4009999999997365,0.2993802727608937,-0.01594441893595136
3.6009999999997144,0.316208945961393,-0.049479867880279874
3.8009999999996924,0.3236795363104797,-0.0824228179698174
4.000999999999671,0.3392764337353817,-0.11763618384782928
4.200999999999738,0.35899076814868874,-0.15107490053144557
4.400999999999804,0.3886001210051211,-0.17108410464678406
4.600999999999871,0.4254908331951189,-0.18146564035462612
4.800999999999938,0.45877099572911356,-0.19221146694261898
5.000000000000004,0.5056813294488247,-0.21006135284784516
5.200000000000071,0.5540192818790209,-0.23831905948622084
5.400000000000138,0.5879560203260535,-0.2691584775040011
5.600000000000205,0.6202100289997743,-0.3002525923403333
5.800000000000272,0.6527112637363865,-0.32984688393820155
6.000000000000338,0.6764940345154784,-0.3580360508186143
6.200000000000405,0.7131112613612832,-0.3861139369320962
6.400000000000472,0.7430577503484004,-0.411358915602565
6.600000000000539,0.7548820724649328,-0.4351201322257739
6.800000000000606,0.7752724246513802,-0.46976683946801073
7.000000000000672,0.8173070922117647,-0.5142383038588114
7.200000000000739,0.8665624741827606,-0.5657329819871123
7.400000000000806,0.915451109856778,-0.6207157911744668
7.600000000000873,0.9644049847299011,-0.6742051205241817
7.8000000000009395,1.0187076889493947,-0.72998083191645
8.000000000001005,1.0727392659454744,-0.7910160825092424
8.200000000000895,1.1176394453315182,-0.8540631972732652
8.400000000000784,1.1499125162184753,-0.9139621777321383
8.600000000000673,1.190982185174859,-0.9702719994348666
8.800000000000562,1.233808275555676,-1.0196210594724893
9.000000000000451,1.2681994753142467,-1.0740317590568635
9.20000000000034,1.3038808301370917,-1.1341929833207989
9.40000000000023,1.3389870343049863,-1.1935279876290619
9.600000000000119,1.395563499116109,-1.2434437976745594
9.800000000000008,1.4606901300888293,-1.2686580777698178
10.000999999999896,1.5265967975471777,-1.2821557357865154
10.200999999999786,1.587458389211072,-1.2964135891497321
10.400999999999675,1.6446997897427105,-1.331072507023869
10.600999999999564,1.6972209970199896,-1.379068157622607
10.800999999999453,1.742672079625305,-1.4348502043320805
11.000999999999342,1.7791986207363335,-1.489785744711576
11.200999999999231,1.8162509367872501,-1.5452627230119358
11.40099999999912,1.849773043140851,-1.6044816157449426
11.60099999999901,1.8943274885549484,-1.6594148119092198
11.800999999998899,1.945995169681869,-1.714939315760194
12.000999999998788,1.9936816272291256,-1.7727976882313874
12.200999999998677,2.0285856702229084,-1.8429760649912181
12.400999999998566,2.068049733149527,-1.920378021866371
12.600999999998455,2.11448400485852,-1.9954326179543633
12.800999999998345,2.163234057086455,-2.070449067190215
13.000999999998234,2.2141445375665674,-2.1493705446665956
13.200999999998123,2.249196955053069,-2.223691682114708
13.400999999998012,2.2995079748769753,-2.2727109911183927
13.600999999997901,2.366245336096752,-2.310718561236589
13.80099999999779,2.427475656457712,-2.345792311468245
14.00099999999768,2.492478602197002,-2.3862047374787614
14.200999999997569,2.5375549789256993,-2.4344715210271315
14.400999999997458,2.5748847612789634,-2.4877409731415994
14.600999999997347,2.6204556727319432,-2.549250038782015
14.800999999997236,2.669828042133504,-2.6164165250583076
15.000999999997125,2.7219647182823996,-2.6884952655165844
15.200999999997014,2.7598589762619383,-2.7584709680049215
15.400999999996904,2.7939157628798714,-2.829357940958178
15.600999999996793,2.8433074776793728,-2.8907976527373616
15.800999999996682,2.903195327281008,-2.948368205626572
16.000999999996573,2.963609655261711,-2.991560823495137
16.200999999996817,3.0189517707291147,-3.0180000641998075
16.40099999999706,3.0861239269669287,-3.0367766354933594
16.600999999997306,3.159331053914392,-3.0614844868293707
16.80099999999755,3.2283833173411844,-3.0776318913818232
17.000999999997795,3.3089569711655233,-3.086566233047417
17.20099999999804,3.416327175603901,-3.0947895033482333
17.400999999998284,3.522129943002016,-3.1058044164441716
17.60099999999853,3.6066153964170042,-3.125859786651555
17.800999999998773,3.6853443300407975,-3.1580944872366596
18.000999999999017,3.7482072756744618,-3.204124616357587
18.20099999999926,3.7992553859802807,-3.2611641524553234
18.400999999999506,3.8491145762993275,-3.3246299855615375
18.60099999999975,3.8963378202260177,-3.3859029756503443
18.799999999999994,3.953316216353957,-3.4412019042909434
19.000000000000238,4.00856204204192,-3.493771096417479
19.200000000000482,4.063583837879519,-3.542810451831928
19.400000000000727,4.129501284907819,-3.5899917236692693
19.60000000000097,4.202230500931639,-3.6302691162785607
19.800000000001216,4.2877097574473835,-3.6649261955078853
20.00000000000146,4.380510770346835,-3.702191641537425
