Time (s),X (m),Y (m)
0.001,0.0013578629866597446,0.0004359202765531099
0.20000000000000015,0.0008108458851464651,0.0001656468427749164
0.4000000000000003,0.005535193688523053,0.004602446230953073
0.6000000000000004,0.0009736931154827814,0.009162127823523143
0.8000000000000006,0.02048624057767325,0.015435799352112508
1.0000000000000007,0.040277952402096265,0.02200210117720856
1.2009999999999785,0.07079064033653551,0.023437682599289317
1.4009999999999565,0.1013938440398683,0.020893487539893313
1.6009999999999345,0.12605433983619072,0.019943014511909607
1.8009999999999124,0.14516591793478503,0.021219149437102607
2.0009999999998906,0.15284886526976363,0.023617513636289857
2.2009999999998686,0.18252096433282272,0.023923824684081132
2.4009999999998466,0.21671921070782266,0.01715056263202319
2.6009999999998246,0.25662031987080725,-0.00032197904241069373
2.8009999999998025,0.295813750190361,-0.024523036263690935
3.0009999999997805,0.3369712985961952,-0.055309030346619124
3.2009999999997585,0.36862627350365545,-0.08761656276189143
3.4009999999997365,0.40989857400583724,-0.12427243918893965
3.6009999999997144,0.44940597807944627,-0.1585531295655762
3.8009999999996924,0.48860785379599087,-0.18963559277594738
4.000999999999671,0.515705940135505,-0.2187323815726268
4.200999999999738,0.5496900393606532,-0.25017620268491
4.400999999999804,0.5830203733543139,-0.28013239957198094
4.600999999999871,0.6192233940477233,-0.31197955119202575
4.800999999999938,0.6559746662774448,-0.34455573660110644
5.000000000000004,0.6941449819213866,-0.38108981213106274
5.200000000000071,0.7383790514497924,-0.425365989551731
5.400000000000138,0.7795482220953038,-0.4715679530620722
5.600000000000205,0.8179372033086205,-0.5242298900014501
5.800000000000272,0.8522007035073618,-0.5723045658106921
6.000000000000338,0.8807641328109737,-0.6318083205175371
6.200000000000405,0.8906385357769218,-0.6876941958438362
6.400000000000472,0.8730915116760896,-0.7434922045504502
6.600000000000539,0.8404943137579918,-0.7977070624664727
6.800000000000606,0.8034439760241219,-0.8474030113180612
7.000000000000672,0.7647744548117834,-0.8976829760456583
7.200000000000739,0.7207270038197856,-0.9476516395924045
7.400000000000806,0.6745302814065636,-0.9908925226455013
7.600000000000873,0.6223638080432444,-1.0355074245546187
7.8000000000009395,0.5677595832416882,-1.080102290799029
8.000000000001005,0.5150398372203038,-1.1103178550933301
8.200000000000895,0.4670022124431163,-1.1238308749278911
8.400000000000784,0.40725720261992066,-1.1272416725967347
8.600000000000673,0.342672507462738,-1.1160065566944462
8.800000000000562,0.28470535478106784,-1.084240448913444
9.000000000000451,0.23136910345522432,-1.0417789535742055
9.20000000000034,0.17247412880202703,-0.9920815379956985
9.40000000000023,0.10570809504327427,-0.9378304244106178
9.600000000000119,0.0657844961411928,-0.8893436988934114
9.800000000000008,0.0309163496788378,-0.8419654131146453
10.000999999999896,-0.017163271114745287,-0.7929626176504587
10.200999999999786,-0.0716166168346257,-0.7412540548090487
10.400999999999675,-0.13314579341999222,-0.6821164612416968
10.600999999999564,-0.1951985287458319,-0.6163624059153672
10.800999999999453,-0.24772545046073932,-0.550766929318262
11.000999999999342,-0.2764347424518095,-0.47946426821759724
11.200999999999231,-0.27281535361356724,-0.424892955750612
11.40099999999912,-0.24829661829053074,-0.3799925892130777
11.60099999999901,-0.21284546577029864,-0.3353090242950943
11.800999999998899,-0.1703040643345241,-0.2927061326599599
12.000999999998788,-0.12644061183489166,-0.2492903767673151
12.200999999998677,-0.0811512068553736,-0.20784612096652572
12.400999999998566,-0.030846694396668452,-0.17009820718449267
12.600999999998455,0.029118384427845423,-0.12868599256229502
12.800999999998345,0.09797924226332759,-0.09392354964266625
13.000999999998234,0.15676142896565282,-0.07349516548024469
13.200999999998123,0.2041621178191999,-0.08456201790017977
13.400999999998012,0.24143616249380423,-0.11571105098851465
13.600999999997901,0.28226608839205586,-0.16388404487105265
13.80099999999779,0.328180233074226,-0.22486744302087372
14.00099999999768,0.37009002289415294,-0.2870444067702423
14.200999999997569,0.39024161857120065,-0.3471048236868545
14.400999999997458,0.38773780635981436,-0.40804915768886224
14.600999999997347,0.36243111987624776,-0.4708327277806101
14.800999999997236,0.3259469895864901,-0.5214419727605094
15.000999999997125,0.27704580004824614,-0.5664745738479621
15.200999999997014,0.22386192139410913,-0.6105723902286473
15.400999999996904,0.16317991398401563,-0.6520360428171152
15.600999999996793,0.09671311117499838,-0.6917488966467086
15.800999999996682,0.022273319180739853,-0.727837333121937
16.000999999996573,-0.04456669700159625,-0.7557741166413654
16.200999999996817,-0.11126781237254707,-0.7734600799075314
16.40099999999706,-0.16201809439052045,-0.7801475856367676
16.600999999997306,-0.20622317027261106,-0.7708476418806591
16.80099999999755,-0.24497099711442175,-0.7462293783296456
17.000999999997795,-0.2924699872315191,-0.7108110293964072
17.20099999999804,-0.33334987246322795,-0.6710451179964793
17.400999999998284,-0.3719614811753603,-0.6242182550320887
17.60099999999853,-0.41886869112193464,-0.5663597420191137
17.800999999998773,-0.45981853771635156,-0.506705390290452
18.000999999999017,-0.509997284282802,-0.4492465401950284
18.20099999999926,-0.5764788037745624,-0.3877463260888267
18.400999999999506,-0.6407730663331244,-0.3283846043528883
18.60099999999975,-0.7082570754645588,-0.260462471508375
18.799999999999994,-0.773722384205772,-0.18799845402178086
19.000000000000238,-0.8402191249860946,-0.11206216333678212
19.200000000000482,-0.9092030411037294,-0.03208641448095932
19.400000000000727,-0.9705977390154858,0.043873391921476115
19.60000000000097,-1.0183198241128248,0.12023614040576451
19.800000000001216,-1.0394788652946436,0.19853455231351885
20.00000000000146,-1.0262973749123154,0.2734347456571544
