Time (s),X (m),Y (m)
0.001,0.00042302893680115855,-0.0010314752485082442
0.20000000000000015,0.0012151991193851408,0.0009011142054895366
0.4000000000000003,0.003317424941920549,0.001985328847904636
0.6000000000000004,0.008841239350593487,0.0058330449846327554
0.8000000000000006,0.01771361600605246,0.005525340746484834
1.0000000000000007,0.03318950821906859,0.00917946449228106
1.2009999999999785,0.045769789905283575,0.0010888315557242036
1.4009999999999565,0.05702720355040515,-0.011570563919858348
1.6009999999999345,0.06339335815957099,-0.03459311450774184
1.8009999999999124,0.06924155043821711,-0.06199676952512706
2.0009999999998906,0.07988353206873093,-0.08981744791579939
2.2009999999998686,0.09063158572553676,-0.12010540347796832
2.4009999999998466,0.09255612603014522,-0.15326176122690127
2.6009999999998246,0.085948331053042,-0.18004917671856
2.8009999999998025,0.07178302780934576,-0.1913776328613771
3.0009999999997805,0.054222256077223585,-0.18346552157476412
3.2009999999997585,0.033462978552229836,-0.17597149937085013
3.4009999999997365,0.021997527466825536,-0.15273529462976
3.6009999999997144,0.005866634762314151,-0.1352091085408734
3.8009999999996924,-0.005862416677550717,-0.11600995764729459
4.000999999999671,-0.010778962892796708,-0.09169130196662018
4.200999999999738,-0.004795502890246083,-0.06442756379750222
4.400999999999804,0.008504553953907158,-0.0463155047408255
4.600999999999871,0.02831785932987254,-0.04740544905956622
4.800999999999938,0.052685248577554356,-0.062109407912850176
5.000000000000004,0.07834165281610458,-0.0716552571077848
5.200000000000071,0.1112662283602162,-0.07762257819900548
5.400000000000138,0.13581813999084266,-0.09356748309137815
5.600000000000205,0.16272180323531654,-0.1087213099575729
5.800000000000272,0.17843341543583033,-0.13033542452623775
6.000000000000338,0.17882352819462374,-0.16026775086965583
6.200000000000405,0.17442227309199337,-0.19747038137342027
6.400000000000472,0.16183124203250718,-0.23631819272668111
6.600000000000539,0.13868130874544343,-0.2653026263615459
6.800000000000606,0.11655035266390092,-0.2693929473183089
7.000000000000672,0.09270551124719974,-0.26072856998296323
7.200000000000739,0.098424731543485,-0.24349305138904861
7.400000000000806,0.10161351979450614,-0.21485831136974626
7.600000000000873,0.10206704503654111,-0.18069174059672943
7.8000000000009395,0.10664223628256014,-0.14733149852094884
8.000000000001005,0.11947946648266951,-0.11855554848490064
8.200000000000895,0.13997507473390744,-0.10629595065202165
8.400000000000784,0.16974033621420803,-0.10038292949207313
8.600000000000673,0.20256528267757973,-0.10244409273048599
8.800000000000562,0.23422539514820234,-0.11223944292926644
9.000000000000451,0.26161555346859255,-0.1353978801274237
9.20000000000034,0.28623643939219584,-0.16145198726105628
9.40000000000023,0.30603921294413394,-0.19517479214827027
9.600000000000119,0.3208198726466782,-0.23702969824202352
9.800000000000008,0.32389252143343367,-0.2800889813079849
10.000999999999896,0.3118866115893672,-0.31742619464104627
10.200999999999786,0.29462779323629484,-0.3537410817075507
10.400999999999675,0.26748492879820174,-0.3821022559863882
10.600999999999564,0.229137865081297,-0.4001933971625374
10.800999999999453,0.18966445712906904,-0.4027040886753856
11.000999999999342,0.1635931171252326,-0.3843511129857341
11.200999999999231,0.13933532390329129,-0.36141911106607194
11.40099999999912,0.12265816430635905,-0.3284576688342435
11.60099999999901,0.11266721683171962,-0.2843088760332013
11.800999999998899,0.1156604999483616,-0.24150237630765006
12.000999999998788,0.12118805402624741,-0.20087304117382207
12.200999999998677,0.13035040950837265,-0.14248289800306702
12.400999999998566,0.14245248477522673,-0.10162764900325676
12.600999999998455,0.16897737486026618,-0.07250541853884668
12.800999999998345,0.20879489965395895,-0.05439915189945056
13.000999999998234,0.2509270397910351,-0.038733785608168946
13.200999999998123,0.2860101139986775,-0.044135152599968495
13.400999999998012,0.32078466337051503,-0.054603929215304124
13.600999999997901,0.3481573769276003,-0.07265888197211705
13.80099999999779,0.3758834750468507,-0.09702076045173658
14.00099999999768,0.4005413278031786,-0.1267186038832214
14.200999999997569,0.4062461119348058,-0.15873916235367655
14.400999999997458,0.39729423604410713,-0.1901198112239764
14.600999999997347,0.3800825875092972,-0.2112094582218728
14.800999999997236,0.34331015242335366,-0.21721790503931504
15.000999999997125,0.31067847929290326,-0.21084770535181824
15.200999999997014,0.2786817989965776,-0.19819233027016156
15.400999999996904,0.24758145978421875,-0.1800686494717213
15.600999999996793,0.208358805018088,-0.16224941944147112
15.800999999996682,0.20096742727344782,-0.13756876956218841
16.000999999996573,0.2028726134922457,-0.10171188477558865
16.200999999996817,0.21448890705311796,-0.060443715664243676
16.40099999999706,0.23219811190953474,-0.015591626797541409
16.600999999997306,0.2503784554467506,0.023125880725035415
16.80099999999755,0.2759475915967708,0.03352991615992275
17.000999999997795,0.3087681701378001,0.020186243959635152
17.20099999999804,0.3343685462569726,0.0005497763896126397
17.400999999998284,0.34250873559001055,-0.033041402975724526
17.60099999999853,0.33360340355347956,-0.06965866919650167
17.800999999998773,0.3168696484153036,-0.10524800040596544
18.000999999999017,0.28666963127344697,-0.12162978006420261
18.20099999999926,0.24500990955462498,-0.1392894744945953
18.400999999999506,0.20112324405550505,-0.15030198799315753
18.60099999999975,0.1639921563797007,-0.1482305827516447
18.799999999999994,0.13856669745494973,-0.12608016617210013
19.000000000000238,0.12243644925742564,-0.08889292410961949
19.200000000000482,0.1180081711446006,-0.04726800093032709
19.400000000000727,0.12582657500991573,-0.012740471500018637
19.60000000000097,0.14669730675165513,-0.0015790654280062317
19.800000000001216,0.1711386755084266,-0.009026431567540516
20.00000000000146,0.20642558932754726,-0.019963050538787826
