Time (s),X (m),Y (m)
0.001,0.0008589492133542695,0.0009348340498585851
0.20000000000000015,0.0008263228627837274,-0.0002532697513272768
0.4000000000000003,0.0022250929402008782,-0.00021015660889506485
0.6000000000000004,0.00431988759485532,-0.0015027774657208743
0.8000000000000006,0.00902562560681356,0.0024497506570147647
1.0000000000000007,0.0138309059602763,0.005015290247411027
1.2009999999999785,0.021522142141027528,0.009035094675813234
1.4009999999999565,0.026083143102629828,0.009341650937985793
1.6009999999999345,0.030206931688412195,0.012475038296664734
1.8009999999999124,0.03681730543720852,0.012259842498015365
2.0009999999998906,0.04619830172241296,0.010993497804550587
2.2009999999998686,0.054613176703038335,0.013715027931746122
2.4009999999998466,0.06229909209469649,0.015083755261985219
2.6009999999998246,0.07409407162688872,0.020464891824181982
2.8009999999998025,0.08291139424566243,0.030128869194833156
3.0009999999997805,0.09408609017906928,0.03391255485450754
3.2009999999997585,0.10272853879986457,0.03082198273210484
3.4009999999997365,0.11191148323851159,0.03235727491740574
3.6009999999997144,0.1247539811555663,0.03854400643791232
3.8009999999996924,0.13315925089778963,0.046932878342998266
4.000999999999671,0.1423617344478575,0.048104075516167764
4.200999999999738,0.15313991209022473,0.05727781255213419
4.400999999999804,0.16850111842903104,0.06937635097487053
4.600999999999871,0.1840139843224165,0.07678430023773525
4.800999999999938,0.1971646029652512,0.08503079353451011
5.000000000000004,0.2100130456935465,0.09206774488335603
5.200000000000071,0.2228058923815581,0.0981822573643023
5.400000000000138,0.2335042081480357,0.10676999803266575
5.600000000000205,0.244916570136665,0.110285408261788
5.800000000000272,0.25652681147687145,0.11660611860225926
6.000000000000338,0.2679696383994697,0.12493717787617782
6.200000000000405,0.27703930873885135,0.14018931168493595
6.400000000000472,0.28448798325087815,0.15579702846725876
6.600000000000539,0.29457068337632647,0.1699336311675324
6.800000000000606,0.30448332652455173,0.18024370455295494
7.000000000000672,0.3177677189460285,0.19382109019517912
7.200000000000739,0.3287389824563409,0.20134077449341786
7.400000000000806,0.33959973609249855,0.21173665320356128
7.600000000000873,0.3507048561936779,0.22026581743679247
7.8000000000009395,0.3633724465715119,0.22840748203851485
8.000000000001005,0.3757496667947075,0.2328230129268103
8.200000000000895,0.38509327257254616,0.24338736366786684
8.400000000000784,0.39445901232283415,0.258327902068209
8.600000000000673,0.40214580383931353,0.2714254476830391
8.800000000000562,0.4113497362101709,0.2905017119122278
9.000000000000451,0.4235890604170734,0.30457822625387626
9.20000000000034,0.43675119000436063,0.30847720370954823
9.40000000000023,0.4491271496633008,0.32136451037540276
9.600000000000119,0.4569276451808929,0.3388495506999443
9.800000000000008,0.4604526085023662,0.35405165460808347
10.000999999999896,0.4618818881625405,0.3723424700950123
10.200999999999786,0.4706267754967124,0.3840382183669272
10.400999999999675,0.4771350582153471,0.394914636447243
10.600999999999564,0.479778615932123,0.4087679748387004
10.800999999999453,0.48096541404627224,0.4325091534043202
11.000999999999342,0.4873040684250522,0.4505530250683141
11.200999999999231,0.49481777338393435,0.46566075356072684
11.40099999999912,0.5006566863129809,0.4837354797609409
11.60099999999901,0.5096569077686476,0.49767179840634834
11.800999999998899,0.517366720590894,0.5133667059048596
12.000999999998788,0.5248341958637295,0.5213912765572418
12.200999999998677,0.5327853980669309,0.5333702428470728
12.400999999998566,0.5366023868117118,0.5476752408732273
12.600999999998455,0.5445265410349428,0.5592601273769747
12.800999999998345,0.5496848616588333,0.5737872955703268
13.000999999998234,0.5564158344065799,0.5849695556758459
13.200999999998123,0.5627460777095294,0.5959324384617875
13.400999999998012,0.5649712042653173,0.6124557512434111
13.600999999997901,0.5671833939999097,0.6283992366130341
13.80099999999779,0.5672581547388457,0.6494831594961873
14.00099999999768,0.5724030069856947,0.6652976788236687
14.200999999997569,0.5788175093401136,0.6751424827719255
14.400999999997458,0.5721972113029258,0.6980885364461352
14.600999999997347,0.5635175557879327,0.7178587472375747
14.800999999997236,0.5592639796570802,0.7383030343619897
15.000999999997125,0.556352836257067,0.7494295608834683
15.200999999997014,0.5524237586283045,0.7670114741586878
15.400999999996904,0.546961004179081,0.7877379947249534
15.600999999996793,0.5360135770228217,0.809641776009612
15.800999999996682,0.5296808744574238,0.8302960583905676
16.000999999996573,0.5241166332010797,0.8494651026495732
16.200999999996817,0.5192714197285878,0.8669753262014565
16.40099999999706,0.510026464478133,0.8876553531070673
16.600999999997306,0.5017979321961884,0.90491135099884
16.80099999999755,0.4926793146179617,0.9212935032083603
17.000999999997795,0.48167399990815357,0.9381061031497474
17.20099999999804,0.4673298505379817,0.9573192036386642
17.400999999998284,0.4617657071363809,0.9768570502049772
17.60099999999853,0.4558677922693777,0.9912036126689606
17.800999999998773,0.4458330854161508,1.0098613697369654
18.000999999999017,0.4408485586167577,1.0266881441926
18.20099999999926,0.42754661849342557,1.0376492033841764
18.400999999999506,0.4105665689995535,1.0521312840465376
18.60099999999975,0.4027892151535585,1.0623758138602664
18.799999999999994,0.3819238262254534,1.0736182420744842
19.000000000000238,0.36578292958644276,1.082521902257601
19.200000000000482,0.35170769615683045,1.0923882411122752
19.400000000000727,0.33184176826939316,1.0995200772766727
19.60000000000097,0.31313907042857714,1.1036041683268734
19.800000000001216,0.29420165969901624,1.1074899165690655
20.00000000000146,0.2755083826822559,1.1089873796295628
