Time (s),X (m),Y (m)
0.001,0.00024391513958915793,-0.0010158048217711122
0.20000000000000015,0.0017190987599733495,0.0013250245980965406
0.4000000000000003,0.005395331754889266,0.009388008399243355
0.6000000000000004,0.005523200624430072,0.001780517184884458
0.8000000000000006,0.01492610546352202,-0.01194546020629636
1.0000000000000007,0.01661253896942083,-0.024274464356464423
1.2009999999999785,0.02216357406023593,-0.03789958817762107
1.4009999999999565,0.03712446632721343,-0.06031064240881555
1.6009999999999345,0.050004860002670494,-0.08460830814934638
1.8009999999999124,0.05314813980194737,-0.11570941102695072
2.0009999999998906,0.054503327596631686,-0.1570233639036894
2.2009999999998686,0.04971172706671332,-0.17466485843661536
2.4009999999998466,0.03225623005761579,-0.18933127739487435
2.6009999999998246,0.008536953662457028,-0.20593569401921977
2.8009999999998025,-0.01837918639061126,-0.2176088631539225
3.0009999999997805,-0.048608952288831886,-0.22644967953645498
3.2009999999997585,-0.08258711331403829,-0.23440459577462114
3.4009999999997365,-0.1202470736252672,-0.2407284247421191
3.6009999999997144,-0.1522434384113307,-0.24503405250670746
3.8009999999996924,-0.18789450866029836,-0.2462285840200663
4.000999999999671,-0.2126946951255127,-0.2464645474442086
4.200999999999738,-0.23558989151970602,-0.23697219812445983
4.400999999999804,-0.2722450683636746,-0.21387034421949633
4.600999999999871,-0.29779913603593877,-0.1862915698471522
4.800999999999938,-0.30895732246410834,-0.1554907125548957
5.000000000000004,-0.31997713722628934,-0.11525170480737881
5.200000000000071,-0.3249265536331429,-0.07269732514583468
5.400000000000138,-0.3330716469253097,-0.023325566294736196
5.600000000000205,-0.3393096601307811,0.011414666979106786
5.800000000000272,-0.33041928595138187,0.04103313148482016
6.000000000000338,-0.3072156523434122,0.07481265022875283
6.200000000000405,-0.27866548762121307,0.09615259740702542
6.400000000000472,-0.24577902735288637,0.11958533283441213
6.600000000000539,-0.20242741279780777,0.13443742609502088
6.800000000000606,-0.1577927947297894,0.14741581460121753
7.000000000000672,-0.12412493137128888,0.15854683665019653
7.200000000000739,-0.10036828418069098,0.1597674265390519
7.400000000000806,-0.06536287101730762,0.147201926835334
7.600000000000873,-0.04091687771646186,0.11876276292224403
7.8000000000009395,-0.023327922324164047,0.08343895714114954
8.000000000001005,-0.014479668220813398,0.05507049860600356
8.200000000000895,-0.02459609721249463,0.011575746572607631
8.400000000000784,-0.05190290500173168,-0.02552589761092071
8.600000000000673,-0.09411498103619181,-0.05012158786135334
8.800000000000562,-0.14804094966782314,-0.08284883274885026
9.000000000000451,-0.20760381576113177,-0.11181157130467108
9.20000000000034,-0.2644588521482174,-0.12934029757781493
9.40000000000023,-0.32272020346408453,-0.14168662308250674
9.600000000000119,-0.3673269397752695,-0.13613050164861276
9.800000000000008,-0.3947709008572631,-0.11154127244372786
10.000999999999896,-0.41955748462772663,-0.06702628518662199
10.200999999999786,-0.43161984172533713,-0.004088183345746009
10.400999999999675,-0.41513759091400304,0.052568368286593746
10.600999999999564,-0.3830964373824163,0.08479351104063591
10.800999999999453,-0.33667491228027135,0.11846405770670831
11.000999999999342,-0.28698262881812414,0.16704764179761117
11.200999999999231,-0.23564944710276375,0.22247208485482825
11.40099999999912,-0.18179462555859371,0.25507514799363606
11.60099999999901,-0.13149257714459786,0.27748926188356854
11.800999999998899,-0.0913993700761515,0.2765069920640015
12.000999999998788,-0.06424887760491577,0.2559093284154185
12.200999999998677,-0.061844927448722324,0.23250813839684806
12.400999999998566,-0.07066824849238462,0.21419642627555563
12.600999999998455,-0.08845492437431163,0.204789081978229
12.800999999998345,-0.11155899842902102,0.1990243000203989
13.000999999998234,-0.15058296826776613,0.200860765057619
13.200999999998123,-0.21273091993413898,0.2080916437162558
13.400999999998012,-0.2630681223386286,0.222715826994444
13.600999999997901,-0.29483189472421356,0.24404364076722274
13.80099999999779,-0.3105817486758512,0.2652583047804676
14.00099999999768,-0.3066502832151882,0.28499299038227593
14.200999999997569,-0.2847561469626292,0.3155954530149473
14.400999999997458,-0.2527996497526135,0.34184728074598025
14.600999999997347,-0.2136480696385478,0.3627357626094223
14.800999999997236,-0.16700746699292057,0.3714506580191264
15.000999999997125,-0.12077046061946957,0.3682871090131631
15.200999999997014,-0.09028473787140744,0.3544034259048056
15.400999999996904,-0.07590968843459098,0.3280449521147659
15.600999999996793,-0.06144706216703843,0.3019919273991663
15.800999999996682,-0.05316393394745486,0.283235942827529
16.000999999996573,-0.06195604759518812,0.2639670875739391
16.200999999996817,-0.09098143671898544,0.25375857479492914
16.40099999999706,-0.12530812510974676,0.26165808191337314
16.600999999997306,-0.1669769502739027,0.26271999320237943
16.80099999999755,-0.21449298436774722,0.24715718227230954
17.000999999997795,-0.2651367945210804,0.22732145046610053
17.20099999999804,-0.3137374751331703,0.2177414018603494
17.400999999998284,-0.3657043584355857,0.21968447564956747
17.60099999999853,-0.4107675871162872,0.22535048327918403
17.800999999998773,-0.43795530123064424,0.24416670581925162
18.000999999999017,-0.47094924797009025,0.28943826681534285
18.20099999999926,-0.49617610598647366,0.3397045568397662
18.400999999999506,-0.5124781037964485,0.39072735631018135
18.60099999999975,-0.5117165707818454,0.4496550171247934
18.799999999999994,-0.5101823104220783,0.5150487097442179
19.000000000000238,-0.5167552491042843,0.5888435307664862
19.200000000000482,-0.5282553300426635,0.6577219188523133
19.400000000000727,-0.5335720649455575,0.7079905975878192
19.60000000000097,-0.5299686321002274,0.7811217177623194
19.800000000001216,-0.5079661008717983,0.8408596859610343
20.00000000000146,-0.4587257249898466,0.8811362732940131
