Time (s),X (m),Y (m)
0.001,-0.0005732996449108882,0.0002669654388657892
0.20000000000000015,0.0006394199075262796,-0.0007266099300170557
0.4000000000000003,0.0028607123009882934,-0.001619837945826109
0.6000000000000004,0.024525669725054884,-0.009686404014276511
0.8000000000000006,0.0495327280043428,-0.020421160345300737
1.0000000000000007,0.0688540196837161,-0.027777951125407777
1.2009999999999785,0.0866611051365055,-0.03324677983790036
1.4009999999999565,0.10247488068815823,-0.041819461463415426
1.6009999999999345,0.12336312856259644,-0.06007627279879658
1.8009999999999124,0.15265085109128962,-0.09315136240828609
2.0009999999998906,0.17590980247063304,-0.13125359871448333
2.2009999999998686,0.18158787806428495,-0.17500606091305507
2.4009999999998466,0.16970815095214156,-0.22463802777424355
2.6009999999998246,0.15335205064068802,-0.2692453234376775
2.8009999999998025,0.13783051612471917,-0.3060014477570159
3.0009999999997805,0.11173117031503767,-0.34545975671122997
3.2009999999997585,0.08845166703494965,-0.38184959902730686
3.4009999999997365,0.060244516505959904,-0.39916053132516377
3.6009999999997144,0.030002956321042724,-0.40211191502921595
3.8009999999996924,-0.0035191725382587567,-0.39779915529412174
4.000999999999671,-0.042250668697237474,-0.38136631541137433
4.200999999999738,-0.08173336702845745,-0.36852898023085406
4.400999999999804,-0.11328010993337767,-0.3428667314403729
4.600999999999871,-0.12045508614544555,-0.30440173386908864
4.800999999999938,-0.1143746825835253,-0.2658376651595211
5.000000000000004,-0.07883444914851187,-0.23347588131979768
5.200000000000071,-0.03262274122504952,-0.21712526864942905
5.400000000000138,0.00589907827703037,-0.2114349979734174
5.600000000000205,0.04154001146654138,-0.21224955308834337
5.800000000000272,0.07992325923474713,-0.22265905372074504
6.000000000000338,0.1233785274578928,-0.24010903662862465
6.200000000000405,0.17445417230042393,-0.2634987354741449
6.400000000000472,0.22722301155747904,-0.2928327001280323
6.600000000000539,0.2775683889401496,-0.32027966704072025
6.800000000000606,0.3272361921444632,-0.34661615353542524
7.000000000000672,0.3762200009698945,-0.3691396671355242
7.200000000000739,0.42468189745755736,-0.388680586982891
7.400000000000806,0.4734878619483221,-0.41625485531290474
7.600000000000873,0.5143752132368838,-0.4608420235942944
7.8000000000009395,0.5369361014563013,-0.49472321201167757
8.000000000001005,0.5475495646302035,-0.5377252814629403
8.200000000000895,0.5515507542181408,-0.5879551663436534
8.400000000000784,0.5403673089338159,-0.6412293098214239
8.600000000000673,0.5113450959127659,-0.7038323461598575
8.800000000000562,0.4788820054221554,-0.7731954937926545
9.000000000000451,0.44365113439761117,-0.8440781415237517
9.20000000000034,0.4034907515443912,-0.9209953559770488
9.40000000000023,0.35928068181296,-1.0003727054151565
9.600000000000119,0.31763005998430394,-1.0771310974922816
9.800000000000008,0.2651195812753333,-1.1578093580470281
10.000999999999896,0.21937746940468997,-1.2379212906530084
10.200999999999786,0.18233986846587885,-1.3075064071177165
10.400999999999675,0.13140143500184343,-1.3472382481784602
10.600999999999564,0.06855197690589844,-1.3472561089206125
10.800999999999453,0.0024676677149176,-1.3185334214313138
11.000999999999342,-0.05202351247650682,-1.2790194591503479
11.200999999999231,-0.08309161643271605,-1.2383457176650852
11.40099999999912,-0.0991917647225715,-1.1961062774574946
11.60099999999901,-0.10552454116502656,-1.1452938098389225
11.800999999998899,-0.0983962319498598,-1.0837755362131019
12.000999999998788,-0.07743180993255122,-1.0168036613972244
12.200999999998677,-0.05059334303136638,-0.9481488610243834
12.400999999998566,-0.021144165339072346,-0.8742102514581567
12.600999999998455,0.026060031163760877,-0.8012884170463573
12.800999999998345,0.08930928621765746,-0.7283477044990521
13.000999999998234,0.15164045895678563,-0.6600625277910206
13.200999999998123,0.2067677213278719,-0.6177302625965325
13.400999999998012,0.2703560941030411,-0.613103802799064
13.600999999997901,0.3412806645012867,-0.6354298121014293
13.80099999999779,0.41455365835491237,-0.6744551571196816
14.00099999999768,0.4888343628513986,-0.7176594138772707
14.200999999997569,0.5592731046084863,-0.7690679507684302
14.400999999997458,0.6174558256655462,-0.8401154103991492
14.600999999997347,0.6523441758154809,-0.9001211724452922
14.800999999997236,0.6592144245183253,-0.9639299254145146
15.000999999997125,0.6411144877494198,-1.0318885336736114
15.200999999997014,0.6058525887336009,-1.0984309826688292
15.400999999996904,0.550098092296305,-1.1529791787060064
15.600999999996793,0.4985020467707735,-1.184254126693257
15.800999999996682,0.4434481851147356,-1.1929569396343946
16.000999999996573,0.3838068588692569,-1.179415295732242
16.200999999996817,0.32470863040761755,-1.1622500744987543
16.40099999999706,0.2806318971763177,-1.110917404632061
16.600999999997306,0.27055960449502187,-1.045620303144267
16.80099999999755,0.2875577475251541,-0.9829779942113768
17.000999999997795,0.31358012185609924,-0.9257572995472875
17.20099999999804,0.34584254093377,-0.8697990783497942
17.400999999998284,0.39740174311668564,-0.836430703878771
17.60099999999853,0.4521961527099329,-0.824069329015914
17.800999999998773,0.5117691227604849,-0.8265630459783853
18.000999999999017,0.5755631105113154,-0.8514097775951813
18.20099999999926,0.6392993626044834,-0.888145956062467
18.400999999999506,0.7047369425464377,-0.9181123704706403
18.60099999999975,0.7654535696261119,-0.9527947202342242
18.799999999999994,0.8184309736757092,-1.002152830067279
19.000000000000238,0.8524226232627553,-1.066782586911435
19.200000000000482,0.8602200209660039,-1.1285267798501055
19.400000000000727,0.8392261040075231,-1.2011273277227572
19.60000000000097,0.800325644511063,-1.279314166840662
19.800000000001216,0.771888593154438,-1.3524398803036146
20.00000000000146,0.7326893599750149,-1.4224562805801761
