Time (s),X (m),Y (m)
0.001,0.0007758142491328282,-0.0009692696795465074
0.20000000000000015,0.0008237759539384091,-1.9170417344183553e-05
0.4000000000000003,0.0013192530603394115,-0.00031003463432865416
0.6000000000000004,0.002110629982970383,-0.0005366849302427771
0.8000000000000006,0.003114009428575565,-0.0010085523814953045
1.0000000000000007,0.004519163508606857,-0.001341743850285385
1.2009999999999785,0.006712234088774336,-0.0019482331269912742
1.4009999999999565,0.008865350374497897,-0.0020668730667676802
1.6009999999999345,0.011182383289153126,-0.0024049518813503644
1.8009999999999124,0.013569492257618656,-0.0023437420246682854
2.0009999999998906,0.01583240283377824,-0.002254531656457977
2.2009999999998686,0.017810500545785257,-0.0013889217733783997
2.4009999999998466,0.01978863083080422,-0.0011462608111489565
2.6009999999998246,0.022135819695346136,-0.0010446313249764555
2.8009999999998025,0.024570889651906548,-0.0008942973631703012
3.0009999999997805,0.027345996988731386,-0.00013258346250431385
3.2009999999997585,0.029324972451239377,0.0013537191456537364
3.4009999999997365,0.03205566554108234,0.0017522008544914136
3.6009999999997144,0.03388066511282885,0.003213096229042192
3.8009999999996924,0.034707986796478976,0.005148087676307311
4.000999999999671,0.03613872027938193,0.006678805085294853
4.200999999999738,0.037868699168616266,0.008046196669901287
4.400999999999804,0.03890460819018602,0.009542819481404074
4.600999999999871,0.039819142445155734,0.011316456079972571
4.800999999999938,0.04106011959209471,0.013221945740627721
5.000000000000004,0.04191124865991505,0.01579655601992194
5.200000000000071,0.04311230029055935,0.01869759811276325
5.400000000000138,0.043588348818107865,0.021953783145643942
5.600000000000205,0.04421807150561505,0.02516105685784345
5.800000000000272,0.044655358296563655,0.028558097706127713
6.000000000000338,0.0446204149832062,0.03207263876516341
6.200000000000405,0.045079325771249526,0.035464075607912614
6.400000000000472,0.04501337212879221,0.03912530975063592
6.600000000000539,0.04598049882774226,0.043531800646850506
6.800000000000606,0.04536006708514291,0.04715662043707231
7.000000000000672,0.04517717057046772,0.05033374903932758
7.200000000000739,0.04396963588116559,0.05336594237505191
7.400000000000806,0.0431508173171599,0.05668406694392458
7.600000000000873,0.042322432815534716,0.06080421634436016
7.8000000000009395,0.041518289274498216,0.06518067058565842
8.000000000001005,0.040905586979102515,0.06796277997787724
8.200000000000895,0.03969382252188992,0.07050563921146112
8.400000000000784,0.03810502763073512,0.0725096032531127
8.600000000000673,0.0369802511583778,0.07458997447510365
8.800000000000562,0.034916191230834524,0.07624360167918985
9.000000000000451,0.03242426055375921,0.07751881562955255
9.20000000000034,0.029695094538917263,0.07867514111612399
9.40000000000023,0.026488968251627585,0.07923898017556177
9.600000000000119,0.023180349684016655,0.0798175271292755
9.800000000000008,0.019586418710431937,0.07974643996017451
10.000999999999896,0.01589285196786968,0.07988275399007562
10.200999999999786,0.012045013328671896,0.0803102408696218
10.400999999999675,0.008234824386094412,0.08021755694742717
10.600999999999564,0.00502243388975169,0.08011014663973572
10.800999999999453,0.001225714388148551,0.07945430075929052
11.000999999999342,-0.0030991976112408784,0.07938113458684953
11.200999999999231,-0.007589569961712692,0.0792645985816212
11.40099999999912,-0.010559266758358818,0.07932399483208981
11.60099999999901,-0.01426896542266491,0.07834424253511124
11.800999999998899,-0.01916935489231396,0.07740040441440069
12.000999999998788,-0.023774031046752752,0.07648221301473619
12.200999999998677,-0.028067460850099004,0.07510577660382423
12.400999999998566,-0.03158878857286449,0.0740803712908399
12.600999999998455,-0.034629310300425584,0.07329614094774972
12.800999999998345,-0.03686288091636154,0.07131505503794248
13.000999999998234,-0.03955749110141066,0.06930229822702438
13.200999999998123,-0.041199941864407875,0.06724915462632648
13.400999999998012,-0.04224612974702655,0.06435154528593544
13.600999999997901,-0.04417169360275375,0.061420544307306854
13.80099999999779,-0.04515784977184125,0.05801217916728334
14.00099999999768,-0.045363793077539225,0.0541861092068373
14.200999999997569,-0.04539338344218667,0.0503701944499618
14.400999999997458,-0.04543599618104665,0.04652043056491167
14.600999999997347,-0.04605583677645357,0.04239634247318684
14.800999999997236,-0.04600406188734507,0.03829090618549632
15.000999999997125,-0.04585505352471735,0.034291047214461155
15.200999999997014,-0.04614752890419767,0.029811992889504042
15.400999999996904,-0.04649854350312891,0.025928198270184295
15.600999999996793,-0.046088881768543394,0.02189578522964939
15.800999999996682,-0.0461890957938115,0.018525946309745977
16.000999999996573,-0.044899262853738256,0.014505701486386047
16.200999999996817,-0.04375592250941824,0.011155672276566643
16.40099999999706,-0.04339840405281941,0.007823710949650604
16.600999999997306,-0.04273124655781943,0.004660747853269823
16.80099999999755,-0.040893222607732184,0.001377577946654516
17.000999999997795,-0.038899270992057165,-0.0023259683792441516
17.20099999999804,-0.03649697930562703,-0.005908765674954223
17.400999999998284,-0.034641275819195815,-0.008688086997209153
17.60099999999853,-0.03255015945457254,-0.010958441158408912
17.800999999998773,-0.0296424070158726,-0.0132037286430993
18.000999999999017,-0.026357042247270843,-0.01479608722743382
18.20099999999926,-0.022798732983651822,-0.01588223350496782
18.400999999999506,-0.01917960927113554,-0.016808862426905824
18.60099999999975,-0.015197120809219129,-0.017374898410214192
18.799999999999994,-0.011675668868942588,-0.017549257972669895
19.000000000000238,-0.0076844109549224215,-0.017661245389630795
19.200000000000482,-0.003736019226079353,-0.018038448762139805
19.400000000000727,0.00020009611274861898,-0.017482823782561184
19.60000000000097,0.004085153378121736,-0.01727584921755024
19.800000000001216,0.008547270109839382,-0.018127391135127777
20.00000000000146,0.013260259187632864,-0.017713701031239957
