Time (s),X (m),Y (m)
0.001,0.0014193575185132074,-0.0002669654388657889
0.20000000000000015,0.0008948672940512482,-0.0001032808885063599
0.4000000000000003,0.0013229057213782875,-0.00013346409865249467
0.6000000000000004,0.0020059559766839184,-0.0003496238381189758
0.8000000000000006,0.002866589826096924,-0.0007198831773480728
1.0000000000000007,0.0037671774296921183,-0.0011285662657649937
1.2009999999999785,0.00482173149098408,-0.0015693647728362025
1.4009999999999565,0.005739977929387171,-0.0019331755565976253
1.6009999999999345,0.006642502053801952,-0.0022934629553675607
1.8009999999999124,0.007640604963054937,-0.002714490499788718
2.0009999999998906,0.008742050131259596,-0.0032034859112166623
2.2009999999998686,0.009919113011065428,-0.0037414038647085265
2.4009999999998466,0.011141228793754347,-0.004307635245327502
2.6009999999998246,0.012388827156059955,-0.004890804945978664
2.8009999999998025,0.013652802733633665,-0.005473696942730233
3.0009999999997805,0.014941165097874673,-0.006059350917516399
3.2009999999997585,0.016262908543028778,-0.006655098337207804
3.4009999999997365,0.01761908718998985,-0.007260607175475195
3.6009999999997144,0.019006833490715774,-0.007873402451503602
3.8009999999996924,0.020423453037902474,-0.008492247837000493
4.000999999999671,0.021867915983992466,-0.009115767086297927
4.200999999999738,0.02333981272358901,-0.009743166524130483
4.400999999999804,0.024840509061543403,-0.010374986078584045
4.600999999999871,0.02637086491706763,-0.01101141508627338
4.800999999999938,0.02793113744729093,-0.01165111295840587
5.000000000000004,0.029498203884187786,-0.012272095204749879
5.200000000000071,0.03112694279154198,-0.012888040692153581
5.400000000000138,0.03279111390529896,-0.013490166145092252
5.600000000000205,0.034490850203541056,-0.01407841807555542
5.800000000000272,0.03622671850919284,-0.014652674053921365
6.000000000000338,0.037999245131420015,-0.01521298183381482
6.200000000000405,0.03980874712625264,-0.01575918868403503
6.400000000000472,0.04165531289648896,-0.01629136319065607
6.600000000000539,0.043539070075935764,-0.016809318420329105
6.800000000000606,0.04546037482696857,-0.017312777105697834
7.000000000000672,0.047419342616776224,-0.017801814470710536
7.200000000000739,0.0494164733009529,-0.018276552594045654
7.400000000000806,0.051452082954759136,-0.018736681144334872
7.600000000000873,0.053544021811743295,-0.019193579766065828
7.8000000000009395,0.055868287406185366,-0.019601642838093073
8.000000000001005,0.05823854394413649,-0.019987925785676857
8.200000000000895,0.06062408946082329,-0.020385478850150653
8.400000000000784,0.0630426819718605,-0.02076984645660944
8.600000000000673,0.06559427064848933,-0.021107374533420983
8.800000000000562,0.0683310954775037,-0.021430464588545636
9.000000000000451,0.07115886133234979,-0.02175009082877554
9.20000000000034,0.07399058625903034,-0.022038266147193616
9.40000000000023,0.07678412869501008,-0.022264389366655618
9.600000000000119,0.07969683418271382,-0.02248908817453847
9.800000000000008,0.08272264376097987,-0.022700338871749322
10.000999999999896,0.08563342308900812,-0.022854876198040133
10.200999999999786,0.08867408686458836,-0.02294928020719178
10.400999999999675,0.09161087505749306,-0.022988558129894518
10.600999999999564,0.0946991491163772,-0.022982278689134952
10.800999999999453,0.09776227130503327,-0.022897081163184032
11.000999999999342,0.10081082134820435,-0.022710731277309687
11.200999999999231,0.10401266543971073,-0.0225015820871295
11.40099999999912,0.10718237402403746,-0.022181031842591827
11.60099999999901,0.11032792199364022,-0.021778529074769765
11.800999999998899,0.11345156214748553,-0.021287132826786143
12.000999999998788,0.11661509513383152,-0.020703089994737387
12.200999999998677,0.11969703615934477,-0.020070248602062395
12.400999999998566,0.12282621968377554,-0.01932291084956613
12.600999999998455,0.12598860078885007,-0.01854387366310728
12.800999999998345,0.12919603673114788,-0.017680267402070852
13.000999999998234,0.13222005734331949,-0.01671622020593363
13.200999999998123,0.13539741685279214,-0.01564323226557376
13.400999999998012,0.13851341808242032,-0.014538713425882154
13.600999999997901,0.1415894787139138,-0.013290797812313229
13.80099999999779,0.14474576996018806,-0.01186252362167681
14.00099999999768,0.14760284352498382,-0.010174531970444298
14.200999999997569,0.15060594618050197,-0.007951273743483115
14.400999999997458,0.15358509909336313,-0.005477348851706474
14.600999999997347,0.15625573201262197,-0.0032510202612013937
14.800999999997236,0.15918891469065427,-0.0009217590714366839
15.000999999997125,0.1622050245691942,0.00208075932320499
15.200999999997014,0.16548049187595854,0.005255269150389827
15.400999999996904,0.1681087992481602,0.00816329705840966
15.600999999996793,0.17133271925109358,0.011383442337556497
15.800999999996682,0.17406209763275587,0.015125267731919972
16.000999999996573,0.17721183611015898,0.01851779920478635
16.200999999996817,0.18040219824948658,0.022310033306771535
16.40099999999706,0.1840000430677271,0.02669659430799158
16.600999999997306,0.18681205227251427,0.029973497414425423
16.80099999999755,0.19107261522120403,0.03528265568696606
17.000999999997795,0.1950581751189608,0.04044311983547221
17.20099999999804,0.19938197079138437,0.04567877379095604
17.400999999998284,0.2039944883016999,0.051668817895460545
17.60099999999853,0.20857163433816506,0.0574717752804077
17.800999999998773,0.2132471473264428,0.0637586854935106
18.000999999999017,0.21837415342071456,0.07005723972927425
18.20099999999926,0.22242555212142076,0.07446217906374059
18.400999999999506,0.22698297464768302,0.08043875663397981
18.60099999999975,0.2315900622226864,0.08679136155825527
18.799999999999994,0.23626804132877105,0.09267052516905078
19.000000000000238,0.24038708236735742,0.09716895893557158
19.200000000000482,0.24479036417679417,0.10205667038673152
19.400000000000727,0.2486013173974371,0.10656282742391278
19.60000000000097,0.25303102055687376,0.11140300125809997
19.800000000001216,0.2576964412469744,0.11697098541924954
20.00000000000146,0.26201193030337544,0.1222901416894394
