Time (s),X (m),Y (m)
0.001,0.00024391513958915793,0.0010158048217711127
0.20000000000000015,0.0012900884953991837,-0.0013148585731464484
0.4000000000000003,0.004744664231127845,-0.0023188002781572717
0.6000000000000004,0.012809817493624023,-0.006775514517917606
0.8000000000000006,0.02620493301046602,-0.006339868839849846
1.0000000000000007,0.035946740774647094,-0.00901859290925609
1.2009999999999785,0.04898548071279751,-0.02256057262528397
1.4009999999999565,0.06695992381969695,-0.04605749339366827
1.6009999999999345,0.07017086599953128,-0.07196334261109444
1.8009999999999124,0.060882286380641644,-0.10243008944993523
2.0009999999998906,0.047502104686257034,-0.1367545229037387
2.2009999999998686,0.028519870609274967,-0.1675552435932086
2.4009999999998466,0.0036157575273810753,-0.1820163519306151
2.6009999999998246,-0.023388917863021833,-0.17345844835115512
2.8009999999998025,-0.041508080981247204,-0.1499865264862216
3.0009999999997805,-0.06882126320578051,-0.12996504013235352
3.2009999999997585,-0.0927905035168116,-0.10535657728140913
3.4009999999997365,-0.12346351861404076,-0.07872853535311283
3.6009999999997144,-0.14514710750676596,-0.04392634336537452
3.8009999999996924,-0.16000268845789992,-0.003318722929569302
4.000999999999671,-0.14491184491749226,0.03364356136576705
4.200999999999738,-0.1258313212508601,0.0656224575693746
4.400999999999804,-0.1000075763365181,0.09443855962356593
4.600999999999871,-0.09083142511847375,0.12574273028163152
4.800999999999938,-0.09643980808216751,0.16530959738865625
5.000000000000004,-0.09318585616699882,0.21165761889230858
5.200000000000071,-0.06605802873969456,0.25268002175638093
5.400000000000138,-0.035974871799400204,0.2905725788433936
5.600000000000205,0.005566614044304129,0.3216999123988422
5.800000000000272,0.05922690682411547,0.3429812262241221
6.000000000000338,0.11445703840231558,0.36129779532555195
6.200000000000405,0.16071035337814668,0.38780438764104785
6.400000000000472,0.20391031786412248,0.41618920713991164
6.600000000000539,0.2525121998173207,0.44658677779871564
6.800000000000606,0.2932764597270594,0.4894104493287074
7.000000000000672,0.3017989550540425,0.5439288359486981
7.200000000000739,0.30375848090201946,0.6076346515884892
7.400000000000806,0.3248864856852817,0.6713731780319377
7.600000000000873,0.35795197037594717,0.7353803903910703
7.8000000000009395,0.394139016007417,0.7970518824238393
8.000000000001005,0.4310063287458108,0.8523289949004987
8.200000000000895,0.4523644673491954,0.9146895259964344
8.400000000000784,0.466226144192874,0.9776208185481713
8.600000000000673,0.4690982878041634,1.0426273951228213
8.800000000000562,0.4690576412232631,1.10886859753872
9.000000000000451,0.46571812659347783,1.1801439562194176
9.20000000000034,0.4694102014229977,1.2519152274106313
9.40000000000023,0.4908088949913681,1.3134869447116928
9.600000000000119,0.5082084005318607,1.3752831742745093
9.800000000000008,0.5490779658757482,1.4347442156826458
10.000999999999896,0.5930659230018178,1.4912312556399927
10.200999999999786,0.6420880137188605,1.5438901143072714
10.400999999999675,0.7016726692497793,1.589560989739182
10.600999999999564,0.7593553486884979,1.6312251608266835
10.800999999999453,0.8183790342694118,1.6713925262900506
11.000999999999342,0.8653610441548979,1.712195067904548
11.200999999999231,0.9150031339071006,1.7348844349203563
11.40099999999912,0.9660032929962433,1.7365225238921183
11.60099999999901,1.0162490774713362,1.7228298089322673
11.800999999998899,1.0691284036517592,1.7049152286134557
12.000999999998788,1.0929951940424416,1.6741662384546672
12.200999999998677,1.0761766765437273,1.633098282020117
12.400999999998566,1.064278103373392,1.5783215951468939
12.600999999998455,1.051727531138098,1.5197474329746183
12.800999999998345,1.0307961914696804,1.4633977922668369
13.000999999998234,1.0049085719268096,1.4045435743099088
13.200999999998123,0.9760638730497826,1.3456717245844287
13.400999999998012,0.9415191656050819,1.2931110768240777
13.600999999997901,0.8980273516167344,1.2611197578898812
13.80099999999779,0.8420553151443687,1.230275200992066
14.00099999999768,0.7710460249724627,1.215627318505554
14.200999999997569,0.7065968066092946,1.2166573251970907
14.400999999997458,0.6448862915590472,1.230759252040033
14.600999999997347,0.5869468838139824,1.260556993055458
14.800999999997236,0.5398604456365603,1.3028839123920817
15.000999999997125,0.5028498228497502,1.3562078226741956
15.200999999997014,0.48497326761645326,1.4170074256110012
15.400999999996904,0.4923588657431001,1.4759542952120053
15.600999999996793,0.5192602588414332,1.516119685046185
15.800999999996682,0.5510686149361096,1.5410713671239102
16.000999999996573,0.5873963102465639,1.561376557572605
16.200999999996817,0.6365357810910419,1.5751892010107207
16.40099999999706,0.6937643913619439,1.575519468833024
16.600999999997306,0.7441767004220657,1.5637308660945086
16.80099999999755,0.7916150680724818,1.5502982916815378
17.000999999997795,0.8290990933070972,1.5179673854978757
17.20099999999804,0.8645702066659389,1.472963549504772
17.400999999998284,0.9029745638290688,1.4286245835295164
17.60099999999853,0.933262491760598,1.379244960326467
17.800999999998773,0.9466696021878033,1.3198815678244222
18.000999999999017,0.9513492192981432,1.2574372212092628
18.20099999999926,0.9493742376437982,1.1931507636569394
18.400999999999506,0.9329225799599207,1.1292789289349616
18.60099999999975,0.9048772750146306,1.0724523559800123
18.799999999999994,0.8733459608182602,1.0150417951856987
19.000000000000238,0.8408182716039985,0.9543925493965343
19.200000000000482,0.8052586978124395,0.9014220743657742
19.400000000000727,0.7703451498250057,0.8428921191825566
19.60000000000097,0.722529758186357,0.7953868364436466
19.800000000001216,0.6663118218482564,0.7683531873836659
20.00000000000146,0.6093228836010399,0.7546659403426769
