Time (s),X (m),Y (m)
0.001,0.0010146588340248276,-0.0008449350584490237
0.20000000000000015,7.97358941439291e-05,0.0019427700933629566
0.4000000000000003,0.0015298007681143837,0.010794102852924736
0.6000000000000004,0.007312820503789243,0.019152042286448984
0.8000000000000006,0.030984145713328637,0.005995382088557988
1.0000000000000007,0.060534064736027834,-0.004428211218333215
1.2009999999999785,0.09101076185765379,0.0021733166997738177
1.4009999999999565,0.11107183560655197,-0.015127982648512594
1.6009999999999345,0.1272102425580293,-0.030261164158782262
1.8009999999999124,0.1373751391896905,-0.05770309349341663
2.0009999999998906,0.13589940244832283,-0.09503128840784406
2.2009999999998686,0.13292529830868763,-0.12977997756086906
2.4009999999998466,0.1320195076403059,-0.16346805412070187
2.6009999999998246,0.1356113006523375,-0.20089974721384377
2.8009999999998025,0.1447432802424007,-0.2330951290503482
3.0009999999997805,0.1428960153750203,-0.26567429869065123
3.2009999999997585,0.13605242461699543,-0.2989142617448737
3.4009999999997365,0.11914780713642048,-0.3245858522612545
3.6009999999997144,0.09452167396314018,-0.33963221346943534
3.8009999999996924,0.06579223918680044,-0.3389520016200499
4.000999999999671,0.02919268517368833,-0.3273205345879439
4.200999999999738,-0.008950017024217726,-0.3204074097228664
4.400999999999804,-0.03908718158205336,-0.3075350925525945
4.600999999999871,-0.061514466321425584,-0.2809442722425546
4.800999999999938,-0.07729250066912545,-0.25153135534051774
5.000000000000004,-0.0821583540420112,-0.20023208631192688
5.200000000000071,-0.09183558459682199,-0.1525782745684902
5.400000000000138,-0.0956274269858443,-0.1073479278132843
5.600000000000205,-0.10463081665816604,-0.05680475167961831
5.800000000000272,-0.11071455977891728,0.00017576153817876344
6.000000000000338,-0.11706930129197936,0.06201086474564742
6.200000000000405,-0.10677049534738023,0.13103687850330545
6.400000000000472,-0.0969127067731125,0.19514380142491336
6.600000000000539,-0.09694743590544534,0.2486770116905639
6.800000000000606,-0.10075517591330982,0.3015300222400779
7.000000000000672,-0.10054199386207367,0.36783793789671987
7.200000000000739,-0.09107579568016291,0.44536220964893836
7.400000000000806,-0.07913034807423514,0.5233597557935241
7.600000000000873,-0.07055374299259412,0.5829720811429375
7.8000000000009395,-0.058399524487760146,0.660723495205731
8.000000000001005,-0.04157979828844081,0.7446841699768846
8.200000000000895,-0.027817302488903493,0.8224543131338302
8.400000000000784,-0.024615446807810942,0.8934215430932095
8.600000000000673,-0.030234702408118517,0.9543981525562478
8.800000000000562,-0.03328513323743605,1.03330736997021
9.000000000000451,-0.03507119017793718,1.1207601711722888
9.20000000000034,-0.0345691178926812,1.1981171345494068
9.40000000000023,-0.03976123088640371,1.2628992889187913
9.600000000000119,-0.0472858859183763,1.3271756945565858
9.800000000000008,-0.055239572800311984,1.3913386724758527
10.000999999999896,-0.07074849311072787,1.4501522791908479
10.200999999999786,-0.08429441864228361,1.5025019570774558
10.400999999999675,-0.09816690535326679,1.5571367955098172
10.600999999999564,-0.11173395892350603,1.613912797484572
10.800999999999453,-0.1227852126878748,1.6820188932279345
11.000999999999342,-0.12082599878653004,1.7500374945550672
11.200999999999231,-0.1163983973316014,1.8204843543773273
11.40099999999912,-0.11963171281560313,1.883733487844429
11.60099999999901,-0.136100379187822,1.9500973665681305
11.800999999998899,-0.16726123940143733,2.0150423426996653
12.000999999998788,-0.2061039494925585,2.0837387331709754
12.200999999998677,-0.24188618664126002,2.155063145893399
12.400999999998566,-0.25925144780615794,2.2335938766181
12.600999999998455,-0.2651484428640709,2.3081979233625707
12.800999999998345,-0.26630276736421915,2.3872845845964386
13.000999999998234,-0.2633510745466213,2.472067860774146
13.200999999998123,-0.2609392977357164,2.5498432584507165
13.400999999998012,-0.24746374475567187,2.6349472679853685
13.600999999997901,-0.23685625544671313,2.711558218055759
13.80099999999779,-0.22945305441356667,2.7863413825534464
14.00099999999768,-0.21692193984444846,2.8749948957528657
14.200999999997569,-0.20422355047884116,2.9555707162248837
14.400999999997458,-0.19120314799297503,3.0386140799097108
14.600999999997347,-0.19194050515936262,3.1175218507148945
14.800999999997236,-0.18997269721597676,3.2009567509793713
15.000999999997125,-0.17398280799218738,3.2877090668973423
15.200999999997014,-0.15266126331995206,3.3726001271982757
15.400999999996904,-0.11813748875190518,3.456880232027126
15.600999999996793,-0.056366463970357404,3.5297495811455746
15.800999999996682,0.004051257931498769,3.585909849961417
16.000999999996573,0.06586283680492368,3.624149992229504
16.200999999996817,0.13830729064074965,3.642520613348111
16.40099999999706,0.1927886784769597,3.6233942544323
16.600999999997306,0.21056851515216057,3.5884995507863415
16.80099999999755,0.20937215790031782,3.543307073352795
17.000999999997795,0.18800380772985453,3.491112960019266
17.20099999999804,0.160744200487913,3.4440602832887226
17.400999999998284,0.11820006273779807,3.4115212722520227
17.60099999999853,0.06590191438658395,3.384717155192839
17.800999999998773,0.009439721481332732,3.3568070051028265
18.000999999999017,-0.05388177309842934,3.339763111842479
18.20099999999926,-0.12264598092597745,3.3300047898131497
18.400999999999506,-0.1908466214757782,3.3213892861639893
18.60099999999975,-0.2525835258407417,3.3470006513195134
18.799999999999994,-0.29439627910717425,3.39925656956882
19.000000000000238,-0.318025775852146,3.4673791590668404
19.200000000000482,-0.32922258180518166,3.538845708120514
19.400000000000727,-0.3286418003533143,3.611115904986819
19.60000000000097,-0.31900583302233637,3.6804282317105925
19.800000000001216,-0.3104344963314202,3.7479489085759057
20.00000000000146,-0.29729665204996486,3.820686978882189
