Time (s),X (m),Y (m)
0.001,0.00024391513958915793,0.0010158048217711127
0.20000000000000015,0.0014348460986419523,-0.000909034393217641
0.4000000000000003,0.006983270923574904,0.0016875042397873476
0.6000000000000004,0.013829385227219564,-0.005771046071952619
0.8000000000000006,0.017376625095790122,-0.019695510541798772
1.0000000000000007,0.029026933192912722,-0.035339755451405566
1.2009999999999785,0.041221937030820575,-0.054339530846613276
1.4009999999999565,0.07500563835717942,-0.07888329723975919
1.6009999999999345,0.09282709381219421,-0.10893493011515536
1.8009999999999124,0.08316559534635996,-0.13160336969196285
2.0009999999998906,0.057826366065975174,-0.15179871056641217
2.2009999999998686,0.004180474346959602,-0.16516489004239704
2.4009999999998466,-0.05162718538578693,-0.17710263477240845
2.6009999999998246,-0.09911502790574417,-0.20480353189182493
2.8009999999998025,-0.14741703976285644,-0.21282989521112447
3.0009999999997805,-0.1981805197093286,-0.20534513479984773
3.2009999999997585,-0.24821913194776643,-0.21143939989307495
3.4009999999997365,-0.29456151715288487,-0.2177481875801007
3.6009999999997144,-0.343827767175809,-0.21137476400932395
3.8009999999996924,-0.4005199410531056,-0.20889627465496294
4.000999999999671,-0.4621660910013533,-0.2161217235725828
4.200999999999738,-0.5246735848663612,-0.21735319403150066
4.400999999999804,-0.5774194152554006,-0.2028947665909342
4.600999999999871,-0.6228913459194799,-0.17771808557947735
4.800999999999938,-0.6723759061112733,-0.14689847650134968
5.000000000000004,-0.7275115198821922,-0.11001225901887532
5.200000000000071,-0.7880077715255785,-0.0801089938030152
5.400000000000138,-0.8509002467952517,-0.05519854093086117
5.600000000000205,-0.9151309119688377,-0.03438808266814624
5.800000000000272,-0.9812900803358346,-0.01611057418615382
6.000000000000338,-1.033456569754821,0.012054071414224952
6.200000000000405,-1.066912390504252,0.05422923792020119
6.400000000000472,-1.0946357696556726,0.1102174722543076
6.600000000000539,-1.1199509812297468,0.17408267034239602
6.800000000000606,-1.1182109193738101,0.2286936781238589
7.000000000000672,-1.0942048658094508,0.2720245092442033
7.200000000000739,-1.0610606182681581,0.3136736276593995
7.400000000000806,-1.0222103962984377,0.33052068790497274
7.600000000000873,-0.9771759686190596,0.3399881703200595
7.8000000000009395,-0.9203593539344469,0.3610292189190875
8.000000000001005,-0.8588841025870515,0.37634137589377137
8.200000000000895,-0.7920190461882965,0.3958948045104544
8.400000000000784,-0.7235985217910196,0.38945379174038885
8.600000000000673,-0.6617588820543014,0.36752947107202644
8.800000000000562,-0.6047684938510298,0.3415615981557608
9.000000000000451,-0.5672310761458098,0.3036695060386475
9.20000000000034,-0.5498288711615305,0.25489207264596786
9.40000000000023,-0.5515886548563567,0.19905127749999985
9.600000000000119,-0.5511937635600609,0.13345604292949328
9.800000000000008,-0.5677291762627479,0.07512609875872574
10.000999999999896,-0.5961251922668784,0.03606397213035011
10.200999999999786,-0.6357629175210351,0.023002141836515038
10.400999999999675,-0.6873525573265404,0.02385192677120356
10.600999999999564,-0.7290365339302978,0.045124413246469125
10.800999999999453,-0.7729429443953869,0.07773924004146295
11.000999999999342,-0.7906799616347883,0.11631895407032024
11.200999999999231,-0.7857469866285786,0.1427919633420204
11.40099999999912,-0.7631459397984117,0.15134570337768133
11.60099999999901,-0.7277248111936593,0.16438014067027198
11.800999999998899,-0.6829635634290616,0.17342205445596548
12.000999999998788,-0.6325220858753328,0.1703770854149438
12.200999999998677,-0.5864840216039895,0.15377988668454765
12.400999999998566,-0.5602901623031774,0.1198505402823991
12.600999999998455,-0.5670323831070717,0.08284319540899732
12.800999999998345,-0.5812258978523553,0.041543324910035415
13.000999999998234,-0.5895429560352483,-0.008289044922766917
13.200999999998123,-0.582747320301157,-0.07126627348041048
13.400999999998012,-0.5960619072363094,-0.12740833922469247
13.600999999997901,-0.6209008448469793,-0.17761634679077537
13.80099999999779,-0.6475720186151219,-0.22826678414506177
14.00099999999768,-0.6883712134059723,-0.2720073915732255
14.200999999997569,-0.7402566343193063,-0.3119109422248033
14.400999999997458,-0.7865388089523704,-0.3552642932801481
14.600999999997347,-0.8364445881975249,-0.39224284145891375
14.800999999997236,-0.8935240982691944,-0.4243964475434557
15.000999999997125,-0.954520081854826,-0.42790810561626547
15.200999999997014,-1.0217486368776196,-0.4434675097011985
15.400999999996904,-1.0909300609776593,-0.45146315368630763
15.600999999996793,-1.161032218315363,-0.45439971809155993
15.800999999996682,-1.2336931830082851,-0.45275151652467677
16.000999999996573,-1.312884435942076,-0.45023322202796845
16.200999999996817,-1.393216077419774,-0.44590836552467117
16.40099999999706,-1.4400218965667388,-0.4281126701832666
16.600999999997306,-1.4579400961874744,-0.39743724340108716
16.80099999999755,-1.4621221802368014,-0.35351607331073376
17.000999999997795,-1.4431133472815698,-0.3120771184262771
17.20099999999804,-1.4125686485807643,-0.27285450453513893
17.400999999998284,-1.3807362651793311,-0.268990272198851
17.60099999999853,-1.3387532465877268,-0.2787896255437867
17.800999999998773,-1.2920978797602158,-0.29753745491604705
18.000999999999017,-1.2390093813126897,-0.3146429660194163
18.20099999999926,-1.1851881281287857,-0.335666939781171
18.400999999999506,-1.1282432801978133,-0.35857370249799086
18.60099999999975,-1.0765184166263297,-0.39854558293712544
18.799999999999994,-1.0615385258131866,-0.44424941886515856
19.000000000000238,-1.0708580775435856,-0.4965044418217242
19.200000000000482,-1.0943977942529672,-0.5310349663188925
19.400000000000727,-1.1303677903896792,-0.5381746254037846
19.60000000000097,-1.1702621113174316,-0.5180842924030431
19.800000000001216,-1.2137487369969233,-0.4920164113195869
20.00000000000146,-1.2719050507219318,-0.4669762001986433
