Time (s),X (m),Y (m)
0.001,0.0013578629866597446,-0.0004359202765531099
0.20000000000000015,0.0009228042673468593,-0.00014735883235609068
0.4000000000000003,0.0018791675920272223,-0.000605852478386774
0.6000000000000004,0.0013838706077951362,-0.000181423204823865
0.8000000000000006,0.004542682528956446,-0.001402305642120781
1.0000000000000007,0.007844221693060508,-0.0010938772975931858
1.2009999999999785,0.011113524389747042,-0.0015257459877840872
1.4009999999999565,0.012307588371727901,0.00011463230898340494
1.6009999999999345,0.015277851468009094,-0.001034331454128613
1.8009999999999124,0.02310774329787665,-0.004335961891680058
2.0009999999998906,0.02839410600259451,-0.005008625825234499
2.2009999999998686,0.032310966968262925,-0.006614065291711476
2.4009999999998466,0.03695002488503978,-0.008494349630826433
2.6009999999998246,0.039642166077799953,-0.00885211340393023
2.8009999999998025,0.04642228006865233,-0.011027400162143439
3.0009999999997805,0.053027954734540035,-0.011326826181036661
3.2009999999997585,0.0582589733216135,-0.01017832386994722
3.4009999999997365,0.06214422758605732,-0.011568886311118201
3.6009999999997144,0.06624619283187295,-0.011501546514567177
3.8009999999996924,0.07246925196774791,-0.010136255043448356
4.000999999999671,0.07635101470059565,-0.010773664153836869
4.200999999999738,0.08377871180754676,-0.014234946407949882
4.400999999999804,0.0892572371899891,-0.014214241173468685
4.600999999999871,0.09575729624566658,-0.015061243537567126
4.800999999999938,0.10238270100072822,-0.01652232023784334
5.000000000000004,0.10799895065448933,-0.01668093761475219
5.200000000000071,0.11546661180809197,-0.01772750874136094
5.400000000000138,0.12272161254368635,-0.019607338664044856
5.600000000000205,0.12941829288145076,-0.019698095692945054
5.800000000000272,0.13628308430829247,-0.01958279963515109
6.000000000000338,0.14538901375995383,-0.02383678897591963
6.200000000000405,0.1543442197039321,-0.025113565602287457
6.400000000000472,0.16087292984725463,-0.025326084217608683
6.600000000000539,0.16744341459712675,-0.023362262912510798
6.800000000000606,0.17552204800900378,-0.022114289383678588
7.000000000000672,0.18476009540199997,-0.023363871539864786
7.200000000000739,0.1939833386091656,-0.02744404511256675
7.400000000000806,0.20392918319937037,-0.028817484424543766
7.600000000000873,0.2121682658143881,-0.029726486729823403
7.8000000000009395,0.21998281691113503,-0.033627390945032726
8.000000000001005,0.23162211179721093,-0.039834697365706856
8.200000000000895,0.2398961432099661,-0.043835823612522966
8.400000000000784,0.24846947613571788,-0.04331537218455731
8.600000000000673,0.2559968737991236,-0.04497689046630286
8.800000000000562,0.26462346405027487,-0.04755394417292168
9.000000000000451,0.27419877449153374,-0.05287105467223741
9.20000000000034,0.28158334394242635,-0.053801700983105424
9.40000000000023,0.2896311565428901,-0.055889205334387286
9.600000000000119,0.29730568595853774,-0.05863430881932299
9.800000000000008,0.30356869398711905,-0.062133766243616426
10.000999999999896,0.3076982089347667,-0.066490683839317
10.200999999999786,0.31003014080143754,-0.07447041932864927
10.400999999999675,0.3111513700689517,-0.08484824564387916
10.600999999999564,0.310809925232646,-0.09212551968968437
10.800999999999453,0.31027261484053353,-0.1024630958229892
11.000999999999342,0.3083304618460696,-0.11248818131366334
11.200999999999231,0.3068541579336061,-0.12265452579424663
11.40099999999912,0.30513128027065994,-0.1322892518242611
11.60099999999901,0.3028421327319429,-0.1438584264891684
11.800999999998899,0.29989395534416874,-0.1516561207383939
12.000999999998788,0.29605272427390306,-0.16116137279149673
12.200999999998677,0.2954782482991616,-0.1695523351915186
12.400999999998566,0.29448322131068594,-0.18043572345121323
12.600999999998455,0.2919710294857616,-0.18990663785328032
12.800999999998345,0.28886458495711537,-0.20225370145523583
13.000999999998234,0.2871778116733624,-0.21323409988088246
13.200999999998123,0.2848295455198621,-0.22552637156415595
13.400999999998012,0.2846171157895206,-0.23662718789860018
13.600999999997901,0.28305597856451103,-0.2493494408599995
13.80099999999779,0.2799245595724369,-0.26188161099809115
14.00099999999768,0.2776677695553981,-0.27375685306315517
14.200999999997569,0.2759096794433303,-0.28807309171922896
14.400999999997458,0.272573904360805,-0.3022000108539441
14.600999999997347,0.2689078783536139,-0.31626673473409184
14.800999999997236,0.26543133174038236,-0.32771998019114496
15.000999999997125,0.26416879730845344,-0.34057143981721005
15.200999999997014,0.2627470757525223,-0.3493143403174869
15.400999999996904,0.26224833188973273,-0.36004793148614467
15.600999999996793,0.2608251192743694,-0.37124247019698836
15.800999999996682,0.25937388296919456,-0.38065120517496454
16.000999999996573,0.25760451186672917,-0.3908217659947854
16.200999999996817,0.252574424667784,-0.40419196891182146
16.40099999999706,0.24897126753491464,-0.41469312132927433
16.600999999997306,0.2422320196097044,-0.4306934363751839
16.80099999999755,0.24123894517816147,-0.44215916570468117
17.000999999997795,0.2414314579834826,-0.45306252892166393
17.20099999999804,0.24028472550600666,-0.46561086331932755
17.400999999998284,0.2411758891306987,-0.4772298105870915
17.60099999999853,0.24129517890133978,-0.4891939256589317
17.800999999998773,0.2371946847715398,-0.5001544940806011
18.000999999999017,0.23346605334989162,-0.5092756951314024
18.20099999999926,0.22969195048714028,-0.5180984906734051
18.400999999999506,0.2270186761449339,-0.526079109672845
18.60099999999975,0.22331333622755473,-0.5343470978966678
18.799999999999994,0.21897711095418,-0.5412874911656811
19.000000000000238,0.2128003436034231,-0.5448596408533105
19.200000000000482,0.20328063618440123,-0.5480628422436121
19.400000000000727,0.19435771530797355,-0.5491116011454323
19.60000000000097,0.1828942468034973,-0.549090608665181
19.800000000001216,0.1778218381797513,-0.5482844378763673
20.00000000000146,0.1681281882307445,-0.5482748630219411
