Time (s),X (m),Y (m)
0.001,0.0009387665610552813,-0.0008932837685830058
0.20000000000000015,0.0007497408951977813,0.0002596476589987274
0.4000000000000003,0.004520014935150492,-0.0007691899729802122
0.6000000000000004,0.00949257351754935,-0.002325544146378016
0.8000000000000006,0.01771047674234636,-0.0014897647108044396
1.0000000000000007,0.028285425646351635,-0.004704140569429979
1.2009999999999785,0.03854188200433985,-0.007010361835346461
1.4009999999999565,0.04402522373653829,-0.005841322445772823
1.6009999999999345,0.04896734181641684,0.0017522769687356061
1.8009999999999124,0.055934300281452846,0.00743952898596327
2.0009999999998906,0.05971543205822843,0.02468414555754699
2.2009999999998686,0.054499862668665085,0.03757931704633612
2.4009999999998466,0.05908002563344791,0.047099108304388716
2.6009999999998246,0.07141787394385064,0.05458281719331467
2.8009999999998025,0.08970612874954849,0.05327503660953437
3.0009999999997805,0.10320509404317645,0.05549611339236573
3.2009999999997585,0.1168195663975422,0.051363363281577444
3.4009999999997365,0.1312916830649413,0.05517555331274526
3.6009999999997144,0.14980561424154346,0.06019384121591779
3.8009999999996924,0.16271530492234884,0.061341143466548724
4.000999999999671,0.1794532436315042,0.061614108444968944
4.200999999999738,0.19726630274851725,0.051956048830677795
4.400999999999804,0.2225531805239643,0.044640683050441075
4.600999999999871,0.2357831783275442,0.042364844839845976
4.800999999999938,0.24991156644295767,0.03944912028205655
5.000000000000004,0.2636793708753682,0.04574875137249537
5.200000000000071,0.27462945700727676,0.0552530895554362
5.400000000000138,0.292355423349758,0.05872696851482437
5.600000000000205,0.31365814983610574,0.061183905086371226
5.800000000000272,0.33123190558307375,0.06842826475809165
6.000000000000338,0.3432988119168351,0.07895545959790407
6.200000000000405,0.35423104044840886,0.08083437461608922
6.400000000000472,0.3651859712851874,0.09102090124414766
6.600000000000539,0.3825755944821494,0.09462929874977387
6.800000000000606,0.4021238306012134,0.09831586882495591
7.000000000000672,0.4112240559281864,0.10491071165104035
7.200000000000739,0.4252478373844347,0.11232673093401468
7.400000000000806,0.43342327484219173,0.12127445806589851
7.600000000000873,0.44923267237225967,0.12521048047096878
7.8000000000009395,0.45384694091944655,0.13433266826794438
8.000000000001005,0.4543625644649337,0.14722801333664048
8.200000000000895,0.4563965350316914,0.1568138081580168
8.400000000000784,0.46917613619974113,0.16237518772068602
8.600000000000673,0.478091593813415,0.16931010029254673
8.800000000000562,0.4895612490125952,0.1708978752272897
9.000000000000451,0.5020491563624803,0.17560347705945556
9.20000000000034,0.515082194818037,0.18965792422618744
9.40000000000023,0.5259549949352311,0.20030333696013491
9.600000000000119,0.5298827753628198,0.21177374009471553
9.800000000000008,0.5346146067832602,0.2212459456445798
10.000999999999896,0.5387960137941922,0.22551107848606303
10.200999999999786,0.5395681695284901,0.2368274820293834
10.400999999999675,0.5466611353410568,0.24903812933305505
10.600999999999564,0.5543121432486449,0.2553075712421226
10.800999999999453,0.5619043055043059,0.25653959105207697
11.000999999999342,0.5717334964190516,0.2612567968383822
11.200999999999231,0.5795053164031031,0.2731053379917185
11.40099999999912,0.58666594614181,0.2903971422644902
11.60099999999901,0.6010224853626603,0.299855163674055
11.800999999998899,0.6064266893830372,0.3138673592190718
12.000999999998788,0.6110769470986392,0.3302572357172016
12.200999999998677,0.6289429828247132,0.34104147610012076
12.400999999998566,0.6495815979751886,0.34781673521431394
12.600999999998455,0.6693684862883013,0.35347736913380073
12.800999999998345,0.6769193437359938,0.3575515374269519
13.000999999998234,0.6858987791641282,0.36774483915221007
13.200999999998123,0.6942228273442801,0.3722607366779537
13.400999999998012,0.6980946381472011,0.376774207738603
13.600999999997901,0.7046673141700532,0.38158213446076433
13.80099999999779,0.7092281685874654,0.39368665814199016
14.00099999999768,0.7167524451748896,0.4039364029987104
14.200999999997569,0.7236142778798452,0.41518863622989194
14.400999999997458,0.7248841060325094,0.4292521755522783
14.600999999997347,0.7213499659315633,0.44000928551392093
14.800999999997236,0.7232908226880971,0.4503614471750273
15.000999999997125,0.7297820740510141,0.45914875522592924
15.200999999997014,0.7446609800640714,0.4675199529750107
15.400999999996904,0.7488367096423197,0.4764727697343035
15.600999999996793,0.749508662326263,0.48866152789110656
15.800999999996682,0.7460335100187148,0.4984224145065814
16.000999999996573,0.740514423428374,0.5110103024640666
16.200999999996817,0.7457452516026658,0.5281314074946281
16.40099999999706,0.7527872773346788,0.54472778837531
16.600999999997306,0.761617224907634,0.5583105580472024
16.80099999999755,0.772683143572949,0.567884610064695
17.000999999997795,0.7758808756502015,0.580867864913483
17.20099999999804,0.7831455527905056,0.5924994049386538
17.400999999998284,0.7939051217857186,0.6042271846086928
17.60099999999853,0.7998196403695043,0.6181262688504154
17.800999999998773,0.808289839519417,0.6335925558190559
18.000999999999017,0.8178020125948838,0.6468583250486942
18.20099999999926,0.8279862381709326,0.6591421623947532
18.400999999999506,0.8438070880082101,0.6647553202188616
18.60099999999975,0.8580206054303675,0.67024655123249
18.799999999999994,0.8611619797486784,0.6801391558422836
19.000000000000238,0.8645042318188759,0.6915067554857413
19.200000000000482,0.8723746731834664,0.7056782029144112
19.400000000000727,0.8833340551655263,0.7194031158706053
19.60000000000097,0.8920095409594234,0.7325873054887644
19.800000000001216,0.9033302831355406,0.7436975400276675
20.00000000000146,0.9189083876034532,0.7532607024700184
