Time (s),X (m),Y (m)
0.001,-0.0005118051130574269,0.0004359202765531096
0.20000000000000015,0.000526537633262187,-0.0004837418259118207
0.4000000000000003,0.0032884810380706207,0.0001735878567116945
0.6000000000000004,0.01621543119952198,-0.003936251330638972
0.8000000000000006,0.040530691279787534,-0.010277838783796242
1.0000000000000007,0.06814336555033744,-0.024091120067630877
1.2009999999999785,0.09814372881785763,-0.04485251029432523
1.4009999999999565,0.1262863947590168,-0.05970940994690902
1.6009999999999345,0.15653234834824398,-0.08010583014846853
1.8009999999999124,0.18664716205125154,-0.09699535639285482
2.0009999999998906,0.21210038640767345,-0.10710023563830641
2.2009999999998686,0.23502313949168765,-0.12028953828282887
2.4009999999998466,0.25869235393016354,-0.12918318028276052
2.6009999999998246,0.28388989556601,-0.1464319446304884
2.8009999999998025,0.3147403106839613,-0.16769705153366574
3.0009999999997805,0.3488830777859152,-0.1973585767928325
3.2009999999997585,0.38042673531539384,-0.22805978963311685
3.4009999999997365,0.39876542465745013,-0.26471001920583487
3.6009999999997144,0.40207966714900295,-0.3068345341228986
3.8009999999996924,0.3895247414917172,-0.3503612912779308
4.000999999999671,0.3652365905114023,-0.3970525717044893
4.200999999999738,0.32769977752010143,-0.4458026733821957
4.400999999999804,0.2830234244959065,-0.48721062862675113
4.600999999999871,0.24380589685320433,-0.5151154438828136
4.800999999999938,0.20352907785858815,-0.5252603097500365
5.000000000000004,0.15044900382405085,-0.5228086513163536
5.200000000000071,0.09789209966008985,-0.5168230424766215
5.400000000000138,0.04359446732154331,-0.5047654896024755
5.600000000000205,-0.015934384764549458,-0.48540698978698754
5.800000000000272,-0.07526592480169028,-0.4599990865481608
6.000000000000338,-0.12916233119098122,-0.41975812403799806
6.200000000000405,-0.16506274736717272,-0.3693417426937391
6.400000000000472,-0.17985662887752965,-0.31861004270018206
6.600000000000539,-0.18011434430085974,-0.27468464632235434
6.800000000000606,-0.16761362833269,-0.22522000568112122
7.000000000000672,-0.15120681105020367,-0.16768101939999586
7.200000000000739,-0.13630450437904326,-0.11685026506534013
7.400000000000806,-0.12075646767918892,-0.05683358704556414
7.600000000000873,-0.08932226941851763,0.012797882365401539
7.8000000000009395,-0.04283588622851368,0.07417521339699337
8.000000000001005,0.015244581035826968,0.10768102513446885
8.200000000000895,0.06269627215144727,0.12222245355817206
8.400000000000784,0.11330538166473851,0.12624403782750102
8.600000000000673,0.1716867017642669,0.11332553251030739
8.800000000000562,0.2271725262043498,0.09499625159314226
9.000000000000451,0.2852545543403514,0.06669434116062253
9.20000000000034,0.3258118445350315,0.030234281691106576
9.40000000000023,0.33625775649604484,-0.01886116990066006
9.600000000000119,0.3223663959941678,-0.07795494156910147
9.800000000000008,0.2917072711667842,-0.13648741890589844
10.000999999999896,0.24668814292330976,-0.1939616688038469
10.200999999999786,0.20131466092011144,-0.22658345797736754
10.400999999999675,0.1492303610733761,-0.2129260171240646
10.600999999999564,0.102052183221486,-0.17614549022364515
10.800999999999453,0.08023853111299335,-0.12796386735650458
11.000999999999342,0.08083366150464719,-0.07475854503807215
11.200999999999231,0.08977648177274354,-0.020942381005200746
11.40099999999912,0.10582635540789946,0.034313710005303234
11.60099999999901,0.12244659339000612,0.0945316514662232
11.800999999998899,0.14761273624311858,0.14879097465245897
12.000999999998788,0.19121119793595634,0.21278302239888047
12.200999999998677,0.24625005222904103,0.2650282061896442
12.400999999998566,0.31224836497684655,0.2866509037397904
12.600999999998455,0.3721793709091436,0.2912581219578371
12.800999999998345,0.43999337715276365,0.2636247788185453
13.000999999998234,0.5036187478926405,0.23174684710350144
13.200999999998123,0.5476754106677456,0.18574657336925746
13.400999999998012,0.5718983553340836,0.13695304975856634
13.600999999997901,0.5817113848045741,0.09667291601008453
13.80099999999779,0.5848341780504523,0.061048725532790046
14.00099999999768,0.5800743791012213,0.02387074723607689
14.200999999997569,0.57240378112337,-0.026030568110601816
14.400999999997458,0.5437492323537677,-0.09245890879228119
14.600999999997347,0.5001241510508051,-0.16144172328860082
14.800999999997236,0.4365149547262182,-0.22742925265410752
15.000999999997125,0.38303779751726064,-0.2903552202949555
15.200999999997014,0.3283395026607744,-0.3342856676179487
15.400999999996904,0.26901469802840744,-0.35154345055581043
15.600999999996793,0.20210643547385967,-0.34691861393812357
15.800999999996682,0.13745554264979476,-0.3213388756275252
16.000999999996573,0.09270638557161429,-0.2891341473960909
16.200999999996817,0.0698723037569564,-0.2319382010771247
16.40099999999706,0.060265743142371576,-0.17713562900368698
16.600999999997306,0.06347194628207418,-0.10583437439600288
16.80099999999755,0.0746742648100231,-0.03813589779447505
17.000999999997795,0.09908271697615799,0.03191488441847222
17.20099999999804,0.1337178229611528,0.10333116316895657
17.400999999998284,0.18698005976690604,0.18810791499821738
17.60099999999853,0.24592782348536962,0.2728791270683997
17.800999999998773,0.3166862195119829,0.34585889990597307
18.000999999999017,0.38663143436081887,0.3818063013890425
18.20099999999926,0.4505297918434837,0.3910597832848707
18.400999999999506,0.49636456593999745,0.37666935077247365
18.60099999999975,0.5148225159289471,0.3438676211247536
18.799999999999994,0.5104385891656539,0.2983209052365023
19.000000000000238,0.4985223626288648,0.2431365891531448
19.200000000000482,0.4870802991271756,0.18700123260902551
19.400000000000727,0.46497886892834317,0.14123303542090596
19.60000000000097,0.4185284375789598,0.11464428423484009
19.800000000001216,0.36211331343952896,0.10984255309614153
20.00000000000146,0.31131467754036435,0.12079490679921623
