Time (s),X (m),Y (m)
0.001,7.024362446948994e-05,-0.0009692696795465074
0.20000000000000015,0.0018192452935357946,0.0010891088787740105
0.4000000000000003,0.006333366245067446,0.003078545837444422
0.6000000000000004,0.016317375896670185,0.011400021925812673
0.8000000000000006,0.03524747773545913,0.023175420901422873
1.0000000000000007,0.05230780029911698,0.03246697016072664
1.2009999999999785,0.07891605701829849,0.04647232484959372
1.4009999999999565,0.10058132009697648,0.05803313677181666
1.6009999999999345,0.11466160620506381,0.06324923867878303
1.8009999999999124,0.12962448469458349,0.0624248557686267
2.0009999999998906,0.13506623266051662,0.05849514257033708
2.2009999999998686,0.15075366633008586,0.05056917372058476
2.4009999999998466,0.1525875896800638,0.039366316390138725
2.6009999999998246,0.15179316591374892,0.024217635544908984
2.8009999999998025,0.15332461543737833,0.007512081377193305
3.0009999999997805,0.17323950598634255,-0.021455525699456888
3.2009999999997585,0.19689854242769653,-0.05053208403915597
3.4009999999997365,0.20863080361907857,-0.07201177733719777
3.6009999999997144,0.21886128703206764,-0.1125843867361308
3.8009999999996924,0.21766982011009778,-0.1487774237626059
4.000999999999671,0.2026173691604021,-0.1704988444244646
4.200999999999738,0.18253019473774126,-0.19529198898937739
4.400999999999804,0.1560359565417298,-0.22450230619595377
4.600999999999871,0.13264015817833488,-0.2430519350975327
4.800999999999938,0.10908962774400528,-0.27341575871973345
5.000000000000004,0.08113241312373352,-0.28459164379583674
5.200000000000071,0.050831416513187636,-0.30127103007071826
5.400000000000138,0.011154397675777462,-0.32546684962398376
5.600000000000205,-0.03136553008898502,-0.36208785123961296
5.800000000000272,-0.07626234015753577,-0.39735823860844494
6.000000000000338,-0.11088463425003471,-0.4226076798651733
6.200000000000405,-0.1466244547839026,-0.44921465816213363
6.400000000000472,-0.18588187939291212,-0.47524511919421014
6.600000000000539,-0.22800827599449414,-0.5040146589154492
6.800000000000606,-0.27732171755827423,-0.536754648670427
7.000000000000672,-0.33742316083860957,-0.5654429635433563
7.200000000000739,-0.3901902828543986,-0.5847201478361651
7.400000000000806,-0.436179726660646,-0.5982931898752752
7.600000000000873,-0.5016919140161172,-0.6103700328142124
7.8000000000009395,-0.5577324331202483,-0.6146145955626486
8.000000000001005,-0.6075757168240062,-0.6041237421391714
8.200000000000895,-0.6616466583578143,-0.5811790996478224
8.400000000000784,-0.6921193448935631,-0.55029857716319
8.600000000000673,-0.72280839158533,-0.5080202621776168
8.800000000000562,-0.767964738526332,-0.4636115321486987
9.000000000000451,-0.803857546374606,-0.41265089517397446
9.20000000000034,-0.8362336385281663,-0.3581641991396974
9.40000000000023,-0.8682144579424658,-0.30032660366969127
9.600000000000119,-0.8930545958835409,-0.24710827607571256
9.800000000000008,-0.9144443921021967,-0.19171318592607145
10.000999999999896,-0.9317409251516532,-0.13683333426334435
10.200999999999786,-0.9496301490504844,-0.08147056014476986
10.400999999999675,-0.9639543730739818,-0.02160893314676782
10.600999999999564,-0.9721154844391611,0.03347449344362714
10.800999999999453,-0.9626062934097986,0.0723213599159988
11.000999999999342,-0.9344820851212883,0.09824644690716501
11.200999999999231,-0.9000299585301109,0.12245123311471014
11.40099999999912,-0.8481663353603026,0.16109711638673313
11.60099999999901,-0.7865750624246716,0.19787547531984986
11.800999999998899,-0.7220223343303841,0.23457974224407802
12.000999999998788,-0.6386724129135026,0.2656466768359066
12.200999999998677,-0.5697331078572883,0.2845490555211884
12.400999999998566,-0.5201477553703185,0.29576951382993655
12.600999999998455,-0.4960222672585641,0.29017709347746806
12.800999999998345,-0.4730030968746203,0.26973305534107395
13.000999999998234,-0.44499132160720256,0.23653648347978923
13.200999999998123,-0.4138080078388343,0.20023346284727267
13.400999999998012,-0.3782490039678272,0.16060347654906756
13.600999999997901,-0.3386480188081418,0.1243375952410425
13.80099999999779,-0.29767022301180157,0.07777737526678707
14.00099999999768,-0.26415702868657454,0.03294955830727064
14.200999999997569,-0.23892212160467766,-0.014561036684328926
14.400999999997458,-0.20610594952685596,-0.06313250078060936
14.600999999997347,-0.16843529948514516,-0.10568723646205465
14.800999999997236,-0.13635613428927848,-0.1549795657810545
15.000999999997125,-0.10791364120319301,-0.21071944327434924
15.200999999997014,-0.07302303017952305,-0.2709707586585497
15.400999999996904,-0.03822161294817095,-0.33240469292624936
15.600999999996793,0.001928822460994494,-0.3999772756754219
15.800999999996682,0.030230531527277074,-0.465014765842515
16.000999999996573,0.0590701850231688,-0.5315495703955831
16.200999999996817,0.08844274203231502,-0.5989416048002377
16.40099999999706,0.11514990666227456,-0.6757023773714002
16.600999999997306,0.14859584595991937,-0.747161817477065
16.80099999999755,0.17487986602505762,-0.8269942213419686
17.000999999997795,0.19193524563998304,-0.8996700645644361
17.20099999999804,0.1932428973148102,-0.9444957027338782
17.400999999998284,0.18506668010293734,-0.9825375941892852
17.60099999999853,0.1733646833760034,-1.0224975612474048
17.800999999998773,0.144117178505656,-1.0547714438467442
18.000999999999017,0.09324245229937102,-1.0791749395377774
18.20099999999926,0.033249469578426054,-1.1010309811306753
18.400999999999506,-0.032042394067846716,-1.1177186562264811
18.60099999999975,-0.10972128969379798,-1.1353064128725596
18.799999999999994,-0.1926901828521302,-1.1518771561792565
19.000000000000238,-0.26530006464108036,-1.1630300276529244
19.200000000000482,-0.32625977693991426,-1.1635601483786833
19.400000000000727,-0.37862059512834717,-1.1424703304062296
19.60000000000097,-0.4170634254451429,-1.1035556553320207
19.800000000001216,-0.44999963625401357,-1.052416150870696
20.00000000000146,-0.4770102940931659,-0.9931181684355351
