Time (s),X (m),Y (m)
0.001,0.0014388337585722719,0.00017911379721200063
0.20000000000000015,0.0005819228713749925,-0.00017272658556798375
0.4000000000000003,0.0012634255938869451,-4.318559540608757e-05
0.6000000000000004,0.001879795934836799,3.02726883915207e-06
0.8000000000000006,0.0025236647800824085,9.162623826258018e-05
1.0000000000000007,0.0033702215398327623,0.00024087844710704874
1.2009999999999785,0.003998513182496412,0.0003299908972590445
1.4009999999999565,0.004791065237806537,0.0004478870374829189
1.6009999999999345,0.005603904902415373,0.0005749100312597756
1.8009999999999124,0.006380382803617793,0.0007096825898327433
2.0009999999998906,0.007192478638629431,0.0008682667158969561
2.2009999999998686,0.008034801322914387,0.0010442133397956612
2.4009999999998466,0.008892104913177046,0.0012301191274525327
2.6009999999998246,0.00977136531554458,0.001425156220505417
2.8009999999998025,0.010672885928409995,0.0016307273500347867
3.0009999999997805,0.011594329549123388,0.0018471935736333244
3.2009999999997585,0.012534640649214224,0.0020745654299696597
3.4009999999997365,0.013494365496607324,0.0023131579662321036
3.6009999999997144,0.014472979042381425,0.002561565041932736
3.8009999999996924,0.015469768707608805,0.0028194375148410207
4.000999999999671,0.016484696464663606,0.003086444607374618
4.200999999999738,0.017517072372354187,0.0033625263377978533
4.400999999999804,0.018566352399160248,0.00364745227549475
4.600999999999871,0.019632096527789078,0.003940994350649854
4.800999999999938,0.020713671495188376,0.004242902671950991
5.000000000000004,0.02181276108100216,0.00455263542289829
5.200000000000071,0.022923944299662706,0.004871228676134599
5.400000000000138,0.024048707492589135,0.005197981661909661
5.600000000000205,0.0251871252055227,0.005532705780293259
5.800000000000272,0.0263393086929141,0.0058752771050225834
6.000000000000338,0.02750527557752945,0.006225586470300533
6.200000000000405,0.02868518654624243,0.006583622163977547
6.400000000000472,0.02987912802284165,0.006949435968118957
6.600000000000539,0.031087112414588555,0.0073229477801304505
6.800000000000606,0.032309184592657074,0.007704092537168726
7.000000000000672,0.03354545912440324,0.008092824683870594
7.200000000000739,0.03479612957036271,0.008489114327116404
7.400000000000806,0.03606137620046301,0.008892929558407925
7.600000000000873,0.03734126175856656,0.009304249144863339
7.8000000000009395,0.03863589037317453,0.009723139856597516
8.000000000001005,0.039945391780826366,0.010149699384966144
8.200000000000895,0.04126991760211223,0.010583881426017516
8.400000000000784,0.042609578692154045,0.011025685403216322
8.600000000000673,0.04396457713210536,0.01147512634816067
8.800000000000562,0.0453351182112911,0.011932229384856455
9.000000000000451,0.04672140684697701,0.012397021334280023
9.20000000000034,0.04812359514444656,0.012869545902859133
9.40000000000023,0.04954182636087695,0.01334984251149793
9.600000000000119,0.050976250222982245,0.01383795504119838
9.800000000000008,0.052427024744624615,0.014333932450025863
10.000999999999896,0.05389290703181898,0.014839654130145213
10.200999999999786,0.055378527784024655,0.015355289295487415
10.400999999999675,0.056883135891526104,0.015883092999858867
10.600999999999564,0.05840763412543305,0.01642347009827861
10.800999999999453,0.05995354713872858,0.016973544569426964
11.000999999999342,0.06161487760980269,0.017548860349514816
11.200999999999231,0.06332202869798524,0.01814992843513599
11.40099999999912,0.06503446312848223,0.018756431901283406
11.60099999999901,0.06688571199466478,0.019404236950554876
11.800999999998899,0.06876417659352356,0.020070721678564378
12.000999999998788,0.07081848460636,0.020773741142207983
12.200999999998677,0.07286397303200307,0.021501492063921396
12.400999999998566,0.07496125643781323,0.022253837726560654
12.600999999998455,0.07710385217880217,0.02303180328160351
12.800999999998345,0.07924454687930205,0.023828106924709654
13.000999999998234,0.08141950420177142,0.02466448632273751
13.200999999998123,0.0836567453567029,0.025531553935652096
13.400999999998012,0.08593692952737832,0.02641255947165481
13.600999999997901,0.08819737865954294,0.02729953691959967
13.80099999999779,0.09049491496879124,0.028228850243887417
14.00099999999768,0.0928348453895468,0.02918755954250592
14.200999999997569,0.09521437236114887,0.030170400538668752
14.400999999997458,0.09761892190887153,0.03118253155462307
14.600999999997347,0.10002806167255275,0.032219353378882626
14.800999999997236,0.10243801496741313,0.033279329005486684
15.000999999997125,0.1049180300361206,0.03438031969170389
15.200999999997014,0.10739809680988505,0.03549660017314793
15.400999999996904,0.10987343736291315,0.036628176876375304
15.600999999996793,0.11238846323447013,0.037807243267481874
15.800999999996682,0.11495078022393637,0.03902071213112797
16.000999999996573,0.1176562056439026,0.04027424558203639
16.200999999996817,0.12035997104619695,0.04160204045122797
16.40099999999706,0.12308713721995802,0.04295980834543973
16.600999999997306,0.12590086396959832,0.04438613794911195
16.80099999999755,0.12870179239291407,0.04584061101681444
17.000999999997795,0.13157562315361954,0.047348167606571
17.20099999999804,0.13445170252599895,0.04889450339031263
17.400999999998284,0.1373025273309921,0.0504511078758668
17.60099999999853,0.14019300467600518,0.05206923769237836
17.800999999998773,0.14309316941754482,0.05371146013925049
18.000999999999017,0.14607839620103447,0.055418243145279565
18.20099999999926,0.1490596293518297,0.05716176588545646
18.400999999999506,0.15198271535967525,0.05892241119709966
18.60099999999975,0.15491634098320184,0.06070679288777697
18.799999999999994,0.15788675169561295,0.06253564795168856
19.000000000000238,0.16091849734236094,0.06442577608132298
19.200000000000482,0.16392503771923006,0.06634354064847711
19.400000000000727,0.16694386261608518,0.06827590972380199
19.60000000000097,0.16994571833499553,0.07027113850201144
19.800000000001216,0.1729876962665476,0.07229607883005955
20.00000000000146,0.17601875533330566,0.07433090451782737
