Time (s),X (m),Y (m)
0.001,-0.00060452123697562,8.989899140956135e-05
0.20000000000000015,0.002377189300666721,-0.0006818804077523788
0.4000000000000003,-0.001496000105510732,0.00246354308817512
0.6000000000000004,0.0007302320478061106,0.0025905292173641604
0.8000000000000006,0.01594013822042629,-0.0015054974810242115
1.0000000000000007,0.023733324946624584,-0.006421035512121754
1.2009999999999785,0.0367927280387936,-0.0148417949265168
1.4009999999999565,0.052941865129913016,-0.019355455973733855
1.6009999999999345,0.07144597631317715,-0.034937023250830396
1.8009999999999124,0.0878576880888834,-0.047871281140654656
2.0009999999998906,0.09760544609347914,-0.06003887417008036
2.2009999999998686,0.09805476193813084,-0.07972125922217949
2.4009999999998466,0.09089968633092459,-0.11280044585629738
2.6009999999998246,0.0704656201313586,-0.16196732586013107
2.8009999999998025,0.044663041392637645,-0.20764253554551593
3.0009999999997805,0.01638090562808496,-0.2502605054120623
3.2009999999997585,-0.006092730581363447,-0.2923340565840259
3.4009999999997365,-0.029411021221838644,-0.3255102832470644
3.6009999999997144,-0.054917766174358715,-0.34392661199141605
3.8009999999996924,-0.08345202187045211,-0.34111478433762055
4.000999999999671,-0.11027594170041966,-0.33005509050070847
4.200999999999738,-0.14369827504286029,-0.307585035804584
4.400999999999804,-0.17683233037949597,-0.2836147859364959
4.600999999999871,-0.1997253026616582,-0.2647132722441086
4.800999999999938,-0.23017253580606575,-0.23700952177615345
5.000000000000004,-0.26961405589705695,-0.20245862992546984
5.200000000000071,-0.31509941922627605,-0.15952680025785462
5.400000000000138,-0.36373425947815846,-0.12234418031413309
5.600000000000205,-0.4123343973992454,-0.08723901298477374
5.800000000000272,-0.46343404412350675,-0.048501158065386275
6.000000000000338,-0.4985849741815031,0.005985855706822099
6.200000000000405,-0.5061596328232089,0.054814142430334806
6.400000000000472,-0.4956065598806996,0.11077646224134206
6.600000000000539,-0.4781997136458341,0.1607092593820143
6.800000000000606,-0.45267066989560895,0.21073639171687195
7.000000000000672,-0.42259780166260447,0.264892724554662
7.200000000000739,-0.39184671986750297,0.32096773288194735
7.400000000000806,-0.3489473839887587,0.38252638242275566
7.600000000000873,-0.3082844329661489,0.4388272095966476
7.8000000000009395,-0.2642331732480813,0.48415485476306647
8.000000000001005,-0.2212785085171133,0.5019761481272675
8.200000000000895,-0.1707691462399849,0.4989908356941343
8.400000000000784,-0.11133448402062876,0.48261461429316066
8.600000000000673,-0.05162611279758237,0.4500297901916539
8.800000000000562,0.00023696954747456266,0.40524341610059095
9.000000000000451,0.03530366916093055,0.36053873513927487
9.20000000000034,0.04934499051077622,0.3139938460141751
9.40000000000023,0.04695729289144153,0.26607658214288593
9.600000000000119,0.02674371890441918,0.19977165090203658
9.800000000000008,-0.011684583451176553,0.12204560042012685
10.000999999999896,-0.051661882144731906,0.04446055497045671
10.200999999999786,-0.08845910714903142,-0.032341880475044035
10.400999999999675,-0.12804987110578359,-0.10663304819301148
10.600999999999564,-0.1763931570138025,-0.1828135177661285
10.800999999999453,-0.22467230243541034,-0.25131620619847334
11.000999999999342,-0.2736819279195229,-0.32039336922041756
11.200999999999231,-0.33044990287494336,-0.3892490596687616
11.40099999999912,-0.3935384677181844,-0.4525603866029455
11.60099999999901,-0.4572324548943368,-0.5021395112988484
11.800999999998899,-0.5234046423021601,-0.5228236408292227
12.000999999998788,-0.587786384633579,-0.5133601652628961
12.200999999998677,-0.6504909755363367,-0.4864190629711379
12.400999999998566,-0.7093191616211257,-0.44805920188407644
12.600999999998455,-0.7418801182962718,-0.4040782643143823
12.800999999998345,-0.7355565336010199,-0.352869917496031
13.000999999998234,-0.7115382580927865,-0.30287613060166185
13.200999999998123,-0.6859587610327529,-0.259316246251238
13.400999999998012,-0.662026477151603,-0.21354875016685712
13.600999999997901,-0.6343447881108772,-0.16198898213072535
13.80099999999779,-0.5965906124181252,-0.10115992667519763
14.00099999999768,-0.546646078180865,-0.036028106956579965
14.200999999997569,-0.4822884665535966,0.01107580399668881
14.400999999997458,-0.4191149550111408,0.03631468807753723
14.600999999997347,-0.36031224077461954,0.04103229844184181
14.800999999997236,-0.304792604509325,0.02724833974509784
15.000999999997125,-0.2409192384960383,0.00190408261188238
15.200999999997014,-0.18524311948713795,-0.022751491879472115
15.400999999996904,-0.13296221785014412,-0.049208233462866804
15.600999999996793,-0.07546126514884781,-0.087639547141789
15.800999999996682,-0.019633657062237624,-0.1262861301956256
16.000999999996573,0.02091103677845392,-0.18106076952537883
16.200999999996817,0.027343611080115803,-0.2426409366941322
16.40099999999706,0.01092267162914957,-0.30379277687875644
16.600999999997306,-0.016469619852862005,-0.36727999917437687
16.80099999999755,-0.05264517266861993,-0.4341612773280283
17.000999999997795,-0.09658020809513305,-0.5074151157436553
17.20099999999804,-0.1373664412872237,-0.574539968904387
17.400999999998284,-0.17957099895539233,-0.6480398512675689
17.60099999999853,-0.22123813643733622,-0.7244574781783129
17.800999999998773,-0.26329942714676724,-0.7973780834144634
18.000999999999017,-0.31019154865054965,-0.8721524426144737
18.20099999999926,-0.362451366789257,-0.9413491678086661
18.400999999999506,-0.4323932732357427,-0.9932966457857481
18.60099999999975,-0.49276158303072776,-1.0138687564043376
18.799999999999994,-0.538906447773927,-1.0158404967180945
19.000000000000238,-0.5899132312827607,-1.0015020210471057
19.200000000000482,-0.6434111909728812,-0.9816422162437309
19.400000000000727,-0.7051242921625017,-0.9486224435946606
19.60000000000097,-0.7699858937544347,-0.9080725499071447
19.800000000001216,-0.8337057477139828,-0.8645642522149481
20.00000000000146,-0.8996669133214291,-0.8120778938028117
