Time (s),X (m),Y (m)
0.001,-0.00042190612164786544,-0.0005916298972236683
0.20000000000000015,0.0008287622148089579,-8.047689991901288e-06
0.4000000000000003,0.002036198332388637,0.0005783338183512543
0.6000000000000004,0.003981321471239833,0.0006325511401818817
0.8000000000000006,0.0075031135400235255,0.0005574791880523916
1.0000000000000007,0.010142259905238047,0.0014438948022133156
1.2009999999999785,0.01438934903192133,0.006231385252510899
1.4009999999999565,0.02023303189097061,0.008982646257133072
1.6009999999999345,0.022738975849285623,0.009498970174467339
1.8009999999999124,0.026340669530363146,0.010221839178591955
2.0009999999998906,0.03497026714864995,0.016230306461362535
2.2009999999998686,0.04090614041047046,0.018793277701502912
2.4009999999998466,0.04598782378196354,0.020677165857026218
2.6009999999998246,0.05035038816831671,0.02390083070632004
2.8009999999998025,0.05455024798206643,0.026111699091513594
3.0009999999997805,0.06159155167094316,0.027892137711513266
3.2009999999997585,0.06613751063101689,0.03222495753272972
3.4009999999997365,0.07165498649167057,0.035845351733521456
3.6009999999997144,0.07931454982456544,0.037642743380060274
3.8009999999996924,0.08576303637576548,0.03934707214798005
4.000999999999671,0.0903522596705483,0.0474496449300182
4.200999999999738,0.095239663626036,0.054488431204564876
4.400999999999804,0.10070025686250035,0.05845765306728104
4.600999999999871,0.10507645365202674,0.0640321095908637
4.800999999999938,0.11237272457872317,0.06668990092641254
5.000000000000004,0.11341035439820837,0.07043739496053615
5.200000000000071,0.11487531791292223,0.0735134058024928
5.400000000000138,0.116265914516657,0.07864742246569426
5.600000000000205,0.11906885370388917,0.08430094421484838
5.800000000000272,0.12069364817873811,0.09249904202301108
6.000000000000338,0.12250471252960017,0.09744043258135904
6.200000000000405,0.12306888804925538,0.10493907343896046
6.400000000000472,0.12603539174607978,0.10999692906612249
6.600000000000539,0.12715083399399088,0.11566894608210511
6.800000000000606,0.12569461923762862,0.12277024103147335
7.000000000000672,0.12416554555005503,0.12957246823318536
7.200000000000739,0.12299800740109858,0.1362173353042442
7.400000000000806,0.11987708158795032,0.14470680504334918
7.600000000000873,0.11742676130235973,0.15375860670976488
7.8000000000009395,0.11099479437926962,0.16389097997307756
8.000000000001005,0.10429683120694182,0.17346404911833854
8.200000000000895,0.09972588777342146,0.18365245885871562
8.400000000000784,0.09599205300671426,0.1919948305939557
8.600000000000673,0.09162066868930005,0.20037734681706215
8.800000000000562,0.0859060973301045,0.21044646766051575
9.000000000000451,0.08112293217299348,0.21895251607674254
9.20000000000034,0.07527853514973408,0.2275622764905848
9.40000000000023,0.06572651865493995,0.2365504440168562
9.600000000000119,0.055551350237430686,0.24449389594800233
9.800000000000008,0.049554907748744915,0.2542594200744267
10.000999999999896,0.039767919702643484,0.26211698247594634
10.200999999999786,0.034239414807608996,0.2701274394212093
10.400999999999675,0.02588815839833933,0.2774726696096656
10.600999999999564,0.021540843163821124,0.28468279972285
10.800999999999453,0.012053289342308543,0.2898138716800096
11.000999999999342,0.003940261332337655,0.29533316175906554
11.200999999999231,-0.00033062569596042853,0.30215274289297495
11.40099999999912,-0.011779101364250361,0.30258149766702247
11.60099999999901,-0.018968071370264464,0.3043430326457945
11.800999999998899,-0.025878145357382337,0.30545332715357615
12.000999999998788,-0.034306159089958745,0.3064187891831347
12.200999999998677,-0.03907006003431342,0.3113423738767473
12.400999999998566,-0.04690876228328149,0.3113155240284799
12.600999999998455,-0.05643787490695585,0.3116405577131201
12.800999999998345,-0.06685618541983457,0.31060639548658103
13.000999999998234,-0.07585226342479381,0.3102309500625046
13.200999999998123,-0.08527936470165193,0.30892700466280953
13.400999999998012,-0.09591008768258771,0.30416863897195767
13.600999999997901,-0.10810624869963349,0.2999137671923354
13.80099999999779,-0.11907822186866793,0.29443287178895644
14.00099999999768,-0.12896720880537724,0.2896439013438648
14.200999999997569,-0.13723308693661918,0.28322074478402914
14.400999999997458,-0.1466952105409254,0.2800067844118028
14.600999999997347,-0.15640228688105937,0.27706132276359985
14.800999999997236,-0.1670985889981036,0.2688697881811606
15.000999999997125,-0.17808513311074306,0.26518504052360337
15.200999999997014,-0.18760188719514004,0.25910149970112983
15.400999999996904,-0.19833430590633103,0.2562542976512366
15.600999999996793,-0.20683588360399868,0.2472873335322787
15.800999999996682,-0.214266667684634,0.23700609528847527
16.000999999996573,-0.2205882690186206,0.22878732060679596
16.200999999996817,-0.22801392287830874,0.2179589819302408
16.40099999999706,-0.23457516269101755,0.20962183383623176
16.600999999997306,-0.2408480440097148,0.20281079193006776
16.80099999999755,-0.24484148865703745,0.18871720563252406
17.000999999997795,-0.24854246166941624,0.18074223544177662
17.20099999999804,-0.2516843138905009,0.17490715161803705
17.400999999998284,-0.2543615568041071,0.16847233072735948
17.60099999999853,-0.2566881660505988,0.15969126287009955
17.800999999998773,-0.2586045376861627,0.14873953309243013
18.000999999999017,-0.26050707910612336,0.14062676171546962
18.20099999999926,-0.2614786824715668,0.13111696831541356
18.400999999999506,-0.26490279034713676,0.12178799195805655
18.60099999999975,-0.26470738482472833,0.10862645811319072
18.799999999999994,-0.26407325144996646,0.09863899817183243
19.000000000000238,-0.2645827264933183,0.09005782671505837
19.200000000000482,-0.26348285353564715,0.07914432006523962
19.400000000000727,-0.2655450557980814,0.07256833478979834
19.60000000000097,-0.26424380437813805,0.06396742894755095
19.800000000001216,-0.264070854913018,0.05453634638722303
20.00000000000146,-0.26056642516659806,0.043210971740068514
