Time (s),X (m),Y (m)
0.001,0.0006021427340131596,-0.0010158048217711122
0.20000000000000015,0.0009567035679279526,0.0012887380638600125
0.4000000000000003,0.0015789944119058712,0.004540668675464906
0.6000000000000004,0.008820219706651372,0.00011924979067215158
0.8000000000000006,0.021668908113102046,-0.006189284124096572
1.0000000000000007,0.0465443111768647,-0.003790259781529323
1.2009999999999785,0.06940305755953635,-0.007469289874759957
1.4009999999999565,0.1017115270743429,-0.015750863582078934
1.6009999999999345,0.13590253883499467,-0.027893896932023834
1.8009999999999124,0.1630678702583734,-0.04974391795965111
2.0009999999998906,0.16255900120568686,-0.07316577653596332
2.2009999999998686,0.15084021056313202,-0.09378428385312507
2.4009999999998466,0.1383921778722061,-0.12069515942728981
2.6009999999998246,0.11487883949681421,-0.14924423600821737
2.8009999999998025,0.08275400024361404,-0.17630835949598264
3.0009999999997805,0.0470783316895614,-0.1984336175001582
3.2009999999997585,0.020714298787018692,-0.22386097679911957
3.4009999999997365,-0.006027621589159875,-0.26995361358324854
3.6009999999997144,-0.04002695991707594,-0.30956495895500374
3.8009999999996924,-0.07923936208555475,-0.33255181252398236
4.000999999999671,-0.12094501819628921,-0.3497463227218089
4.200999999999738,-0.16637008535620645,-0.36440221744471196
4.400999999999804,-0.21003282282776484,-0.37455989347018137
4.600999999999871,-0.24831672475339725,-0.3718705410934346
4.800999999999938,-0.2659487208864017,-0.3431565292190289
5.000000000000004,-0.2706478641052616,-0.3095441705903682
5.200000000000071,-0.2690652388394769,-0.2713446481711731
5.400000000000138,-0.2671323732938125,-0.22990826184065158
5.600000000000205,-0.2606096319095634,-0.17888506961049874
5.800000000000272,-0.2749809555083523,-0.11756168492955524
6.000000000000338,-0.28518944100110694,-0.055186371754392456
6.200000000000405,-0.2889667225346804,0.0017824458048244461
6.400000000000472,-0.278113203401472,0.05358720464494067
6.600000000000539,-0.2505247413083115,0.08803720497511436
6.800000000000606,-0.21003046864549826,0.10722699985150783
7.000000000000672,-0.16814203115395684,0.10488025785082332
7.200000000000739,-0.12331971380068167,0.09671985108360484
7.400000000000806,-0.0822954312781666,0.07769042901095077
7.600000000000873,-0.04186294845640371,0.04917216080477499
7.8000000000009395,0.0028971189883867936,0.029196113227971804
8.000000000001005,0.0527977526634611,0.012204718100603636
8.200000000000895,0.10475628598672289,-0.0017340563507964887
8.400000000000784,0.1535499589674161,-0.01342191015532449
8.600000000000673,0.20326438669321562,-0.017228295184385706
8.800000000000562,0.2564286668016877,-0.028966022111421075
9.000000000000451,0.3035174831820872,-0.05685587073323736
9.20000000000034,0.35709839082556083,-0.08427767895270936
9.40000000000023,0.38810322462268937,-0.11790562087608801
9.600000000000119,0.3945250539115852,-0.1602961131624677
9.800000000000008,0.3826903331411708,-0.20088222093272826
10.000999999999896,0.36203892658033376,-0.2414266061394008
10.200999999999786,0.34018245765052746,-0.28057283642359643
10.400999999999675,0.31703121721855787,-0.31983368165366804
10.600999999999564,0.29313019900862125,-0.3592931343136931
10.800999999999453,0.26586707759617356,-0.39539222339556723
11.000999999999342,0.2247451674546671,-0.4192402828170772
11.200999999999231,0.17986689271722187,-0.4229170123192349
11.40099999999912,0.12966123631231286,-0.4125013287188038
11.60099999999901,0.07177923651288061,-0.39996604459752744
11.800999999998899,0.026114089589165054,-0.3801003506027938
12.000999999998788,0.004584890385319437,-0.35136611855955613
12.200999999998677,-0.00195862085985645,-0.3107967618225158
12.400999999998566,-0.011439475546973695,-0.26188601842220344
12.600999999998455,-0.026543751339542482,-0.20408011536235918
12.800999999998345,-0.017998991026763944,-0.14694191319839361
13.000999999998234,0.014479436444205117,-0.10461966224964325
13.200999999998123,0.052070213198324146,-0.07719956641643003
13.400999999998012,0.09933564019423798,-0.08305752942736624
13.600999999997901,0.14544732662287302,-0.10776371986231777
13.80099999999779,0.18655599723275293,-0.14625309774615555
14.00099999999768,0.23268959252041438,-0.1769871808140028
14.200999999997569,0.26806885496660127,-0.20982613338631773
14.400999999997458,0.3082912272912258,-0.2428603378021522
14.600999999997347,0.3230245423779845,-0.2840532089188944
14.800999999997236,0.32378428167042733,-0.33204036958088107
15.000999999997125,0.31786675452984114,-0.3860020219836909
15.200999999997014,0.3291561544336864,-0.4439818211871287
15.400999999996904,0.32827367371776134,-0.4929250555849834
15.600999999996793,0.3214701890633937,-0.5463196598031272
15.800999999996682,0.3010570015347846,-0.6003862885813065
16.000999999996573,0.2747649609700062,-0.6524668040859545
16.200999999996817,0.24594968654101038,-0.6990447770469372
16.40099999999706,0.21217587367674617,-0.7434143215492305
16.600999999997306,0.1690095911366498,-0.7772759129262038
16.80099999999755,0.1176302252029985,-0.8113284101805349
17.000999999997795,0.06447468270843605,-0.8210416954157562
17.20099999999804,0.01180940533378038,-0.8184218000249041
17.400999999998284,-0.039934515037102936,-0.8037761506283156
17.60099999999853,-0.0920964891337806,-0.7771387171950553
17.800999999998773,-0.1267041331259425,-0.7444533315378571
18.000999999999017,-0.13123226111208675,-0.7089297900263701
18.20099999999926,-0.12374784681909723,-0.6671404724962609
18.400999999999506,-0.12290197533482518,-0.6118131586455485
18.60099999999975,-0.1169317034386933,-0.5580090242359396
18.799999999999994,-0.09855639252614126,-0.5107203250823262
19.000000000000238,-0.06902066659254663,-0.4681209826606796
19.200000000000482,-0.05565210884518489,-0.41804872409690036
19.400000000000727,-0.053173851923695586,-0.3612993924382811
19.60000000000097,-0.056152918201752944,-0.2948573921812405
19.800000000001216,-0.05402103285445857,-0.22387301753221567
20.00000000000146,-0.038452329574993144,-0.1564286187189504
