Time (s),X (m),Y (m)
0.001,0.0013163127053841656,-0.0005157376242541218
0.20000000000000015,0.0008717651978267113,-0.00012080377737311028
0.4000000000000003,0.0015258423791358461,-0.00041263656043994876
0.6000000000000004,0.0023530835552459115,-0.0009297707755477421
0.8000000000000006,0.003317780274870771,-0.0015862332446462408
1.0000000000000007,0.001968573429417083,0.00019439176402592602
1.2009999999999785,0.0032438148653189136,-0.00018004085280022298
1.4009999999999565,0.003588518742204738,0.0005372325838348541
1.6009999999999345,0.003442880587929688,0.0017161773015664738
1.8009999999999124,0.0049356062229277825,0.002178209483372541
2.0009999999998906,0.006639577113150052,0.00237882474272435
2.2009999999998686,0.008855777608288573,0.002422329543524554
2.4009999999998466,0.011288882535201671,0.002265683883915474
2.6009999999998246,0.013100218281639523,0.003089744348127004
2.8009999999998025,0.014857928058918697,0.004083221445068395
3.0009999999997805,0.017750975417070113,0.004426634810770804
3.2009999999997585,0.021177264748631727,0.004718939597341179
3.4009999999997365,0.023962776318311497,0.0057416365954458615
3.6009999999997144,0.02672313816126974,0.005000965394874095
3.8009999999996924,0.02866638385515324,0.004489067664405752
4.000999999999671,0.030414537401337358,0.003874673640285044
4.200999999999738,0.03191917013658577,0.003077830746500819
4.400999999999804,0.03361996099787507,0.0024011342566642056
4.600999999999871,0.03574725454757489,0.0019547014339723525
4.800999999999938,0.03767014120723103,0.0018003488759855766
5.000000000000004,0.0396473184073085,0.002498247077082357
5.200000000000071,0.04114058694492517,0.0030737232965324696
5.400000000000138,0.04294231496365644,0.00410128484472712
5.600000000000205,0.044749032505818784,0.005391061511855426
5.800000000000272,0.04702076696111731,0.007444908407299975
6.000000000000338,0.049716201932350844,0.010223081975129026
6.200000000000405,0.052037274530910685,0.012683162166231986
6.400000000000472,0.054250285079996935,0.015359458505728488
6.600000000000539,0.05624752775200016,0.018003502488365575
6.800000000000606,0.05755804700443661,0.020829654859056797
7.000000000000672,0.058950663743731146,0.023903394330455748
7.200000000000739,0.06003165421651701,0.02682759261010154
7.400000000000806,0.06158957503719296,0.03007628237702665
7.600000000000873,0.06328530169474511,0.03381872650084997
7.8000000000009395,0.0650090902683541,0.03769281617112872
8.000000000001005,0.0669256010435945,0.04133148973390863
8.200000000000895,0.06898754842991313,0.04528333553167769
8.400000000000784,0.07078439908664486,0.049127309390143745
8.600000000000673,0.07279193107259117,0.05337883816130732
8.800000000000562,0.07465948433827795,0.05746826315744922
9.000000000000451,0.07648521651644397,0.06308862454249498
9.20000000000034,0.07840290172129702,0.06861257784771398
9.40000000000023,0.0805166514882622,0.07409126027381281
9.600000000000119,0.08295820210526895,0.07812722052744127
9.800000000000008,0.0847854445939666,0.0829169019292495
10.000999999999896,0.0869989692787345,0.08864607186587976
10.200999999999786,0.08882546408563842,0.09394708994239742
10.400999999999675,0.09062245865270832,0.09900147351101608
10.600999999999564,0.09205843794611085,0.10544448143016838
10.800999999999453,0.09373417343952435,0.10979392252624212
11.000999999999342,0.0955228461985183,0.1148219360666093
11.200999999999231,0.0974383766299155,0.12012137891681253
11.40099999999912,0.09875310115142028,0.12657683331023076
11.60099999999901,0.10093639080108864,0.13347706375018167
11.800999999998899,0.10171975421785419,0.13986027007888457
12.000999999998788,0.1029902627842874,0.14660527358972608
12.200999999998677,0.10484503085068593,0.1532515044993677
12.400999999998566,0.10497409749464698,0.15954491032729942
12.600999999998455,0.10487949417993465,0.1649485089285296
12.800999999998345,0.10434743323732701,0.17096661794218684
13.000999999998234,0.10390609735814949,0.17626414394615597
13.200999999998123,0.10325056734400206,0.18248253420502725
13.400999999998012,0.1027028574647034,0.18794577628081316
13.600999999997901,0.10172335971753363,0.1939946240889166
13.80099999999779,0.10081726746226528,0.19934091300879866
14.00099999999768,0.0993991003445131,0.20534646047358468
14.200999999997569,0.09802928691083002,0.2104172584467462
14.400999999997458,0.09685039477564358,0.2156422987723099
14.600999999997347,0.0952250366831038,0.22142651484214795
14.800999999997236,0.09304000893328579,0.22641408094203053
15.000999999997125,0.09010594360755991,0.23248373750019286
15.200999999997014,0.08713997710021697,0.23768812748275472
15.400999999996904,0.0835673279927518,0.24400849324493157
15.600999999996793,0.08017949899902872,0.2486221012644538
15.800999999996682,0.07570440349967326,0.25445056538373356
16.000999999996573,0.0717494890536125,0.2599707546880776
16.200999999996817,0.06715079738707234,0.26487899802450454
16.40099999999706,0.062439433018183436,0.2693765158173291
16.600999999997306,0.05801386048796068,0.2734962308283729
16.80099999999755,0.053563769081028105,0.27899419473456927
17.000999999997795,0.04934270147831134,0.2859014716309966
17.20099999999804,0.043986862616787845,0.29093497142086294
17.400999999998284,0.040157306605178876,0.2954353473582831
17.60099999999853,0.03442504362751048,0.29961988419005675
17.800999999998773,0.02819785982547811,0.30333551277769283
18.000999999999017,0.021997089203166894,0.30718630240881245
18.20099999999926,0.015869086450694434,0.3114924971063178
18.400999999999506,0.009467526580077561,0.31469260616650074
18.60099999999975,0.0026515707711991833,0.3177894869790798
18.799999999999994,-0.0027369743716082542,0.32258832596206105
19.000000000000238,-0.009618430370522494,0.32583858618718764
19.200000000000482,-0.01740150158504851,0.3296260012484153
19.400000000000727,-0.024890646633296598,0.3326004355189168
19.60000000000097,-0.03244604749069657,0.33570720681269384
19.800000000001216,-0.04021051167495042,0.3395437194058962
20.00000000000146,-0.04781044931743789,0.34240700021279696
