Time (s),X (m),Y (m)
0.001,0.0006899943756669482,0.0009963285817120476
0.20000000000000015,0.0008509467238794634,-0.0004100573270258022
0.4000000000000003,0.003149584626517816,0.0015467653588470244
0.6000000000000004,0.008487074765844529,0.004413964492446166
0.8000000000000006,0.019097216891937763,0.00892290239804181
1.0000000000000007,0.02572569480623469,0.01368110551304775
1.2009999999999785,0.03839828870596058,0.01860648329706048
1.4009999999999565,0.045609649835823766,0.014920064288261618
1.6009999999999345,0.054500461262519354,0.010884478867003854
1.8009999999999124,0.05942929193426975,0.008257540586857352
2.0009999999998906,0.05799012864610655,-0.0014818832589224575
2.2009999999998686,0.06225483177717445,-0.007958238802478302
2.4009999999998466,0.07044853612940077,-0.010198814417823056
2.6009999999998246,0.07816611646895649,-0.022663860565996858
2.8009999999998025,0.08736097921606562,-0.027983262485600166
3.0009999999997805,0.10070057125512342,-0.023570714644613834
3.2009999999997585,0.11386012052403076,-0.024093801688616377
3.4009999999997365,0.1266869160673938,-0.020061914032904072
3.6009999999997144,0.1338185347120353,-0.024119594712960407
3.8009999999996924,0.13987032883881279,-0.0244460968214322
4.000999999999671,0.1539230230958168,-0.01975788849815463
4.200999999999738,0.16844921544970456,-0.016770392712919656
4.400999999999804,0.18659434140303313,-0.020964178015856972
4.600999999999871,0.20066400227907588,-0.02682312202599616
4.800999999999938,0.21743825550853885,-0.030262737634427283
5.000000000000004,0.23839119571027115,-0.024273412198075786
5.200000000000071,0.25634748899682736,-0.016548207682676102
5.400000000000138,0.2777273313740511,-0.015848619402853825
5.600000000000205,0.29853138153724756,-0.01854379842903722
5.800000000000272,0.320477723990381,-0.021307383780964938
6.000000000000338,0.3438456490500495,-0.01699073285212288
6.200000000000405,0.3643985199587799,-0.014662486469390203
6.400000000000472,0.3853178650561635,-0.007204627152454927
6.600000000000539,0.40456635226821813,-0.007797258130307435
6.800000000000606,0.4173172537322262,-0.013040870410487551
7.000000000000672,0.43654525144983664,-0.01280903963981517
7.200000000000739,0.4609756894707309,-0.0025884011007815027
7.400000000000806,0.483037177797385,-0.0015335304827533824
7.600000000000873,0.5073201227627684,0.0033729082933574715
7.8000000000009395,0.5342860115617397,0.007782565275004688
8.000000000001005,0.5554519449054532,0.013625914456062376
8.200000000000895,0.5780393520505129,0.020641126530549753
8.400000000000784,0.6004178974174593,0.027491759433270334
8.600000000000673,0.625943281040312,0.03803377548710299
8.800000000000562,0.6515475126140147,0.03915240934744621
9.000000000000451,0.6736643067710042,0.042832792652358745
9.20000000000034,0.6989692549144462,0.045374911119180426
9.40000000000023,0.7265925830537002,0.06130341938446142
9.600000000000119,0.7539680496278583,0.07482004697807941
9.800000000000008,0.7790779271530341,0.08606057357682056
10.000999999999896,0.8060124131209127,0.09234207592847306
10.200999999999786,0.8289860402917885,0.10120842244128002
10.400999999999675,0.8501265006634835,0.10914822404680016
10.600999999999564,0.870445573531282,0.1068387210142019
10.800999999999453,0.8897226268896539,0.10949009283071681
11.000999999999342,0.9139684267206941,0.11549712065191158
11.200999999999231,0.9326311299357603,0.11394172140379642
11.40099999999912,0.9543897855201428,0.11520304123517895
11.60099999999901,0.975086096447513,0.1148258789271294
11.800999999998899,0.9938618302301866,0.11394397834265953
12.000999999998788,1.0186025869756583,0.1204891825851503
12.200999999998677,1.0482695664035644,0.1272255968756722
12.400999999998566,1.084169169231888,0.1446800888796608
12.600999999998455,1.11633627828505,0.15814928843059617
12.800999999998345,1.1474524505697783,0.16601456596090794
13.000999999998234,1.1729929373671877,0.16118780941014318
13.200999999998123,1.1964469898865882,0.15949775490480517
13.400999999998012,1.214506571179479,0.16246147415998688
13.600999999997901,1.236172746172224,0.165557450102692
13.80099999999779,1.2629492593478953,0.17444007515370086
14.00099999999768,1.2959157776662251,0.1788104887790515
14.200999999997569,1.3250112833090641,0.18353880614933563
14.400999999997458,1.3499470744843978,0.1844023893199792
14.600999999997347,1.372522565689188,0.18759659747190763
14.800999999997236,1.3947368421381183,0.18497605867718594
15.000999999997125,1.418409686505857,0.18848150919122517
15.200999999997014,1.4465921369453658,0.19680674913055318
15.400999999996904,1.4752371018038974,0.20545107111013525
15.600999999996793,1.500415367022048,0.21209595141334514
15.800999999996682,1.5266854024983763,0.21752477040402657
16.000999999996573,1.5539142632211256,0.2190358905162493
16.200999999996817,1.5821876825178052,0.22059198038234268
16.40099999999706,1.6107629268857162,0.2343168572200446
16.600999999997306,1.6348958474550823,0.23837733444722448
16.80099999999755,1.6572373420256519,0.23829641527490095
17.000999999997795,1.6811043604546265,0.24457794764533483
17.20099999999804,1.7037345977504388,0.2541604393900413
17.400999999998284,1.7244625277037542,0.2635472738669926
17.60099999999853,1.7481064399115342,0.26128599877370445
17.800999999998773,1.77497134368749,0.26431437081192444
18.000999999999017,1.8025638609586887,0.2770717521416324
18.20099999999926,1.8284548600448696,0.27061175596028725
18.400999999999506,1.853981523045253,0.2710699407031225
18.60099999999975,1.875483944975071,0.2735323241951765
18.799999999999994,1.897819805972121,0.27186902908451377
19.000000000000238,1.920054019653684,0.28011763684548285
19.200000000000482,1.9477892908648915,0.28481917753063346
19.400000000000727,1.9712775435616599,0.29265686925179707
19.60000000000097,1.9892192436680864,0.296953829374782
19.800000000001216,2.0058079257287713,0.30074429944016
20.00000000000146,2.0253153032664284,0.30945522887094445
