Time (s),X (m),Y (m)
0.001,0.001267963995250183,0.0005916298972236683
0.20000000000000015,0.0006943546339411957,-5.552330471788235e-05
0.4000000000000003,0.0018414389758184143,0.0004362072344475525
0.6000000000000004,0.003277834037470638,0.0011468097917647108
0.8000000000000006,0.0037682566937886465,0.0012013579009699038
1.0000000000000007,0.007240759225842843,0.0052597939440077995
1.2009999999999785,0.020857063423675427,0.009200711861223515
1.4009999999999565,0.025773218426154574,0.013630764649615025
1.6009999999999345,0.030647947689287115,0.01665710154090715
1.8009999999999124,0.04229640766798683,0.02038805405910769
2.0009999999998906,0.052887139152107784,0.022166792936705277
2.2009999999998686,0.05795300745844104,0.024891504945482902
2.4009999999998466,0.06453568803868281,0.028772844779918424
2.6009999999998246,0.07454333806105842,0.03495614468040072
2.8009999999998025,0.08845834786117016,0.04055613781693801
3.0009999999997805,0.09963341837656957,0.05056776573237664
3.2009999999997585,0.11381977508813934,0.060293859228118266
3.4009999999997365,0.12620473061685833,0.07642517348458647
3.6009999999997144,0.1377526532863693,0.09359383010321498
3.8009999999996924,0.14943060835245436,0.10338021123534412
4.000999999999671,0.16062695425156426,0.12092205455813843
4.200999999999738,0.17275856241615023,0.13824381288386317
4.400999999999804,0.18551030055608048,0.156945641687026
4.600999999999871,0.19521515035151532,0.16773965729226184
4.800999999999938,0.2027508210384746,0.1870459451689835
5.000000000000004,0.20930951125062197,0.20333488786771775
5.200000000000071,0.21691420138469658,0.22304621929077462
5.400000000000138,0.2189447167796254,0.2491976526740035
5.600000000000205,0.21766155187728675,0.26689870326392234
5.800000000000272,0.22331515209396108,0.2812865144438338
6.000000000000338,0.232975872528569,0.3000834653905842
6.200000000000405,0.2461017955850054,0.32238205261735026
6.400000000000472,0.2562230994297145,0.34919912642176837
6.600000000000539,0.26388062228792175,0.36917791561592306
6.800000000000606,0.2726731468031478,0.3917095687384747
7.000000000000672,0.2881911749077925,0.40686480903971733
7.200000000000739,0.3036500304212251,0.42262157494608266
7.400000000000806,0.3163450331731967,0.4460372789575724
7.600000000000873,0.33316565016678634,0.47335370356573864
7.8000000000009395,0.3502799693221496,0.49173318150051826
8.000000000001005,0.3634436762016818,0.5138655188630826
8.200000000000895,0.3751491017216167,0.5268567575527484
8.400000000000784,0.38488561571183955,0.5528106025843325
8.600000000000673,0.39808630738211565,0.5705079531787981
8.800000000000562,0.4142174878084223,0.5902963835200042
9.000000000000451,0.43222479036991196,0.6141692016741913
9.20000000000034,0.4463395354334993,0.6276362136458906
9.40000000000023,0.4555718475029021,0.6540097084642378
9.600000000000119,0.4627072518367575,0.6874136722586012
9.800000000000008,0.4674476870692379,0.7133403325302016
10.000999999999896,0.4696771308220567,0.7339452273058651
10.200999999999786,0.46568350552881044,0.7574518475598264
10.400999999999675,0.46149199835996324,0.7787243378123664
10.600999999999564,0.45952841562787816,0.7998946688023305
10.800999999999453,0.4604460306052439,0.8296673069591852
11.000999999999342,0.4625727795469865,0.8453995406087169
11.200999999999231,0.4671844319545881,0.863532574946339
11.40099999999912,0.47519091897321536,0.8815020344561694
11.60099999999901,0.48171457586229105,0.9121630604685714
11.800999999998899,0.48947907074974434,0.9436226958211389
12.000999999998788,0.49239043120698767,0.9657736068354491
12.200999999998677,0.49645843003935897,0.9900259428944514
12.400999999998566,0.49799601406030425,1.016855145847396
12.600999999998455,0.49601314982173056,1.0446309628522485
12.800999999998345,0.4926900965942286,1.068128280309572
13.000999999998234,0.48815005319533195,1.0867268831480459
13.200999999998123,0.47714731431001234,1.1178746924072283
13.400999999998012,0.46611239068667765,1.148521754099433
13.600999999997901,0.45281450836753095,1.1792550172849818
13.80099999999779,0.43807558498690796,1.2121932239451838
14.00099999999768,0.42755837838144983,1.2471363217080886
14.200999999997569,0.4271217588074294,1.269806747212844
14.400999999997458,0.4311082901121907,1.2918092244457302
14.600999999997347,0.4315438064500393,1.3126624457718792
14.800999999997236,0.4323175771009819,1.3335219099863063
15.000999999997125,0.4315971691085604,1.3500373924982503
15.200999999997014,0.4295528582421781,1.3773076736512753
15.400999999996904,0.4300941166584317,1.402574248151729
15.600999999996793,0.4328113058431581,1.442750302609022
15.800999999996682,0.43773751639559444,1.4718105995581172
16.000999999996573,0.44547739250272794,1.4924838597610495
16.200999999996817,0.4529798710696991,1.5199866277343446
16.40099999999706,0.4569104409268711,1.5490774712405635
16.600999999997306,0.4552730275212496,1.5796418539354786
16.80099999999755,0.4509927793319608,1.611905541344751
17.000999999997795,0.45229659401600186,1.6375155703425481
17.20099999999804,0.4620087226657352,1.6560580704382755
17.400999999998284,0.47570025373317887,1.6685267281676066
17.60099999999853,0.4888177105622072,1.6979272841742212
17.800999999998773,0.4997706538711903,1.730324947149435
18.000999999999017,0.5077922883436065,1.764184830494467
18.20099999999926,0.5142451862250538,1.7993511290745972
18.400999999999506,0.5166857625860198,1.8300772691488025
18.60099999999975,0.5225687557542771,1.8474130997740708
18.799999999999994,0.5300368985678132,1.8755142984373911
19.000000000000238,0.5380764772841552,1.9042752150732207
19.200000000000482,0.5441693151247721,1.9262107227417073
19.400000000000727,0.5492608698313671,1.950985582873276
19.60000000000097,0.5522968611868764,1.978222046343279
19.800000000001216,0.556640505031676,1.997899361906774
20.00000000000146,0.558168948218992,2.023931251382439
