Time (s),X (m),Y (m)
0.001,-0.00023999057263828476,-0.0007901558823345064
0.20000000000000015,0.0008359456892017521,-1.4964701728510377e-05
0.4000000000000003,0.001986678513867802,2.961157091363144e-05
0.6000000000000004,0.004489786932509935,-0.0014708378839328102
0.8000000000000006,0.010596270276491116,-7.724384754173133e-05
1.0000000000000007,0.018872157125151882,0.006788768383729924
1.2009999999999785,0.028227914792969003,0.011016300517657542
1.4009999999999565,0.03558498633401014,0.013163300025400797
1.6009999999999345,0.035073316936848634,0.011023078574079295
1.8009999999999124,0.033849919721517026,0.011114312646592784
2.0009999999998906,0.03924599812390075,0.015225815235673748
2.2009999999998686,0.04442675383467947,0.01806540416300648
2.4009999999998466,0.04562199194387596,0.01798016596175848
2.6009999999998246,0.046837774816161123,0.020320589284658182
2.8009999999998025,0.051238609277890375,0.020907321507308233
3.0009999999997805,0.05571323660085174,0.023238260607030943
3.2009999999997585,0.05965655246872086,0.022260878535528175
3.4009999999997365,0.06566393144271138,0.022402358731885362
3.6009999999997144,0.06891134419670455,0.023420387908187432
3.8009999999996924,0.07215528733276742,0.028280713139857864
4.000999999999671,0.07732319824979662,0.031097855040171485
4.200999999999738,0.08421311118517488,0.03422806064634646
4.400999999999804,0.09000019616863124,0.03580895102822195
4.600999999999871,0.09530368857498275,0.040387755696754686
4.800999999999938,0.10636467442065647,0.04773598306191077
5.000000000000004,0.11740450231429689,0.05732592298997449
5.200000000000071,0.1275629578440844,0.06293869726211339
5.400000000000138,0.1373197235651055,0.06981699490992166
5.600000000000205,0.1473765509037162,0.0741858653440972
5.800000000000272,0.15472664183814458,0.08598726592294281
6.000000000000338,0.1629613970982314,0.09313516606268007
6.200000000000405,0.17158278511378056,0.1030296636613827
6.400000000000472,0.1773453863292057,0.11615631941530824
6.600000000000539,0.1813766684049539,0.12995120024516915
6.800000000000606,0.18658090996006052,0.13822383264899166
7.000000000000672,0.19363155309859378,0.1415467838659596
7.200000000000739,0.19765851422840533,0.14845909323129838
7.400000000000806,0.20259577979844473,0.1555292037167961
7.600000000000873,0.20737730988131325,0.1675805794879837
7.8000000000009395,0.2138683604181928,0.18139704354267294
8.000000000001005,0.2208038021328538,0.2014398200085681
8.200000000000895,0.22685023642187568,0.21017856436677207
8.400000000000784,0.23281464496683857,0.22184043432262368
8.600000000000673,0.23942781520486478,0.23118184131881914
8.800000000000562,0.24484174421817698,0.2409998446789657
9.000000000000451,0.24651403786915363,0.25726167004576606
9.20000000000034,0.24781161108507618,0.2784049391146808
9.40000000000023,0.25317366849828515,0.29054198617263854
9.600000000000119,0.259635467367847,0.3038165727155997
9.800000000000008,0.2667131676820477,0.31475574085697794
10.000999999999896,0.27041862355364155,0.33026499644412544
10.200999999999786,0.2755900089692189,0.34221116634341325
10.400999999999675,0.2743311047805494,0.3605832314755112
10.600999999999564,0.2738699210923669,0.38013340643119514
10.800999999999453,0.27122448042055847,0.40222666172315175
11.000999999999342,0.27230484653923037,0.41568556736028517
11.200999999999231,0.27309649139430164,0.429156138843352
11.40099999999912,0.2759444391415568,0.439047853456542
11.60099999999901,0.27545554922738186,0.45588793460991667
11.800999999998899,0.27333804679290463,0.4732547168918354
12.000999999998788,0.2711347345769278,0.49089872874473617
12.200999999998677,0.2709756393139798,0.49991087891445285
12.400999999998566,0.2660303986922654,0.5171391323819997
12.600999999998455,0.2628399633530484,0.5310686701659212
12.800999999998345,0.26329520567452547,0.5445992754439403
13.000999999998234,0.25788689586160524,0.5578176872564087
13.200999999998123,0.2523447278116217,0.5693310385812607
13.400999999998012,0.24519590156833085,0.5822528901665298
13.600999999997901,0.24065948421754532,0.5991563672656021
13.80099999999779,0.2385293120872037,0.6142237194879839
14.00099999999768,0.22734119505871275,0.6270065248417185
14.200999999997569,0.21575682997440454,0.6419823569217422
14.400999999997458,0.20110705108381716,0.6570412919903216
14.600999999997347,0.184005752795461,0.670715036469013
14.800999999997236,0.16895208731199637,0.6834333733321672
15.000999999997125,0.1562618259047998,0.6939953555990945
15.200999999997014,0.14455249586840815,0.7031554518057588
15.400999999996904,0.1359727382052555,0.7138244173312953
15.600999999996793,0.12297597219559703,0.7215938710617203
15.800999999996682,0.11274902326131636,0.7301227222109445
16.000999999996573,0.09685553923205412,0.7360529226542203
16.200999999996817,0.08096926015008973,0.7417242096210765
16.40099999999706,0.0666899322835447,0.7461525890792365
16.600999999997306,0.05347943900074858,0.7500872655862482
16.80099999999755,0.038628690640030675,0.7513916425043387
17.000999999997795,0.02448607445881316,0.7514872976523872
17.20099999999804,0.008642922109602621,0.750416620916694
17.400999999998284,-0.004721116622395094,0.7492145657871561
17.60099999999853,-0.01682374677699314,0.7496107979958324
17.800999999998773,-0.03448074082402783,0.7490051342676068
18.000999999999017,-0.050182930199991795,0.7474031468556287
18.20099999999926,-0.0681179806893978,0.7425585910152612
18.400999999999506,-0.08475785432208764,0.7342621096951626
18.60099999999975,-0.10384038273951192,0.7260074435248577
18.799999999999994,-0.1267601957861089,0.7141602806394249
19.000000000000238,-0.14659982108609312,0.7028152053728871
19.200000000000482,-0.16631583663962182,0.6887818844691339
19.400000000000727,-0.18439688081466163,0.6800130356099241
19.60000000000097,-0.20074567817985778,0.6642267229124844
19.800000000001216,-0.21694082496833048,0.6489954448384934
20.00000000000146,-0.23115054956771391,0.6368055182996221
