Time (s),X (m),Y (m)
0.001,0.0008589492133542695,-0.0009348340498585851
0.20000000000000015,0.0005793479127198222,0.0004430060047552914
0.4000000000000003,0.004992880276631167,0.007071048609577731
0.6000000000000004,0.009481361741616802,0.0036264958242109365
0.8000000000000006,0.02034678452550407,0.012490313800977437
1.0000000000000007,0.03428747737021892,0.01474516693514335
1.2009999999999785,0.045167736893466225,0.0037330716055262
1.4009999999999565,0.057098674543745655,-0.01169233872175407
1.6009999999999345,0.07069483668783455,-0.01171430912182015
1.8009999999999124,0.08611258906834651,-0.025774910106832558
2.0009999999998906,0.10404086224099697,-0.04710724994181289
2.2009999999998686,0.119366066849943,-0.05293826673076154
2.4009999999998466,0.13603826529895874,-0.05208977656851881
2.6009999999998246,0.15164355255890277,-0.07675949733261032
2.8009999999998025,0.1655961433627843,-0.11040032709754123
3.0009999999997805,0.18055616475831096,-0.12159511479172742
3.2009999999997585,0.19275808539703285,-0.13314155851598647
3.4009999999997365,0.2073030616161809,-0.15750105554849633
3.6009999999997144,0.2231169465377185,-0.19940312291339407
3.8009999999996924,0.24395741633801596,-0.24851443620783484
4.000999999999671,0.2713330446833982,-0.29090513438109283
4.200999999999738,0.29972526633321556,-0.3181695864663456
4.400999999999804,0.3262588028801498,-0.3472644986678893
4.600999999999871,0.35226497416013064,-0.38603931061877345
4.800999999999938,0.3809570760539434,-0.42831824493983717
5.000000000000004,0.41113499461284786,-0.4513520656672178
5.200000000000071,0.44429434660667944,-0.4824058237012126
5.400000000000138,0.4774443831752884,-0.5015913878458281
5.600000000000205,0.5143784365047758,-0.5121183951580183
5.800000000000272,0.5523294367220671,-0.5170331260957525
6.000000000000338,0.5892249753187903,-0.5066071650148758
6.200000000000405,0.6253999568828639,-0.5095745324369518
6.400000000000472,0.6599346762564993,-0.523360700615376
6.600000000000539,0.6911880909461161,-0.549944156040731
6.800000000000606,0.7187914976733244,-0.5816514415323949
7.000000000000672,0.7445228386849261,-0.6093125204449171
7.200000000000739,0.7720643227370998,-0.6265882402228773
7.400000000000806,0.8030922566982462,-0.640270835866745
7.600000000000873,0.8350959633917422,-0.6762002235854698
7.8000000000009395,0.8678944222375314,-0.7017207374579877
8.000000000001005,0.8982132430355092,-0.7266718405095618
8.200000000000895,0.9273950009122355,-0.7513680856946995
8.400000000000784,0.9555501942640675,-0.78370503755686
8.600000000000673,0.9854118236910734,-0.8164709597031642
8.800000000000562,1.012021154536572,-0.8579711173957986
9.000000000000451,1.0324629784484083,-0.9057381646997994
9.20000000000034,1.046257537581965,-0.9525231098392307
9.40000000000023,1.0459398778391764,-1.0027875636443555
9.600000000000119,1.0341641554424394,-1.0532314118597588
9.800000000000008,1.0297535070953712,-1.1032367251311124
10.000999999999896,1.0223357669495878,-1.154230678257568
10.200999999999786,1.0072066780500641,-1.2035812693312375
10.400999999999675,0.9866442298278755,-1.2564629394148796
10.600999999999564,0.9657614533370349,-1.3081934640851576
10.800999999999453,0.9561001407830918,-1.3559746268577437
11.000999999999342,0.9377003845600498,-1.4002531173046662
11.200999999999231,0.9206067805246841,-1.4442645926413429
11.40099999999912,0.8892049780536335,-1.4800614977143105
11.60099999999901,0.8486494751917858,-1.515223649091754
11.800999999998899,0.8093817702396289,-1.5469869174892847
12.000999999998788,0.7696615410308105,-1.5675104388789034
12.200999999998677,0.7284848579755845,-1.5854197507096837
12.400999999998566,0.6895276811205561,-1.6087472051866445
12.600999999998455,0.6461665716516849,-1.620893939491462
12.800999999998345,0.611198565481255,-1.645245510441288
13.000999999998234,0.5711534763105528,-1.666561171627132
13.200999999998123,0.5335282911174088,-1.6908344860795002
13.400999999998012,0.5092866506125103,-1.7210860318095478
13.600999999997901,0.47432822975986927,-1.7479966142969214
13.80099999999779,0.4440613659428617,-1.7775083807749545
14.00099999999768,0.4185300862072709,-1.8030758275325391
14.200999999997569,0.37878646367581936,-1.8313184957650066
14.400999999997458,0.34078538824748617,-1.861476493299644
14.600999999997347,0.3225281971709456,-1.8951275889845967
14.800999999997236,0.2974981202708693,-1.9314503901036055
15.000999999997125,0.2551279104813162,-1.9704975891136296
15.200999999997014,0.2170088929808325,-2.0108659843240613
15.400999999996904,0.1745576081954388,-2.046875487418125
15.600999999996793,0.12840887447585073,-2.0838237429320374
15.800999999996682,0.08076557974141077,-2.126956972752199
16.000999999996573,0.027867413968471165,-2.1753102572285745
16.200999999996817,-0.006608071236528105,-2.2205255361599114
16.40099999999706,-0.034222516788310474,-2.2628162346849323
16.600999999997306,-0.06050445237750517,-2.304668355342019
16.80099999999755,-0.09375071398294987,-2.3419564750793618
17.000999999997795,-0.12184598004448544,-2.3779606343476893
17.20099999999804,-0.15028353817476328,-2.4140249272318326
17.400999999998284,-0.1937350643895926,-2.444066266123775
17.60099999999853,-0.251605730724072,-2.4709568370555424
17.800999999998773,-0.32273798591080727,-2.4916064369901467
18.000999999999017,-0.3849891783655814,-2.512870389984049
18.20099999999926,-0.44044715609045537,-2.537555965189631
18.400999999999506,-0.5035935243491144,-2.55916476812963
18.60099999999975,-0.5682072390151133,-2.578216632455652
18.799999999999994,-0.6153985087049457,-2.60276954887686
19.000000000000238,-0.657589062661391,-2.6220222476691295
19.200000000000482,-0.6905916526623749,-2.6460667489598984
19.400000000000727,-0.7260087361350103,-2.6739434896840435
19.60000000000097,-0.76427240481683,-2.703478289052655
19.800000000001216,-0.8115846598507159,-2.7357055574202276
20.00000000000146,-0.8662121997892367,-2.7701704603271793
