Time (s),X (m),Y (m)
0.001,-0.00030633420604509907,0.0007293631428462583
0.20000000000000015,0.0013882235697152082,-0.000882033492056717
0.4000000000000003,0.0017597862518124207,0.000673171432062925
0.6000000000000004,0.00589588876058561,-0.0031303506140834846
0.8000000000000006,0.007329120090938411,-0.007209437126154544
1.0000000000000007,0.011690021541844358,-0.004634284008977331
1.2009999999999785,0.019082377890358583,-0.0029152961208093963
1.4009999999999565,0.020409055113819404,0.003146736077858535
1.6009999999999345,0.021498001227290266,0.005096568001162108
1.8009999999999124,0.030032176307605192,0.0028294178452415355
2.0009999999998906,0.04286134036468559,-0.002082977697487343
2.2009999999998686,0.0580845011606162,-0.008978481746327881
2.4009999999998466,0.07921619453070282,-0.020068944792659704
2.6009999999998246,0.09909871513289258,-0.025720810585305086
2.8009999999998025,0.11176509294057807,-0.036966318932078565
3.0009999999997805,0.1279611449071993,-0.04603385245997848
3.2009999999997585,0.14497278560930826,-0.05122202839349247
3.4009999999997365,0.16200675539660161,-0.053620008064483915
3.6009999999997144,0.1741087797613859,-0.05504442765970837
3.8009999999996924,0.18585357645722766,-0.059563112891792794
4.000999999999671,0.20614750095767456,-0.06328375673161947
4.200999999999738,0.22215983528153274,-0.06228169258147313
4.400999999999804,0.24804709573215064,-0.06532255254629699
4.600999999999871,0.27191174192736584,-0.06821722100130874
4.800999999999938,0.2938276618783119,-0.07325848798225569
5.000000000000004,0.3146273411184248,-0.07366614002814077
5.200000000000071,0.3410089927410126,-0.0756257451237692
5.400000000000138,0.3595101778190776,-0.08047805754471618
5.600000000000205,0.3741102791051682,-0.08003492637230089
5.800000000000272,0.39965876519905824,-0.08170166309624474
6.000000000000338,0.4252890045230422,-0.08467719408410096
6.200000000000405,0.45535869629715786,-0.08849011277607971
6.400000000000472,0.4812594302462081,-0.0924488536534967
6.600000000000539,0.5036357978601024,-0.09669203388547458
6.800000000000606,0.5285918758291154,-0.10100223191328733
7.000000000000672,0.54050205116963,-0.10015869904502335
7.200000000000739,0.5644950717905037,-0.10015508752747718
7.400000000000806,0.5884507966499304,-0.10344897732911215
7.600000000000873,0.6063035760690961,-0.1067138793782202
7.8000000000009395,0.6275584206245796,-0.11344850991739584
8.000000000001005,0.649007290455042,-0.11807403841791952
8.200000000000895,0.6677145570429516,-0.1235618709735894
8.400000000000784,0.693689082633119,-0.12819298591052858
8.600000000000673,0.7213359176638473,-0.13123340574918185
8.800000000000562,0.7389814387136967,-0.1323178181651234
9.000000000000451,0.7520428736506608,-0.13229489618695514
9.20000000000034,0.7682002127411801,-0.12820679580065683
9.40000000000023,0.7971008921546535,-0.12857204455324112
9.600000000000119,0.826025400380732,-0.1326240753589999
9.800000000000008,0.8472013883860571,-0.13468068399993183
10.000999999999896,0.8695874872902174,-0.13514964912796457
10.200999999999786,0.8958155264896254,-0.1330105603919231
10.400999999999675,0.9300619120833813,-0.13564843586958766
10.600999999999564,0.9527096411488638,-0.1348206655202003
10.800999999999453,0.974437460387402,-0.14052605126587947
11.000999999999342,0.9980166062235408,-0.14634305714121496
11.200999999999231,1.020608306194264,-0.15309476081326598
11.40099999999912,1.0367024109051188,-0.15427476806371065
11.60099999999901,1.0538056141618823,-0.14786035745986031
11.800999999998899,1.0607340577461606,-0.14131627206508685
12.000999999998788,1.0718733883409808,-0.138598209283283
12.200999999998677,1.0976002731197196,-0.13844695750646627
12.400999999998566,1.1380074769630901,-0.1474621009565312
12.600999999998455,1.1718297178344887,-0.15962308658461682
12.800999999998345,1.2056577499264074,-0.17130732153569772
13.000999999998234,1.2317284773545882,-0.17692118474927954
13.200999999998123,1.2635828433212002,-0.1853906490941954
13.400999999998012,1.2970481919723555,-0.19511027079139504
13.600999999997901,1.3259861290073396,-0.2017061740285016
13.80099999999779,1.3544484216566803,-0.20559124065197415
14.00099999999768,1.3760252542112281,-0.20545114165715755
14.200999999997569,1.3962110102054128,-0.20952424403924255
14.400999999997458,1.4241630198789388,-0.2198957932063159
14.600999999997347,1.4492931710687267,-0.22045865225866615
14.800999999997236,1.4739742626391827,-0.2142802632647812
15.000999999997125,1.508508540145035,-0.21828024635753002
15.200999999997014,1.5406760312207353,-0.21992301970115996
15.400999999996904,1.5619925556970615,-0.21911182491129255
15.600999999996793,1.599176980592747,-0.22363189941901424
15.800999999996682,1.639582706458468,-0.2310030278305146
16.000999999996573,1.6795393176714934,-0.23603373817356121
16.200999999996817,1.7222067630143156,-0.24347041546609036
16.40099999999706,1.7599753391755628,-0.25444184002946213
16.600999999997306,1.7958599692036223,-0.26649112835415534
16.80099999999755,1.8307095169115737,-0.27797278878904697
17.000999999997795,1.8627950099064288,-0.2920117041722788
17.20099999999804,1.8925914312728627,-0.3058492114939785
17.400999999998284,1.9102044385593113,-0.3223862567214045
17.60099999999853,1.9210180715927077,-0.35084006434460574
17.800999999998773,1.9264285099132554,-0.38001487654014904
18.000999999999017,1.9328492482844684,-0.41217689361837656
18.20099999999926,1.9328717240324749,-0.4387166151607108
18.400999999999506,1.9278132985767926,-0.46925805753539074
18.60099999999975,1.9256913185150208,-0.4995146698845678
18.799999999999994,1.9257177060337887,-0.5293360682526929
19.000000000000238,1.921854371292644,-0.5567922212111924
19.200000000000482,1.918915397974271,-0.5776217969399129
19.400000000000727,1.9226741725868808,-0.5923414059184321
19.60000000000097,1.9261557545825352,-0.6228597167026888
19.800000000001216,1.9262746971744769,-0.6513161529250024
20.00000000000146,1.9311050266650407,-0.6785903518342198
