Time (s),X (m),Y (m)
0.001,-0.0005118051130574269,0.0004359202765531096
0.20000000000000015,0.0007302157104551795,-6.611714741080225e-05
0.4000000000000003,0.0013559974379281036,-0.00022128541824286912
0.6000000000000004,0.0022867214574022595,-0.0007131548847078872
0.8000000000000006,0.003205312751209772,-0.0012548023741775292
1.0000000000000007,0.004160559365183147,-0.0018602526166155116
1.2009999999999785,0.005409296437569068,-0.002684178877419778
1.4009999999999565,0.0066390686640786884,-0.0034835072017583755
1.6009999999999345,0.007883586105607937,-0.004297051552824946
1.8009999999999124,0.009219062394051632,-0.005181542009894566
2.0009999999998906,0.010680472047556165,-0.006160430475055419
2.2009999999998686,0.012242976723925401,-0.007213183444793695
2.4009999999998466,0.013878060603678702,-0.008310205198452469
2.6009999999998246,0.015570494654084105,-0.009441577481226707
2.8009999999998025,0.017313883223640015,-0.010589800944195477
3.0009999999997805,0.01911758564146585,-0.011764663514686047
3.2009999999997585,0.020981660999214457,-0.012965539792034351
3.4009999999997365,0.022911381745916767,-0.014198568951841609
3.6009999999997144,0.024906630073287125,-0.01545827847200249
3.8009999999996924,0.0269654618200151,-0.016743547514004233
4.000999999999671,0.029089933778016545,-0.01805792525819954
4.200999999999738,0.03126830963903617,-0.019387442678371856
4.400999999999804,0.033485165153604154,-0.020713901936181736
4.600999999999871,0.03574438859874688,-0.02201761893271926
4.800999999999938,0.038053456902978636,-0.023281386021751903
5.000000000000004,0.04051808090085812,-0.02437408611028859
5.200000000000071,0.04296717704294723,-0.02557378938384937
5.400000000000138,0.045544260501089166,-0.02666666076036302
5.600000000000205,0.048427152088327124,-0.027699485783495615
5.800000000000272,0.05115106711589721,-0.028741990726862822
6.000000000000338,0.054100370223196796,-0.02973224834563566
6.200000000000405,0.0570797236309312,-0.030675996134960255
6.400000000000472,0.06009328260310403,-0.03161857084465237
6.600000000000539,0.06302140110249169,-0.0323893630362278
6.800000000000606,0.06597000267441237,-0.033120191962150276
7.000000000000672,0.06893841755656165,-0.033814116526935604
7.200000000000739,0.0720085229909949,-0.034452100325086506
7.400000000000806,0.0750344825805811,-0.035025651277171055
7.600000000000873,0.0776573936786153,-0.035456154683812614
7.8000000000009395,0.08049227761278113,-0.035893220829062884
8.000000000001005,0.0834162031057773,-0.03622779224519048
8.200000000000895,0.0861747720395677,-0.036443128384828674
8.400000000000784,0.08900728933112156,-0.03659521154133055
8.600000000000673,0.09191738203350777,-0.036676512458498914
8.800000000000562,0.09493388887751458,-0.03666539418522497
9.000000000000451,0.0978873835426703,-0.03656846094109713
9.20000000000034,0.10047137183779638,-0.0362666604365658
9.40000000000023,0.1029431537649175,-0.03586368251847991
9.600000000000119,0.10534531728305237,-0.035363030085005534
9.800000000000008,0.10778966485340823,-0.034789332372658195
10.000999999999896,0.11036310139409167,-0.03410276160767488
10.200999999999786,0.11302706767421902,-0.03333422536472348
10.400999999999675,0.11584633835078896,-0.03248299403157268
10.600999999999564,0.11874157347281662,-0.03156434248430776
10.800999999999453,0.12094593835547793,-0.030426341364258352
11.000999999999342,0.12352339418117579,-0.029284965397196102
11.200999999999231,0.12584914029452812,-0.027988860590149964
11.40099999999912,0.1281846945256936,-0.026631615351812764
11.60099999999901,0.1305512733102745,-0.025204066921544324
11.800999999998899,0.13282233348158232,-0.023602098503653378
12.000999999998788,0.13530939727284505,-0.021834117069463206
12.200999999998677,0.13725137905471382,-0.020069520525570123
12.400999999998566,0.1396479069906956,-0.0183127077339788
12.600999999998455,0.14216833985155872,-0.016466914457442514
12.800999999998345,0.14491540674093278,-0.014543961864418678
13.000999999998234,0.14722589208510334,-0.011730797307251573
13.200999999998123,0.1493868626139535,-0.009090133138920214
13.400999999998012,0.15157844588848826,-0.00642219166747127
13.600999999997901,0.15378506106617237,-0.0036522561693055054
13.80099999999779,0.15595477158995366,-0.0003202342032413697
14.00099999999768,0.15828525993623913,0.002760011396664806
14.200999999997569,0.16044556656386794,0.006310339386458076
14.400999999997458,0.16253633901159611,0.010016172618922766
14.600999999997347,0.16450810234369145,0.013882815727129266
14.800999999997236,0.16662336294697336,0.017803416246993813
15.000999999997125,0.16864098608267536,0.021915323502345735
15.200999999997014,0.17093566487194498,0.026799691640107454
15.400999999996904,0.17325498951856744,0.03191051657906713
15.600999999996793,0.17560479569608992,0.03717972087370049
15.800999999996682,0.17788129305050993,0.04275161127068563
16.000999999996573,0.18028786189175625,0.04807043821702283
16.200999999996817,0.18269222549315703,0.05376375893227747
16.40099999999706,0.18483663361625652,0.06012108143201309
16.600999999997306,0.18727412659441395,0.06668759844076573
16.80099999999755,0.19018792219972927,0.07319186001592079
17.000999999997795,0.19284880851467825,0.07971574777130006
17.20099999999804,0.19576438404740246,0.08578860435523884
17.400999999998284,0.19950503918975482,0.09338146884071821
17.60099999999853,0.20229403350994232,0.10025742039943257
17.800999999998773,0.2050778008256283,0.10706088729724163
18.000999999999017,0.2087923694936459,0.11491438487990437
18.20099999999926,0.21199708700725395,0.12229883587415882
18.400999999999506,0.2167946286890063,0.13121961238004284
18.60099999999975,0.2208214365923326,0.13899915063817783
18.799999999999994,0.2246275399918793,0.14675549683884354
19.000000000000238,0.22773835464799919,0.15490733487025826
19.200000000000482,0.23227243948962364,0.1633024151244992
19.400000000000727,0.23648201785785686,0.17180730978705047
19.60000000000097,0.23971330553045753,0.18012490118983346
19.800000000001216,0.24367231895460262,0.18898792505032766
20.00000000000146,0.24747092341533888,0.1973209818851208
