Time (s),X (m),Y (m)
0.001,0.0014193575185132074,-0.0002669654388657889
0.20000000000000015,0.0018361490523028153,-9.389470057558019e-05
0.4000000000000003,0.00750934914508185,-0.004174871224266334
0.6000000000000004,0.01590211458719686,-0.007676619584946282
0.8000000000000006,0.02421647903672227,-0.011647644178289986
1.0000000000000007,0.040122823776575514,-0.02134985581843044
1.2009999999999785,0.06334582731159183,-0.035790462800850395
1.4009999999999565,0.09213317539067903,-0.05349486718847315
1.6009999999999345,0.11897810742577855,-0.06430275527659275
1.8009999999999124,0.1479359645146699,-0.06735797300428817
2.0009999999998906,0.169449767193508,-0.069565788461128
2.2009999999998686,0.16991706953832614,-0.0848053312152119
2.4009999999998466,0.15935629732961612,-0.10898527047649752
2.6009999999998246,0.13810007510317415,-0.14640758957378164
2.8009999999998025,0.11183626442510639,-0.19086442212799834
3.0009999999997805,0.08393815109530284,-0.2332270934649747
3.2009999999997585,0.05050132270334081,-0.276644288582596
3.4009999999997365,0.018426571384777688,-0.32068906465147407
3.6009999999997144,-0.015850364901091017,-0.3646772510016366
3.8009999999996924,-0.05806974564405618,-0.38953495011299244
4.000999999999671,-0.10824226393009465,-0.39108594896732424
4.200999999999738,-0.15596036251392345,-0.38212299019157747
4.400999999999804,-0.1839831849293057,-0.35093596707877617
4.600999999999871,-0.19170894379949885,-0.3165996465010774
4.800999999999938,-0.18078901538952744,-0.27930801068765343
5.000000000000004,-0.1682979931325895,-0.23978482071260063
5.200000000000071,-0.14724024436393948,-0.19540709419736468
5.400000000000138,-0.1265375094049284,-0.15405792988857836
5.600000000000205,-0.10025536908546338,-0.1062973344617165
5.800000000000272,-0.07296083918321479,-0.06005971660028315
6.000000000000338,-0.0521285102073455,-0.021111761831046294
6.200000000000405,-0.03150083510233993,0.016034827253829688
6.400000000000472,-0.00515989965913927,0.055271112823806735
6.600000000000539,0.03328227262281505,0.10543028383321132
6.800000000000606,0.06776849381715204,0.1578843901320716
7.000000000000672,0.09684183538903592,0.21205749952672884
7.200000000000739,0.13342500385609546,0.26410290294450356
7.400000000000806,0.1718644503687132,0.30222102055605904
7.600000000000873,0.20438817449158447,0.32121126557200386
7.8000000000009395,0.245518866558976,0.31685134680628796
8.000000000001005,0.2935706840629627,0.297916724117868
8.200000000000895,0.336443128042686,0.27776179276020513
8.400000000000784,0.3911840767509387,0.24780843045878334
8.600000000000673,0.45464486853985275,0.2116886868187169
8.800000000000562,0.5274165682451227,0.17544951117481158
9.000000000000451,0.594759341169019,0.14322683259202879
9.20000000000034,0.6585251428961241,0.1151167358455129
9.40000000000023,0.7235696197451146,0.08387308534365408
9.600000000000119,0.7835346188623669,0.05394408732295142
9.800000000000008,0.8449524651672309,0.02526828173595584
10.000999999999896,0.8988039749978088,0.0012797336208094342
10.200999999999786,0.9540073727718598,-0.026202885166921378
10.400999999999675,1.0142190417311594,-0.053399774746888326
10.600999999999564,1.0876143855357034,-0.08548408172627735
10.800999999999453,1.1629054839858626,-0.13580048195164418
11.000999999999342,1.2353476412029436,-0.1790339039098202
11.200999999999231,1.31064724687242,-0.22991344494215976
11.40099999999912,1.380089879663941,-0.28246004849950174
11.60099999999901,1.4230062477617484,-0.34572890987951405
11.800999999998899,1.434615888908394,-0.4060814989191715
12.000999999998788,1.4217275542705627,-0.4724754299106587
12.200999999998677,1.3860103055824857,-0.5428993600038883
12.400999999998566,1.3359846002761486,-0.6086811412970878
12.600999999998455,1.2795862352268477,-0.6465899221192996
12.800999999998345,1.214473147802786,-0.6569788242994297
13.000999999998234,1.1432522693240763,-0.6437924996408055
13.200999999998123,1.069215490610762,-0.6205840424440071
13.400999999998012,0.9946427715121291,-0.5985251926205728
13.600999999997901,0.9236721167773948,-0.5744797227916971
13.80099999999779,0.8526967232734463,-0.5442128610717523
14.00099999999768,0.7816711052234865,-0.5058005062054308
14.200999999997569,0.7037182844502838,-0.44605889942026683
14.400999999997458,0.6349685262547693,-0.378835408103951
14.600999999997347,0.5963601015671046,-0.30475928571804006
14.800999999997236,0.5901587828837814,-0.23217077695868257
15.000999999997125,0.6053103900528619,-0.16660686723658846
15.200999999997014,0.6232299576452364,-0.10663477551155853
15.400999999996904,0.6540243361249255,-0.04272220447238101
15.600999999996793,0.70292971257211,0.02578037001897039
15.800999999996682,0.7508050399148473,0.08635267946508521
16.000999999996573,0.7915260852461282,0.1299789194193913
16.200999999996817,0.8487055223204036,0.14759315320544136
16.40099999999706,0.9099347034886084,0.14812007965134713
16.600999999997306,0.975120210274121,0.1382665664602891
16.80099999999755,1.0473878507261178,0.11440898314719394
17.000999999997795,1.1138989607344487,0.08499410424268858
17.20099999999804,1.181878101056692,0.05087981563106983
17.400999999998284,1.2445933413947268,0.013942537708689907
17.60099999999853,1.3014602621054407,-0.0452181423802129
17.800999999998773,1.3370930556059843,-0.1098985957049044
18.000999999999017,1.3485462239483974,-0.172914049282262
18.20099999999926,1.3338687912024882,-0.24183319197285683
18.400999999999506,1.2998272655820369,-0.32625552255833123
18.60099999999975,1.2546932270420128,-0.40702976101983823
18.799999999999994,1.1865324956103116,-0.4790953265781861
19.000000000000238,1.1151706912525483,-0.5140837283034377
19.200000000000482,1.046295236212558,-0.5191235777585479
19.400000000000727,0.9778681451523644,-0.49708952366225434
19.60000000000097,0.9142500674391631,-0.45772087079589735
19.800000000001216,0.8710668757419505,-0.41191629254056145
20.00000000000146,0.8644731799561648,-0.3538478346520058
