Time (s),X (m),Y (m)
0.001,0.0007758142491328282,-0.0009692696795465074
0.20000000000000015,0.0009445103153486515,-0.0004615658822489932
0.4000000000000003,0.0015027923188937569,-0.00040372842518077607
0.6000000000000004,0.002678175305211526,-0.0010733707627194806
0.8000000000000006,0.003919796928041669,-0.002458055886622706
1.0000000000000007,0.006391261055929459,-0.003019549925564524
1.2009999999999785,0.008338790984763707,-0.002012694324339803
1.4009999999999565,0.011861287065235706,-0.0028334059399747072
1.6009999999999345,0.01455510793882866,-0.002182791094796207
1.8009999999999124,0.017888699553110714,-0.003221909828253585
2.0009999999998906,0.02152588303368149,-0.00369913487859339
2.2009999999998686,0.02509124206982206,-0.003789618062649919
2.4009999999998466,0.029125279637629228,-0.004788072209067862
2.6009999999998246,0.03223783646289865,-0.004484415053075149
2.8009999999998025,0.03667694256377434,-0.0069129614028924325
3.0009999999997805,0.04009120838492544,-0.00672505236252772
3.2009999999997585,0.04475444221452062,-0.008978224990450223
3.4009999999997365,0.049062993573088784,-0.00959908417468248
3.6009999999997144,0.053517927310581664,-0.009512025536866753
3.8009999999996924,0.05825227066633339,-0.01143292914727342
4.000999999999671,0.06289065775251827,-0.011908934779037553
4.200999999999738,0.06825414449250515,-0.012340343035866182
4.400999999999804,0.07171823718501577,-0.012027240668311408
4.600999999999871,0.07645889552876323,-0.013554205115560497
4.800999999999938,0.08093126361017822,-0.014998518616614708
5.000000000000004,0.08607534608433458,-0.017212992034624182
5.200000000000071,0.08998819316774587,-0.01748005937630447
5.400000000000138,0.09405116157126259,-0.021127979771812386
5.600000000000205,0.09903496364957093,-0.022121053521239994
5.800000000000272,0.10402540851249092,-0.02481456406028683
6.000000000000338,0.10876077102480565,-0.0272261382308743
6.200000000000405,0.11365671736301841,-0.028593586165270343
6.400000000000472,0.11768443015912196,-0.030876539525356066
6.600000000000539,0.1211595370137426,-0.032874312744560666
6.800000000000606,0.1246038801909812,-0.03729937512627832
7.000000000000672,0.1284880072114305,-0.03923262612695905
7.200000000000739,0.13222994066297183,-0.04253709422477077
7.400000000000806,0.13658390243601365,-0.04567225392578209
7.600000000000873,0.13988785334464424,-0.048680269440986704
7.8000000000009395,0.14292238752366726,-0.052763475594208395
8.000000000001005,0.1459256422324388,-0.05539352969724102
8.200000000000895,0.149108073290145,-0.06041982909386297
8.400000000000784,0.15247244978067614,-0.06304338246467282
8.600000000000673,0.1556367234864655,-0.0676558304944981
8.800000000000562,0.15938328879635985,-0.07147272336867536
9.000000000000451,0.16182968023405842,-0.07583451876441205
9.20000000000034,0.16527617609134265,-0.08043653266157141
9.40000000000023,0.16854735696471002,-0.08316799214780975
9.600000000000119,0.1721481028383775,-0.08713868114326906
9.800000000000008,0.17576060748487982,-0.08987926293353754
10.000999999999896,0.17930006763931403,-0.09408501765711064
10.200999999999786,0.1830877716463796,-0.09735110180603496
10.400999999999675,0.18593648173805538,-0.10084183434119914
10.600999999999564,0.18900414708010083,-0.10602348623999178
10.800999999999453,0.192186697939559,-0.10868208763910928
11.000999999999342,0.19532436927918534,-0.11347533633967606
11.200999999999231,0.19857872857512873,-0.1163725230981856
11.40099999999912,0.20112973404449616,-0.12098861489439011
11.60099999999901,0.20431839906410942,-0.12485523399637725
11.800999999998899,0.20714716954748635,-0.12834506549677963
12.000999999998788,0.2107030043594177,-0.1329365317928639
12.200999999998677,0.2140527323628455,-0.13557610214164476
12.400999999998566,0.21682492070322315,-0.14089927242683722
12.600999999998455,0.22017286638762584,-0.14347274935670443
12.800999999998345,0.2228172470513636,-0.14801728037244644
13.000999999998234,0.2261423411553131,-0.15227066918060242
13.200999999998123,0.22938868237484059,-0.15543975788099282
13.400999999998012,0.2326086165518776,-0.16038759841171357
13.600999999997901,0.23547677278568294,-0.16332121578573822
13.80099999999779,0.23900172789058796,-0.16780360952148554
14.00099999999768,0.2431261401245929,-0.16977133391409796
14.200999999997569,0.24664877930769888,-0.17364188452642218
14.400999999997458,0.25003443807685266,-0.17704933112443066
14.600999999997347,0.25328298973972596,-0.1807564374582652
14.800999999997236,0.2566997179957663,-0.18574744980347083
15.000999999997125,0.25945015446121444,-0.1885720769978977
15.200999999997014,0.2625252806147914,-0.19321897527465434
15.400999999996904,0.26615833766366215,-0.19616850842686953
15.600999999996793,0.26912636253905353,-0.20096378186944247
15.800999999996682,0.2723682249872665,-0.2046947965579257
16.000999999996573,0.27551725979204716,-0.20800820770506825
16.200999999996817,0.2786544477802879,-0.21284851357146944
16.40099999999706,0.2820190984915979,-0.21580136130646088
16.600999999997306,0.28484695861550313,-0.22094037908486952
16.80099999999755,0.28768066030686146,-0.22438832623672447
17.000999999997795,0.29105337139481524,-0.22913124557262057
17.20099999999804,0.29458159874980167,-0.23304627099560862
17.400999999998284,0.297245258492634,-0.23685531490273723
17.60099999999853,0.30048234825219194,-0.24067122326323087
17.800999999998773,0.30378734140298935,-0.24292388440190904
18.000999999999017,0.30672879738481534,-0.24768370968181494
18.20099999999926,0.3096590276907673,-0.2502689089031984
18.400999999999506,0.3127519561335107,-0.2543654378407182
18.60099999999975,0.3161208397056096,-0.2581127179677329
18.799999999999994,0.3183929365122275,-0.2616936468934394
19.000000000000238,0.32131655125888003,-0.2667153837557145
19.200000000000482,0.3242936339138245,-0.2695986681752092
19.400000000000727,0.32665062166186826,-0.2751351920521411
19.60000000000097,0.3296558003994349,-0.27831677495262663
19.800000000001216,0.3327091925160833,-0.2827599198316261
20.00000000000146,0.33608562603539055,-0.2868397262961045
