Time (s),X (m),Y (m)
0.001,0.00033312994539159724,-0.0010275501737767782
0.20000000000000015,0.001439394566563005,0.0008803137438461413
0.4000000000000003,0.005007558467325895,0.003414872581342375
0.6000000000000004,0.015323117401348988,0.008745907993123449
0.8000000000000006,0.02341872815995005,0.010759152789084172
1.0000000000000007,0.02009666952229222,0.012399476624586429
1.2009999999999785,0.01825895230710739,0.0059547304396142895
1.4009999999999565,0.020034846552271453,-0.011997338323836822
1.6009999999999345,0.017133611550921073,-0.037753344798973604
1.8009999999999124,0.012542535651265792,-0.043981581418459266
2.0009999999998906,-0.00013043706304966064,-0.05333102459738881
2.2009999999998686,-0.014147738430510206,-0.054752435269105844
2.4009999999998466,-0.02145675753616053,-0.04778266249610125
2.6009999999998246,-0.02311106160352582,-0.03338583305882126
2.8009999999998025,-0.023313759547883492,-0.012869344222820416
3.0009999999997805,-0.027889078584222567,0.017565951789171547
3.2009999999997585,-0.029758013235900212,0.056825900124031214
3.4009999999997365,-0.025692386557486117,0.09324015473493973
3.6009999999997144,-0.012792280182913039,0.10514138226833059
3.8009999999996924,0.012586634515943195,0.10930931608992217
4.000999999999671,0.050509757411134094,0.10868033493738102
4.200999999999738,0.0865136297847778,0.10292816823639057
4.400999999999804,0.11286383265443373,0.08684491071666839
4.600999999999871,0.12845804663051638,0.055659047491817853
4.800999999999938,0.13370757860117344,0.021642852528014712
5.000000000000004,0.12482037373354965,-0.01821432818500954
5.200000000000071,0.09975063152043039,-0.04756727771573516
5.400000000000138,0.05944010253988453,-0.06809169379852438
5.600000000000205,0.01745793044243249,-0.0778720351033812
5.800000000000272,-0.016986293863579013,-0.08112186495917069
6.000000000000338,-0.0511968307655471,-0.07758082019581175
6.200000000000405,-0.09257187998595529,-0.06594621561879166
6.400000000000472,-0.14148406898978622,-0.04917969129582456
6.600000000000539,-0.18479531824567827,-0.02930549805692341
6.800000000000606,-0.21161692018781364,-0.0033455676397103106
7.000000000000672,-0.23061609007697936,0.0307725666111627
7.200000000000739,-0.26184751813934554,0.07810321996773409
7.400000000000806,-0.29210108567157755,0.13337158279239458
7.600000000000873,-0.312450462966303,0.1912120837889628
7.8000000000009395,-0.322988195088689,0.2468753925980851
8.000000000001005,-0.3332473245548928,0.29737811494949223
8.200000000000895,-0.3335000984844847,0.3415148371007152
8.400000000000784,-0.31836557979078084,0.36982268339830515
8.600000000000673,-0.2882399688711317,0.39186509995773283
8.800000000000562,-0.25311534947884273,0.40344061862245634
9.000000000000451,-0.22882654244585968,0.4034302439424065
9.20000000000034,-0.20682445380036624,0.3872707907132416
9.40000000000023,-0.18518917693834233,0.35233765019369634
9.600000000000119,-0.16917448454730638,0.31226476282549936
9.800000000000008,-0.16713528271494843,0.28192279459802644
10.000999999999896,-0.17237745027243587,0.25964915511328956
10.200999999999786,-0.18472036713913767,0.25522623095647123
10.400999999999675,-0.21789048675296827,0.2619280882800302
10.600999999999564,-0.24958532474734918,0.279330362799669
10.800999999999453,-0.2806201070853267,0.3117937096020473
11.000999999999342,-0.2981882728573504,0.35621085142402187
11.200999999999231,-0.3134844679835371,0.4075546892483845
11.40099999999912,-0.3231892119685117,0.4534619361318264
11.60099999999901,-0.3187668892453336,0.4956121368841591
11.800999999998899,-0.3054509230092627,0.5366691846880555
12.000999999998788,-0.27938640142497984,0.5862430113899331
12.200999999998677,-0.24489759803146754,0.615822048276942
12.400999999998566,-0.20783134985242185,0.629566901904203
12.600999999998455,-0.1768041848983335,0.6299347334938952
12.800999999998345,-0.14263139845030226,0.6136414318251128
13.000999999998234,-0.1232720529003619,0.578797866387933
13.200999999998123,-0.12494384745240905,0.5447513875940043
13.400999999998012,-0.13032610578959772,0.5072584094458829
13.600999999997901,-0.14595369890506496,0.4770620819115314
13.80099999999779,-0.17502194024095596,0.4569923725748775
14.00099999999768,-0.22013599205525133,0.443431688426884
14.200999999997569,-0.26374652260512493,0.44339052656498296
14.400999999997458,-0.2999994447364853,0.45873453693522154
14.600999999997347,-0.33241518115191515,0.47926761316677774
14.800999999997236,-0.37422581275581135,0.506119619611405
15.000999999997125,-0.39413988813378076,0.5465308455093497
15.200999999997014,-0.40639130909003934,0.5922951960477795
15.400999999996904,-0.4073142465892511,0.638009265202259
15.600999999996793,-0.4036927773666876,0.678364845514275
15.800999999996682,-0.38008174726924643,0.7060242176831433
16.000999999996573,-0.34417867678691305,0.7197599204060802
16.200999999996817,-0.2940745875532717,0.724509279134662
16.40099999999706,-0.2534854251075443,0.7143728437490915
16.600999999997306,-0.24132813611220916,0.6927983149494417
16.80099999999755,-0.24494905378330842,0.6615353712686451
17.000999999997795,-0.2541517119892693,0.6152035711439181
17.20099999999804,-0.2736405730125438,0.5732862206874648
17.400999999998284,-0.3073313289837659,0.5556541237118522
17.60099999999853,-0.34913053734357,0.5509962558780487
17.800999999998773,-0.37360074323794834,0.5674580454189846
18.000999999999017,-0.38877559129281397,0.6026463008105675
18.20099999999926,-0.3909533614179255,0.643126391629518
18.400999999999506,-0.38042612540957804,0.6802490498937909
18.60099999999975,-0.35572729243550977,0.6977696304274534
18.799999999999994,-0.3222967120695848,0.7041492068005438
19.000000000000238,-0.28450138272847775,0.6983655310634319
19.200000000000482,-0.23870908586450326,0.685499668166298
19.400000000000727,-0.21198477540445962,0.6647095230082459
19.60000000000097,-0.20683893689108065,0.6367385469266307
19.800000000001216,-0.21086046549725165,0.6114429878861499
20.00000000000146,-0.21930744210281716,0.5793338618075479
