Time (s),X (m),Y (m)
0.001,7.024362446948994e-05,-0.0009692696795465074
0.20000000000000015,0.0016325340505294406,0.0003345741006533337
0.4000000000000003,0.0071550896505334334,0.004025421455258212
0.6000000000000004,0.012780272612784376,0.00463824272364087
0.8000000000000006,0.020552351105251852,-0.003765076342942692
1.0000000000000007,0.03397381260411828,-0.014168539479326886
1.2009999999999785,0.04923503047577867,-0.021852295169013727
1.4009999999999565,0.06686601688738665,-0.030056965349702647
1.6009999999999345,0.07599414532372131,-0.0428651714964536
1.8009999999999124,0.0886735537766573,-0.06175850161565101
2.0009999999998906,0.1118421900288216,-0.08788279048802487
2.2009999999998686,0.1304598798835711,-0.11567594245819918
2.4009999999998466,0.1417957213789422,-0.134554879998094
2.6009999999998246,0.17028529713439686,-0.14601258083262814
2.8009999999998025,0.20873656487787975,-0.148798241385972
3.0009999999997805,0.25928217971382,-0.15734995854319944
3.2009999999997585,0.3069583670757755,-0.17732008435758423
3.4009999999997365,0.3492886306498766,-0.19929233286820863
3.6009999999997144,0.37407457846707376,-0.2214697721900783
3.8009999999996924,0.3887986085661724,-0.2427373385449381
4.000999999999671,0.4062479083476671,-0.2709097939904384
4.200999999999738,0.448204199929745,-0.30252924221663213
4.400999999999804,0.48661669351224557,-0.3322565691745277
4.600999999999871,0.5116799783659732,-0.3682828282001791
4.800999999999938,0.5278683105968972,-0.4091658798863976
5.000000000000004,0.5407788186599229,-0.45397476441425366
5.200000000000071,0.535759707098944,-0.5226470209160903
5.400000000000138,0.5163592831192902,-0.5880761741334802
5.600000000000205,0.4950236072654019,-0.6421299292145424
5.800000000000272,0.4543819251758519,-0.6805578240483408
6.000000000000338,0.41750717428771084,-0.6970302010414012
6.200000000000405,0.3931192985811516,-0.6972318696815338
6.400000000000472,0.3836234289930076,-0.6831154064827599
6.600000000000539,0.37965196717999083,-0.6575189159025799
6.800000000000606,0.36889009532129025,-0.6211480044738613
7.000000000000672,0.3400328308517855,-0.5745037934376577
7.200000000000739,0.3178926092498649,-0.5219924707064487
7.400000000000806,0.3030449601433928,-0.46776169320995814
7.600000000000873,0.2741328695075732,-0.41118475210199906
7.8000000000009395,0.251577251321343,-0.3509879215867309
8.000000000001005,0.22747312139415568,-0.29383753660488443
8.200000000000895,0.19862467338546805,-0.23539944428154497
8.400000000000784,0.17041382510480527,-0.16631725613838635
8.600000000000673,0.1463903095961239,-0.0906255789735068
8.800000000000562,0.11938628768848601,-0.008411379353845082
9.000000000000451,0.09650115430202082,0.06023929605677444
9.20000000000034,0.0905283956241906,0.11754245357702792
9.40000000000023,0.10151209402265392,0.1575282199706175
9.600000000000119,0.11864971582047094,0.19187746809766434
9.800000000000008,0.13890330054628075,0.2395128996368801
10.000999999999896,0.17345394227281888,0.27897030529133277
10.200999999999786,0.21613474973480026,0.30772870229826493
10.400999999999675,0.26284109370096176,0.32353070715716986
10.600999999999564,0.32161834631853725,0.33879330330828544
10.800999999999453,0.4012905639328595,0.3468274088050996
11.000999999999342,0.47806963482159043,0.3507369014290475
11.200999999999231,0.5554608437642027,0.3448155920482485
11.40099999999912,0.6137066238835535,0.3276217527161394
11.60099999999901,0.6565604212818305,0.287547976832285
11.800999999998899,0.6892794628125792,0.23626540616975683
12.000999999998788,0.7100726850297614,0.17787554003508033
12.200999999998677,0.7282925537496796,0.11569046936484727
12.400999999998566,0.7618114957762232,0.05075182422664437
12.600999999998455,0.8053120500531389,-0.010701607263423105
12.800999999998345,0.8484796499481669,-0.07014600017990032
13.000999999998234,0.8838012424144902,-0.130362978995446
13.200999999998123,0.9167213274585606,-0.20624114880923908
13.400999999998012,0.9398630862626538,-0.28524854469081806
13.600999999997901,0.9515887132114716,-0.3587784948908899
13.80099999999779,0.9444151439834219,-0.4277691282773694
14.00099999999768,0.9140377296831421,-0.49242090767664914
14.200999999997569,0.8759037010632003,-0.5340168371311973
14.400999999997458,0.8465314233210015,-0.554543185480736
14.600999999997347,0.8283553050051153,-0.541744492374518
14.800999999997236,0.8145672390472549,-0.50918830718616
15.000999999997125,0.8156356227997981,-0.4713275899430315
15.200999999997014,0.8316469569071422,-0.4308805051151344
15.400999999996904,0.8590122835313385,-0.4098846687896635
15.600999999996793,0.8845292568157185,-0.3928512994051493
15.800999999996682,0.899454449537834,-0.39827031729245044
16.000999999996573,0.9136168095588543,-0.41962052560003954
16.200999999996817,0.9322468976357141,-0.45281759840942887
16.40099999999706,0.9522928189883394,-0.49420878211404445
16.600999999997306,0.9662953999035764,-0.5423882924943786
16.80099999999755,0.983861398657391,-0.5953538227505392
17.000999999997795,1.0144443443132585,-0.6568939638824486
17.20099999999804,1.0414766323517994,-0.7290432308226348
17.400999999998284,1.0845763918424145,-0.8093437191010988
17.60099999999853,1.1283893263105644,-0.8897362981635033
17.800999999998773,1.17685818031522,-0.9716199367666128
18.000999999999017,1.2167471275519595,-1.0546855591060282
18.20099999999926,1.252414296695399,-1.1349508414049325
18.400999999999506,1.2848845129741593,-1.2108887744190653
18.60099999999975,1.3121622053158168,-1.288633763011523
18.799999999999994,1.3347861148812898,-1.380813961293351
19.000000000000238,1.3464317373215682,-1.4645567119279934
19.200000000000482,1.3416768633600604,-1.517727692626862
19.400000000000727,1.3224458395254504,-1.563671124572513
19.60000000000097,1.2824031246206706,-1.6048669071570927
19.800000000001216,1.2203735277542564,-1.6414978092280976
20.00000000000146,1.1629256351334205,-1.6651290719117038
