Time (s),X (m),Y (m)
0.001,0.0014505791105779379,-8.989899140956135e-05
0.20000000000000015,-0.00037800866321426973,0.0005294204860864574
0.4000000000000003,0.001735811730962824,0.0005265170718189778
0.6000000000000004,0.0076013592145514125,0.0015043006065473495
0.8000000000000006,0.025440038772555067,-0.000535005521253238
1.0000000000000007,0.05389934148291516,-0.008221990150027041
1.2009999999999785,0.08352126046660137,-0.018505527079672575
1.4009999999999565,0.11003556580567654,-0.033121149210868714
1.6009999999999345,0.14113384815502864,-0.050197562545865125
1.8009999999999124,0.1731648832458626,-0.07348064442649227
2.0009999999998906,0.2055488129639837,-0.09540997148213225
2.2009999999998686,0.23660439276456577,-0.12316774707199049
2.4009999999998466,0.25644021651261806,-0.1523178963215691
2.6009999999998246,0.25456822802624957,-0.18350641551286428
2.8009999999998025,0.23045216081346045,-0.20814184313236656
3.0009999999997805,0.20841218686519528,-0.22529478116501384
3.2009999999997585,0.17673366762583018,-0.22464935313940887
3.4009999999997365,0.1389670132411705,-0.2016421308407
3.6009999999997144,0.10059544116518468,-0.1728645526623506
3.8009999999996924,0.07747133743542314,-0.13340149770111767
4.000999999999671,0.0693082293438229,-0.09913478475811649
4.200999999999738,0.06749849380241059,-0.07737134781268999
4.400999999999804,0.07599307897922392,-0.049974003586466434
4.600999999999871,0.09336040696715428,-0.019031977229890407
4.800999999999938,0.11418686497500057,0.016905819343632302
5.000000000000004,0.14826772259198293,0.050547049394458934
5.200000000000071,0.19742891068238133,0.07174663740106221
5.400000000000138,0.24231463074679754,0.07424615228769225
5.600000000000205,0.2919918515711463,0.06133469517117676
5.800000000000272,0.3382906028593968,0.04274926970670806
6.000000000000338,0.38486219867380833,0.014503557710368837
6.200000000000405,0.43312310594807796,-0.016313206049457515
6.400000000000472,0.4792906514161779,-0.0448203700521753
6.600000000000539,0.5289918609869732,-0.07973413320047296
6.800000000000606,0.5763134486588303,-0.12267510847868986
7.000000000000672,0.6035333170678946,-0.17326948804138384
7.200000000000739,0.6065935034971432,-0.22350690435244375
7.400000000000806,0.5887749381331763,-0.2734833218231978
7.600000000000873,0.5552713523216531,-0.3201173760058468
7.8000000000009395,0.5155356466901078,-0.3589037317580231
8.000000000001005,0.4703890848361162,-0.37551722106583835
8.200000000000895,0.4297753408148926,-0.36938694987640974
8.400000000000784,0.3902506543714474,-0.3476386002988426
8.600000000000673,0.3513523102540311,-0.313207511326495
8.800000000000562,0.32608087553712756,-0.27525211928309734
9.000000000000451,0.3237160106782178,-0.23423425699949846
9.20000000000034,0.33790434113605544,-0.18855225051065852
9.40000000000023,0.36164051852782986,-0.13608582065230868
9.600000000000119,0.4042107019003552,-0.08159259470839884
9.800000000000008,0.4509415593115487,-0.02346401447677192
10.000999999999896,0.4916168670006888,0.030601293191086815
10.200999999999786,0.5406637728623707,0.0593044262048835
10.400999999999675,0.5926730568089015,0.06423903399084488
10.600999999999564,0.6442899819942206,0.052579140224797344
10.800999999999453,0.6953200120551195,0.029917564696524016
11.000999999999342,0.750879112235595,-0.001879121828113863
11.200999999999231,0.80276458337822,-0.03584384804713856
11.40099999999912,0.8579239535367781,-0.0781468313541176
11.60099999999901,0.9164946090597499,-0.121836895671984
11.800999999998899,0.9780908566539268,-0.1592736893901376
12.000999999998788,1.0368959682271046,-0.19848038748847407
12.200999999998677,1.0957468566076483,-0.252254000316315
12.400999999998566,1.1515761070426669,-0.3143041911602801
12.600999999998455,1.1887489165489529,-0.3674313937666493
12.800999999998345,1.206344916782412,-0.396410128694327
13.000999999998234,1.2080806013639744,-0.42115405359730645
13.200999999998123,1.202300842125287,-0.44865751271155396
13.400999999998012,1.180994790258921,-0.4877513178206555
13.600999999997901,1.1425452633155566,-0.5435314606443329
13.80099999999779,1.1022958924096018,-0.6047519049524993
14.00099999999768,1.053396567626531,-0.6653821071878819
14.200999999997569,0.9967296811227705,-0.7106116917557602
14.400999999997458,0.9341237941364972,-0.7397649489645559
14.600999999997347,0.8748517606043896,-0.7471606754140795
14.800999999997236,0.814752856810179,-0.7368676919961624
15.000999999997125,0.7552368196919119,-0.7054817000836645
15.200999999997014,0.6949433525784876,-0.6665372902261522
15.400999999996904,0.6452007133875469,-0.6164751935094446
15.600999999996793,0.6174738207404983,-0.5396395228508611
15.800999999996682,0.6146881946539222,-0.46026024363393586
16.000999999996573,0.6322022374899728,-0.3889078962818548
16.200999999996817,0.6637382950958427,-0.31617930878544603
16.40099999999706,0.7114124567598419,-0.242687824959066
16.600999999997306,0.7545663805532564,-0.17518607388652832
16.80099999999755,0.808279635142791,-0.1154077377954086
17.000999999997795,0.859299052019207,-0.08019104352147459
17.20099999999804,0.9104813316175009,-0.06896815295862387
17.400999999998284,0.9623675825976052,-0.07815428025396223
17.60099999999853,1.0169829181459633,-0.09920779577320715
17.800999999998773,1.0710026028951043,-0.12453243931833047
18.000999999999017,1.1277519583132378,-0.1575004183498865
18.20099999999926,1.1919622238031216,-0.1929702559919183
18.400999999999506,1.2558460506503923,-0.2324105752457398
18.60099999999975,1.3204435578100777,-0.27662544681958806
18.799999999999994,1.385698795306092,-0.3211018120206267
19.000000000000238,1.4582454015118542,-0.3730926786017201
19.200000000000482,1.5204542124169238,-0.4304663914761435
19.400000000000727,1.550819961716611,-0.4934090525426475
19.60000000000097,1.5469588637253349,-0.5608528756206483
19.800000000001216,1.5269429067530444,-0.6250716156974544
20.00000000000146,1.4941767588559418,-0.7045418482591602
