Time (s),X (m),Y (m)
0.001,0.001267963995250183,0.0005916298972236683
0.20000000000000015,0.0004951177589195358,-0.00027064975677710764
0.4000000000000003,0.005543803167119446,0.004006275001236528
0.6000000000000004,0.011078321688008461,0.011716144169224159
0.8000000000000006,0.019908312106251786,0.018266047419745152
1.0000000000000007,0.026921384416029887,0.028075839151286124
1.2009999999999785,0.031991136784558685,0.036637863367906004
1.4009999999999565,0.048212592087129365,0.041167959731177206
1.6009999999999345,0.06715356652262044,0.04217288144293341
1.8009999999999124,0.07998802812711056,0.038894954247197196
2.0009999999998906,0.09099179433110247,0.030859589381158604
2.2009999999998686,0.1105048734618488,0.017989060731216068
2.4009999999998466,0.13106374360786052,0.001100532048302994
2.6009999999998246,0.15741134710176202,-0.015763521021435953
2.8009999999998025,0.18058792128360057,-0.030815721481729723
3.0009999999997805,0.20431069398083596,-0.04781617246957453
3.2009999999997585,0.2350378668820348,-0.06693405630831621
3.4009999999997365,0.26007568753099475,-0.08782639181256019
3.6009999999997144,0.2814931999171765,-0.11141491421943103
3.8009999999996924,0.31066330393644953,-0.13652891242377863
4.000999999999671,0.35085020675306094,-0.1635299172086813
4.200999999999738,0.38887730510186674,-0.19547711319238617
4.400999999999804,0.42184722209432146,-0.23154079433471764
4.600999999999871,0.4518894907635722,-0.26931679514648665
4.800999999999938,0.4883972865248969,-0.3097940870440109
5.000000000000004,0.5258006563782808,-0.3497165595423632
5.200000000000071,0.5490699189061351,-0.3900007261088851
5.400000000000138,0.5771352533854116,-0.43127631059213484
5.600000000000205,0.6167674638979594,-0.47388153189701215
5.800000000000272,0.6478871355201823,-0.513248270411881
6.000000000000338,0.6894164696824289,-0.5505466829249288
6.200000000000405,0.7400078600894575,-0.5925001544236324
6.400000000000472,0.7829352598162552,-0.6367036997315536
6.600000000000539,0.8400650690771169,-0.6821467772225893
6.800000000000606,0.9003744393952386,-0.7273668898726368
7.000000000000672,0.9564292267360441,-0.7781397464586893
7.200000000000739,1.0022470102015564,-0.829410506992696
7.400000000000806,1.0419127640019648,-0.878940459872263
7.600000000000873,1.079622821251011,-0.9223217433504136
7.8000000000009395,1.1254985687855856,-0.9682713453389341
8.000000000001005,1.1793530664290928,-1.0141771361530116
8.200000000000895,1.2194789038702936,-1.0608490012407192
8.400000000000784,1.2612760620433319,-1.1058149889001596
8.600000000000673,1.2960459961310784,-1.1509681739849433
8.800000000000562,1.326891387444018,-1.2000142202570865
9.000000000000451,1.3665332832087655,-1.2561966623578467
9.20000000000034,1.4158301283051011,-1.3175837990902977
9.40000000000023,1.4667549335567374,-1.3817410017630534
9.600000000000119,1.512213186248903,-1.4452582641687108
9.800000000000008,1.5608021764090314,-1.5074271860714237
10.000999999999896,1.6144155540505487,-1.5667065361953947
10.200999999999786,1.6715000520726893,-1.629266031643799
10.400999999999675,1.7279608975505243,-1.6947652889520533
10.600999999999564,1.7862482967056321,-1.7614161161527015
10.800999999999453,1.848458822145971,-1.8246957591117436
11.000999999999342,1.8933409879632217,-1.8805161006650613
11.200999999999231,1.9374655638994251,-1.9296129403826934
11.40099999999912,1.969335346425949,-1.9772444078642666
11.60099999999901,2.0051617551694836,-2.018181061598617
11.800999999998899,2.050192611167411,-2.051157999458325
12.000999999998788,2.0931632696851534,-2.084103428881039
12.200999999998677,2.1369103386170356,-2.1254477330936323
12.400999999998566,2.1771037120208625,-2.174175312043078
12.600999999998455,2.2182660699965866,-2.2253851777956433
12.800999999998345,2.256887604819468,-2.2801957393234336
13.000999999998234,2.3068054344594255,-2.3413612544061757
13.200999999998123,2.3676411690105557,-2.405102031289992
13.400999999998012,2.4266117010852777,-2.4630017226340692
13.600999999997901,2.471800136231266,-2.515934825683155
13.80099999999779,2.5251348573826324,-2.5699892451181525
14.00099999999768,2.5805094314401504,-2.6231542561174215
14.200999999997569,2.6322000132296974,-2.6780078546542545
14.400999999997458,2.688369247349367,-2.741300800525897
14.600999999997347,2.747913569057947,-2.808205237623113
14.800999999997236,2.801791852711409,-2.872136434433849
15.000999999997125,2.8614729550931184,-2.9285280269328164
15.200999999997014,2.9105168518989024,-2.9782859621468156
15.400999999996904,2.9600180225695145,-3.0324176058146413
15.600999999996793,3.011032069249966,-3.091649118141732
15.800999999996682,3.0626961205198233,-3.15799120136738
16.000999999996573,3.124853054596077,-3.23193338136694
16.200999999996817,3.1877200318925523,-3.3034274703022204
16.40099999999706,3.253695339925292,-3.3722651531986254
16.600999999997306,3.310120742047384,-3.4386224806244035
16.80099999999755,3.3676009507386064,-3.510484407716022
17.000999999997795,3.4320688801745316,-3.5896293248812747
17.20099999999804,3.484761151100219,-3.6686343040520755
17.400999999998284,3.533036594786792,-3.7452585689014275
17.60099999999853,3.5934740588743903,-3.8247129386287133
17.800999999998773,3.671219651553308,-3.9072344023075525
18.000999999999017,3.7417578932186792,-3.9833360623884597
18.20099999999926,3.799563184100392,-4.0555386370799695
18.400999999999506,3.8494654888455573,-4.122177346942815
18.60099999999975,3.9074784733781063,-4.19050825095082
18.799999999999994,3.9704272864639134,-4.26332408453268
19.000000000000238,4.029457179535075,-4.333124449654933
19.200000000000482,4.098365728336435,-4.401039759954052
19.400000000000727,4.161270087117089,-4.467838669124146
19.60000000000097,4.221553232067216,-4.5397194781762416
19.800000000001216,4.283949897253287,-4.609535430900135
20.00000000000146,4.364189845490242,-4.678234916705679
