Time (s),X (m),Y (m)
0.001,-0.000592775884969954,0.00017911379721200063
0.20000000000000015,0.0009317384250545033,-0.00036959444183403794
0.4000000000000003,0.00239386790834365,-0.0023201804647239796
0.6000000000000004,0.0009028662319359838,0.002060641876346706
0.8000000000000006,0.015468457551457516,0.003534375641618254
1.0000000000000007,0.033656314972899594,0.0007038706917810725
1.2009999999999785,0.052603268637908006,-0.004487250524619161
1.4009999999999565,0.07512117213962022,-0.012115409615385864
1.6009999999999345,0.10066095044050064,-0.019807106490997855
1.8009999999999124,0.12422259451215775,-0.03274019421702493
2.0009999999998906,0.14782577876935715,-0.04710213443190245
2.2009999999998686,0.16922892062560724,-0.053244334854766553
2.4009999999998466,0.17895183651237395,-0.07129577902608765
2.6009999999998246,0.17095597373741028,-0.10432935825587528
2.8009999999998025,0.15553507372452358,-0.13822873983818884
3.0009999999997805,0.12876780168111998,-0.18030847025611588
3.2009999999997585,0.09793990969460085,-0.22557470730129864
3.4009999999997365,0.06117768331169252,-0.27502560183042335
3.6009999999997144,0.030640518017826253,-0.31915748499542984
3.8009999999996924,0.003494625774270655,-0.34828300037327664
4.000999999999671,-0.031032537054954082,-0.357837713940131
4.200999999999738,-0.07216231485382213,-0.3527314037434264
4.400999999999804,-0.10681051002438838,-0.34324742264550523
4.600999999999871,-0.1338876949682327,-0.33561942728859545
4.800999999999938,-0.1686681718153559,-0.32431574060750784
5.000000000000004,-0.20762940167941515,-0.3052313281500133
5.200000000000071,-0.2556995176638022,-0.27529315861975984
5.400000000000138,-0.3156053220983157,-0.22731853877735478
5.600000000000205,-0.37775954721205796,-0.17354932971651857
5.800000000000272,-0.42993118931300667,-0.11925236807387542
6.000000000000338,-0.45824428939941764,-0.07306592574172649
6.200000000000405,-0.4620884123722125,-0.02293626387328483
6.400000000000472,-0.445899881854774,0.026394072504486138
6.600000000000539,-0.4173502711397154,0.0783958267108147
6.800000000000606,-0.3773322518986606,0.12969212960993173
7.000000000000672,-0.34274596184678635,0.1825707382855083
7.200000000000739,-0.3064843583432915,0.22990203687238495
7.400000000000806,-0.264017729657873,0.2662554851364367
7.600000000000873,-0.21700816501679096,0.2827761893109972
7.8000000000009395,-0.17105780145069902,0.27783922466187394
8.000000000001005,-0.12249080523670647,0.2593916844093343
8.200000000000895,-0.06816217830765328,0.23336661709520445
8.400000000000784,-0.010768390381507289,0.20003531971429966
8.600000000000673,0.051505357475576836,0.15830052819861945
8.800000000000562,0.11550326179331295,0.10834238859789305
9.000000000000451,0.16622405165126858,0.03940081073474081
9.20000000000034,0.18828189157564826,-0.028998648921481962
9.40000000000023,0.18315233058014171,-0.09591806342051123
9.600000000000119,0.16355290845488432,-0.15782064287229872
9.800000000000008,0.1299885892908311,-0.21579450280104195
10.000999999999896,0.08895263071383235,-0.2709101025225476
10.200999999999786,0.03608582652632515,-0.31349954910599137
10.400999999999675,-0.019552168505419697,-0.3350433210790115
10.600999999999564,-0.07642636771103854,-0.33064743673556934
10.800999999999453,-0.135581285741052,-0.311936487764088
11.000999999999342,-0.19683535557851697,-0.2823460567381603
11.200999999999231,-0.2581986010084869,-0.24683761484205055
11.40099999999912,-0.32221978182069344,-0.21300206083276216
11.60099999999901,-0.3881144359008747,-0.17443971936280703
11.800999999998899,-0.4584568984654597,-0.13399783578720054
12.000999999998788,-0.533917881264976,-0.08210256153824452
12.200999999998677,-0.6027229981852512,-0.020936624479659483
12.400999999998566,-0.6367669476718565,0.0454440262970987
12.600999999998455,-0.6413993802596639,0.10607021351738707
12.800999999998345,-0.6279061369335153,0.16529705896414723
13.000999999998234,-0.608855653881093,0.22084468189618395
13.200999999998123,-0.5790662386720661,0.26952747403720306
13.400999999998012,-0.5341108569176709,0.29629802612747147
13.600999999997901,-0.47316460098576024,0.3006899319780077
13.80099999999779,-0.4079358982712831,0.286784570038423
14.00099999999768,-0.34394660127044513,0.2685242139279494
14.200999999997569,-0.27494313773185075,0.23110278912248683
14.400999999997458,-0.20746570314500135,0.18395304541649588
14.600999999997347,-0.14271230312097793,0.14270361409506377
14.800999999997236,-0.07818332606061455,0.10653760132176404
15.000999999997125,-0.020394429206142838,0.07128491416891784
15.200999999997014,0.031209044576229465,0.027935694866151335
15.400999999996904,0.06575891102904882,-0.0194074325023843
15.600999999996793,0.07739536016068445,-0.07733603374592203
15.800999999996682,0.06642072720775963,-0.1423002070188234
16.000999999996573,0.030476167626527453,-0.20671466994830306
16.200999999996817,-0.021443561415149887,-0.2787131200032666
16.40099999999706,-0.057160949211869955,-0.3468870280773174
16.600999999997306,-0.10081031349030956,-0.3885137496467597
16.80099999999755,-0.15723516430375462,-0.3900985863027287
17.000999999997795,-0.2209667058290308,-0.3632488580314953
17.20099999999804,-0.2763251346540733,-0.3310962014597512
17.400999999998284,-0.31509771762392735,-0.2917047533688539
17.60099999999853,-0.32776861445599104,-0.24587103477976885
17.800999999998773,-0.31722783497012585,-0.1977046904349331
18.000999999999017,-0.29213309670725407,-0.14382813438297376
18.20099999999926,-0.25477418031392285,-0.08290496341091405
18.400999999999506,-0.2065330057301752,-0.012077394275460696
18.60099999999975,-0.1450223843452835,0.06007805228077434
18.799999999999994,-0.07271030456360966,0.12672237108163287
19.000000000000238,-0.0030522647483996464,0.16177718820839873
19.200000000000482,0.07071160048655199,0.16330675930978972
19.400000000000727,0.14105220015452719,0.14428762261326375
19.60000000000097,0.20487859242276396,0.1125868205797515
19.800000000001216,0.265193292228368,0.07133880682938229
20.00000000000146,0.3200043345812465,0.013181565341015193
