Time (s),X (m),Y (m)
0.001,-0.0005732996449108882,0.0002669654388657892
0.20000000000000015,0.00010467836138936601,-0.0008748679337280576
0.4000000000000003,0.00222264620566453,-0.0019411510906631913
0.6000000000000004,0.00789874321193487,0.0026024959924569537
0.8000000000000006,0.017315823348226473,0.00037389645171495854
1.0000000000000007,0.02782167875858,-0.01785063733480111
1.2009999999999785,0.03393692387250844,-0.0327089671124562
1.4009999999999565,0.035205577361987275,-0.04867330728446722
1.6009999999999345,0.032768889805452256,-0.06624548788175133
1.8009999999999124,0.024690809482872077,-0.08171272306789165
2.0009999999998906,0.009829089263003667,-0.08060184480631305
2.2009999999998686,-0.013379347385020616,-0.06562923978971726
2.4009999999998466,-0.040121766862864276,-0.05284186994867709
2.6009999999998246,-0.0728829172154317,-0.032020687931375046
2.8009999999998025,-0.11046013208623533,-0.006195530336367969
3.0009999999997805,-0.16089294362117332,0.028002441882800936
3.2009999999997585,-0.21884722548026608,0.06728842237131426
3.4009999999997365,-0.2698089489564676,0.10100441519259773
3.6009999999997144,-0.3221701064821878,0.14339389851939474
3.8009999999996924,-0.3709000701536075,0.18230720208367485
4.000999999999671,-0.41062666208579524,0.2262765494720906
4.200999999999738,-0.43229020454301526,0.2762728385334894
4.400999999999804,-0.44058980642549295,0.3228541188823634
4.600999999999871,-0.4294573625236477,0.37384648172161633
4.800999999999938,-0.39470445650028235,0.4232565175996061
5.000000000000004,-0.3496277669846314,0.45673501076207523
5.200000000000071,-0.3115340046850037,0.4711188032169156
5.400000000000138,-0.2700033517920328,0.47204692630765577
5.600000000000205,-0.2240990833327229,0.45339774829688273
5.800000000000272,-0.1781675108789067,0.42509219812011145
6.000000000000338,-0.12861185376341264,0.3934430360230533
6.200000000000405,-0.0599075495180454,0.3536168910556994
6.400000000000472,0.015050333809415886,0.3152189238507783
6.600000000000539,0.08541957751523503,0.275768154231453
6.800000000000606,0.15450113932645268,0.23557286733209784
7.000000000000672,0.21687938041323215,0.18826995322684037
7.200000000000739,0.25034911785596936,0.1312912150815407
7.400000000000806,0.25786906245350383,0.07188247738631492
7.600000000000873,0.24717114529612108,0.004951541413729008
7.8000000000009395,0.22885883829367928,-0.058730276978341274
8.000000000001005,0.20728325669746453,-0.11305820672154655
8.200000000000895,0.17979750564688873,-0.17237453991895024
8.400000000000784,0.15320788245551717,-0.23092320245676085
8.600000000000673,0.1269337469100596,-0.2911643921104244
8.800000000000562,0.09498878500595395,-0.3538431601792176
9.000000000000451,0.05179076902834618,-0.4126992433189247
9.20000000000034,-0.012531195644131106,-0.4530605612560358
9.40000000000023,-0.08134579805320466,-0.4725546670019509
9.600000000000119,-0.15240100484782423,-0.4661128841790419
9.800000000000008,-0.22142223489371304,-0.4352900495693021
10.000999999999896,-0.27344103610098575,-0.38745504795156405
10.200999999999786,-0.2995902423314537,-0.3291429958868437
10.400999999999675,-0.30256232191958776,-0.2691002016593088
10.600999999999564,-0.2753428554331044,-0.20895778160866715
10.800999999999453,-0.230016418662849,-0.15134625419536096
11.000999999999342,-0.1642284002871998,-0.11840057318340924
11.200999999999231,-0.09608173444826852,-0.11729099673112282
11.40099999999912,-0.0330377769057287,-0.12487778129743016
11.60099999999901,0.02591364549027794,-0.13346863093721337
11.800999999998899,0.08219796740010321,-0.16563142115468685
12.000999999998788,0.12487189777840253,-0.20621793206921626
12.200999999998677,0.15275588361509673,-0.24823427890229052
12.400999999998566,0.16628777674078912,-0.2943627168538469
12.600999999998455,0.16229180882518743,-0.3487328371520091
12.800999999998345,0.14740935679546663,-0.41566706132129255
13.000999999998234,0.13298365873497445,-0.47364790839323845
13.200999999998123,0.10274758105174464,-0.5399157304988146
13.400999999998012,0.054858356305047415,-0.6092513313011255
13.600999999997901,-0.006104887913588109,-0.6584473840049178
13.80099999999779,-0.07093819860222896,-0.6808067634052697
14.00099999999768,-0.138382975462399,-0.6789676215681608
14.200999999997569,-0.20769065278220925,-0.650519148393953
14.400999999997458,-0.2777878955153155,-0.6189508988042582
14.600999999997347,-0.3485587304837548,-0.5862950288088239
14.800999999997236,-0.42647680237307484,-0.5495449262640794
15.000999999997125,-0.505649024236008,-0.5128323981273171
15.200999999997014,-0.5809552458806027,-0.4801501633954884
15.400999999996904,-0.6556153451447162,-0.44624855669249436
15.600999999996793,-0.7397832853127709,-0.402142366204735
15.800999999996682,-0.8230551126957268,-0.35159934658619985
16.000999999996573,-0.9045021179015387,-0.28915075140475843
16.200999999996817,-0.9646941068240358,-0.2214960289840737
16.40099999999706,-0.992872553681005,-0.1598430782742807
16.600999999997306,-1.0028876003283467,-0.09884271303098585
16.80099999999755,-0.979146672057765,-0.035698583404833596
17.000999999997795,-0.946647345133756,0.009160450968454517
17.20099999999804,-0.9115390135141553,0.027628824252507345
17.400999999998284,-0.8652755401425853,0.013654480650405849
17.60099999999853,-0.8201175385856126,-0.014778682537584806
17.800999999998773,-0.7895885944006754,-0.052834962033375996
18.000999999999017,-0.7792426119528176,-0.09354289520467932
18.20099999999926,-0.7901068163167212,-0.14091886312328386
18.400999999999506,-0.8132448702130951,-0.18956401497804873
18.60099999999975,-0.8511701447625066,-0.2188793097307458
18.799999999999994,-0.8996524205413954,-0.21445770739274672
19.000000000000238,-0.953858778717904,-0.19618686521279838
19.200000000000482,-1.016569826591795,-0.1545531584394311
19.400000000000727,-1.0892968972077244,-0.10421978292962944
19.60000000000097,-1.1627571968257564,-0.05630489360011912
19.800000000001216,-1.2239223572785616,-0.01096476607909517
20.00000000000146,-1.2533441513609405,0.04138694577269041
