Time (s),X (m),Y (m)
0.001,0.0010146588340248276,-0.0008449350584490237
0.20000000000000015,-0.0009683029657425081,0.002302721217136938
0.4000000000000003,0.0019011532681396544,0.005652208366204856
0.6000000000000004,0.00974458859462636,0.00598448912693689
0.8000000000000006,0.023895604492922353,-0.00012514076838545998
1.0000000000000007,0.03795809138380397,-0.021178767851561277
1.2009999999999785,0.05575730315553177,-0.04046112436109758
1.4009999999999565,0.07285186840342815,-0.06250738711359814
1.6009999999999345,0.09443133912239984,-0.0802304232926678
1.8009999999999124,0.1053981508118218,-0.1016579165737082
2.0009999999998906,0.10775846085706103,-0.12903759438205747
2.2009999999998686,0.1131175532482884,-0.15978795923343894
2.4009999999998466,0.1094008712216061,-0.19068830935395287
2.6009999999998246,0.10844886537274731,-0.22117675298846892
2.8009999999998025,0.09923964079451289,-0.25097895674895393
3.0009999999997805,0.07789489705802168,-0.28068466239759876
3.2009999999997585,0.053936997630210634,-0.311450405301331
3.4009999999997365,0.02787353721207154,-0.34693572158644065
3.6009999999997144,0.004092307267109306,-0.3767780795946992
3.8009999999996924,-0.022053256956026952,-0.4028332799139277
4.000999999999671,-0.04848897902030377,-0.4265894089136187
4.200999999999738,-0.07756580290319026,-0.44444167915821287
4.400999999999804,-0.10815241855332892,-0.4606579075073214
4.600999999999871,-0.15127387833351147,-0.4719383387969088
4.800999999999938,-0.19487768249145046,-0.4793545531517476
5.000000000000004,-0.2276046685334512,-0.4900224553080027
5.200000000000071,-0.25731957320242904,-0.5101053058587469
5.400000000000138,-0.29657483246770494,-0.5287123530106546
5.600000000000205,-0.3457389302014738,-0.533211330497596
5.800000000000272,-0.39886841629529673,-0.535546032918673
6.000000000000338,-0.45300227681660127,-0.5409170718579963
6.200000000000405,-0.5071510947032748,-0.5499679209406507
6.400000000000472,-0.5672947633710184,-0.5638035030050378
6.600000000000539,-0.6248150234733427,-0.5817068079516804
6.800000000000606,-0.6941539697438642,-0.5911729106862266
7.000000000000672,-0.7484769361050556,-0.5999847130972935
7.200000000000739,-0.8124967557512068,-0.609114982651923
7.400000000000806,-0.8653062451912789,-0.6204362618343052
7.600000000000873,-0.9157031798527183,-0.6294412124358439
7.8000000000009395,-0.9795935127013125,-0.6284493266807175
8.000000000001005,-1.0442420861614972,-0.6248929631203487
8.200000000000895,-1.1244538454955573,-0.6152459335134283
8.400000000000784,-1.1975293504602587,-0.6055562853919487
8.600000000000673,-1.2473524457225622,-0.6009200339038078
8.800000000000562,-1.2948535587716532,-0.603509595015859
9.000000000000451,-1.3419630866964805,-0.6091211013456584
9.20000000000034,-1.3956111325617528,-0.6122369270528433
9.40000000000023,-1.452867335111468,-0.6141283351133182
9.600000000000119,-1.51246246653907,-0.6156004339814045
9.800000000000008,-1.5737623429588576,-0.6151846700558041
10.000999999999896,-1.6351242107486612,-0.5968811838537726
10.200999999999786,-1.6909444201906216,-0.555317677561516
10.400999999999675,-1.7352611042430957,-0.512438669586911
10.600999999999564,-1.7702442891939132,-0.4528058997784069
10.800999999999453,-1.7917038951668387,-0.38914805442010525
11.000999999999342,-1.8078325995802098,-0.34495909416646475
11.200999999999231,-1.8321201312794615,-0.2981598216810446
11.40099999999912,-1.8564572522256284,-0.24398101288857205
11.60099999999901,-1.864169462443789,-0.16832763925604805
11.800999999998899,-1.868081233530713,-0.09355994817261168
12.000999999998788,-1.8583042365343008,-0.020222492756423405
12.200999999998677,-1.846745700936937,0.05816074669420331
12.400999999998566,-1.8403161050384957,0.13832023505034208
12.600999999998455,-1.8064295922861713,0.21649286370314913
12.800999999998345,-1.7547365746814494,0.2841849191835477
13.000999999998234,-1.698577439121942,0.3358908106512703
13.200999999998123,-1.6276326837684727,0.3666307593467014
13.400999999998012,-1.554618441199476,0.3789296885669171
13.600999999997901,-1.4818599440074651,0.39018350298908716
13.80099999999779,-1.4074696754623028,0.3974453896318129
14.00099999999768,-1.3307822694211024,0.39458311220706643
14.200999999997569,-1.2557838622836726,0.38807807412126577
14.400999999997458,-1.1779599763423436,0.3769821084665039
14.600999999997347,-1.102064269015145,0.3500854819803507
14.800999999997236,-1.025824860428367,0.3126197629092128
15.000999999997125,-0.9546275854916707,0.2715468959012707
15.200999999997014,-0.9098692718588105,0.21238893782780785
15.400999999996904,-0.8837380203404827,0.1354919619204747
15.600999999996793,-0.8593913551251984,0.07070660305188468
15.800999999996682,-0.8473393738676461,0.004860902062002023
16.000999999996573,-0.8358492477699669,-0.06142587809026511
16.200999999996817,-0.8232450670167291,-0.13460697071999664
16.40099999999706,-0.8264835015811585,-0.21256696866795802
16.600999999997306,-0.8463957778287622,-0.289887985701371
16.80099999999755,-0.8768966851451869,-0.3504364433342712
17.000999999997795,-0.9208497714142139,-0.3887940669002794
17.20099999999804,-0.9677569329178655,-0.41362706973672897
17.400999999998284,-1.0187091137985167,-0.433156580666492
17.60099999999853,-1.0715311597327242,-0.43288016182357286
17.800999999998773,-1.1189292760866965,-0.39755962309231163
18.000999999999017,-1.1589893605783956,-0.3432322011259298
18.20099999999926,-1.1879941078880696,-0.2886410593250553
18.400999999999506,-1.20080980367992,-0.21898547308402863
18.60099999999975,-1.2006947370997016,-0.14256826041797774
18.799999999999994,-1.2059767132260766,-0.07290087359495474
19.000000000000238,-1.2111243532652527,-0.009449571248696489
19.200000000000482,-1.217414503464137,0.05175065152566122
19.400000000000727,-1.216088263607195,0.12258065504098226
19.60000000000097,-1.2126969766411677,0.19191946660880513
19.800000000001216,-1.217973840035882,0.26768654074753606
20.00000000000146,-1.2263947376900357,0.3447459326678099
