Time (s),X (m),Y (m)
0.001,0.001152392079647418,0.0007293631428462583
0.20000000000000015,0.001654064404492341,0.0007083394455992858
0.4000000000000003,0.010215628250772935,0.004997807264342609
0.6000000000000004,0.01960284802188269,0.009158181044482506
0.8000000000000006,0.0318284643829278,0.017338234228807762
1.0000000000000007,0.044789687994974334,0.025710291362814146
1.2009999999999785,0.0670301062644764,0.02686648754113705
1.4009999999999565,0.08050752245355687,0.024228538365447472
1.6009999999999345,0.0975005652718814,0.011972373451272271
1.8009999999999124,0.12051927088345114,-0.008217126876607935
2.0009999999998906,0.14230976525042818,-0.03223517689624258
2.2009999999998686,0.1633740950236548,-0.062064068625145095
2.4009999999998466,0.17790212865661623,-0.09109913301953747
2.6009999999998246,0.189528044774369,-0.12112082672661266
2.8009999999998025,0.20123193299316333,-0.15207907824704747
3.0009999999997805,0.19991976766539624,-0.18121354165862097
3.2009999999997585,0.18318675166557843,-0.20919592256777716
3.4009999999997365,0.1576285251104122,-0.23873907875131015
3.6009999999997144,0.12729389520219372,-0.26610380375579784
3.8009999999996924,0.09030030513980745,-0.2938422369428096
4.000999999999671,0.041325753922398,-0.3273351529211103
4.200999999999738,-0.008335201928480808,-0.3652736298513768
4.400999999999804,-0.05368961968538189,-0.4052267771786654
4.600999999999871,-0.08787547823111,-0.4490364123239074
4.800999999999938,-0.11906043571724709,-0.48354373572487264
5.000000000000004,-0.15695307555826268,-0.5139052210214883
5.200000000000071,-0.1997830675279405,-0.5432027794305211
5.400000000000138,-0.24884607839297426,-0.5737157644806232
5.600000000000205,-0.3014404277446937,-0.6145727959637561
5.800000000000272,-0.3562934780151447,-0.6540220494070434
6.000000000000338,-0.4120026050453608,-0.6889041416409873
6.200000000000405,-0.4695397139126306,-0.7277741533536086
6.400000000000472,-0.5317140983226613,-0.769511277689376
6.600000000000539,-0.5962321231899982,-0.8074069516421872
6.800000000000606,-0.6648472311005823,-0.8375260262189157
7.000000000000672,-0.7309238908455084,-0.8434913687994964
7.200000000000739,-0.78794432717377,-0.823159251028767
7.400000000000806,-0.8500385400265588,-0.7854110484352144
7.600000000000873,-0.909138535773584,-0.7360522935348998
7.8000000000009395,-0.9749762993096716,-0.6753837768109708
8.000000000001005,-1.0514952871541654,-0.6060637032747306
8.200000000000895,-1.126035393674499,-0.5343350607689692
8.400000000000784,-1.1930577399498394,-0.4637282194769965
8.600000000000673,-1.252809603379238,-0.3961770737074371
8.800000000000562,-1.2826570421414007,-0.33208382965934313
9.000000000000451,-1.2748440809713968,-0.27603420165869774
9.20000000000034,-1.2478308245326821,-0.22594663512610655
9.40000000000023,-1.2108273909991425,-0.18540804643029318
9.600000000000119,-1.1562777228235108,-0.1597197765961128
9.800000000000008,-1.1105393315977787,-0.16168772104026582
10.000999999999896,-1.0619141491095998,-0.1874735339024203
10.200999999999786,-1.007258239499647,-0.23128213522908422
10.400999999999675,-0.9701229575197063,-0.274386805043961
10.600999999999564,-0.9330610167165634,-0.31108873146419236
10.800999999999453,-0.8846063095272486,-0.3498654762089321
11.000999999999342,-0.8301399326051808,-0.3954321844760474
11.200999999999231,-0.779025376308717,-0.4474975734536475
11.40099999999912,-0.7258512740438395,-0.5003654491230547
11.60099999999901,-0.6555301640269956,-0.5564623014645996
11.800999999998899,-0.5758395766172233,-0.6193941009409352
12.000999999998788,-0.49891402931256584,-0.6894659876759983
12.200999999998677,-0.42529614516909664,-0.7606354095810932
12.400999999998566,-0.3646975478972577,-0.8257107753488316
12.600999999998455,-0.31456648965805806,-0.887711292513268
12.800999999998345,-0.26266787762794425,-0.9530925961795398
13.000999999998234,-0.2093783345024146,-1.0224120494543676
13.200999999998123,-0.1601290460709863,-1.0940911725050826
13.400999999998012,-0.11595354332205081,-1.1649784984683593
13.600999999997901,-0.07378122934658199,-1.2447536321379997
13.80099999999779,-0.040014862360836886,-1.330532525795936
14.00099999999768,-0.019567301520724292,-1.4113357147905055
14.200999999997569,-0.004893774642265193,-1.4876802862456535
14.400999999997458,0.0016901794437483681,-1.558264722022303
14.600999999997347,-0.0020730256187466716,-1.6266670566142343
14.800999999997236,-0.030449711533027394,-1.69704880203576
15.000999999997125,-0.0790094053969202,-1.7569508029440877
15.200999999997014,-0.13782204295307174,-1.8073963554929289
15.400999999996904,-0.19912816997717825,-1.8509038356069671
15.600999999996793,-0.2735201458047325,-1.900816172051881
15.800999999996682,-0.3622098985206262,-1.9542842873674162
16.000999999996573,-0.4582434224875816,-2.016842895316394
16.200999999996817,-0.547063719326554,-2.0914966085210356
16.40099999999706,-0.6347650041100007,-2.1541130776636352
16.600999999997306,-0.7234899408286433,-2.220496249721842
16.80099999999755,-0.8104736103588054,-2.282943467049602
17.000999999997795,-0.8948442700740045,-2.339479373923399
17.20099999999804,-0.9881560876937938,-2.398160818168178
17.400999999998284,-1.0826365530337656,-2.4578894646276863
17.60099999999853,-1.1678899016083215,-2.5123852666372377
17.800999999998773,-1.252884894700791,-2.5466910339412085
18.000999999999017,-1.3307578107357334,-2.5462841308103896
18.20099999999926,-1.3863491819000462,-2.5276220867025114
18.400999999999506,-1.43674793679394,-2.4919333027301613
18.60099999999975,-1.487552530124029,-2.444866604618748
18.799999999999994,-1.5378537662705518,-2.4007221099018152
19.000000000000238,-1.5842723806276604,-2.3454761163274056
19.200000000000482,-1.6308326729156732,-2.2803507627070854
19.400000000000727,-1.691519613217493,-2.2142722808950235
19.60000000000097,-1.759537964817973,-2.146395417939157
19.800000000001216,-1.8287523062954616,-2.070940529248874
20.00000000000146,-1.8955843920494468,-1.99148073852124
