Time (s),X (m),Y (m)
0.001,7.024362446948994e-05,0.0009692696795465077
0.20000000000000015,0.0013812623459469554,-0.0003605179510338888
0.4000000000000003,0.000715964858256344,0.0059441051989765625
0.6000000000000004,0.0061692106771199535,0.011594762831925957
0.8000000000000006,0.023762864585455876,0.007914652381451118
1.0000000000000007,0.04448194068959609,0.003885874780360477
1.2009999999999785,0.06788609848085286,-0.0014827058515852946
1.4009999999999565,0.09406154341206197,-0.0007012233671766478
1.6009999999999345,0.12013233451558357,0.00329180187280809
1.8009999999999124,0.1511654190820135,0.010143100113281902
2.0009999999998906,0.18213976064876583,0.003011157614853501
2.2009999999998686,0.2131994830262175,-0.0099231764289217
2.4009999999998466,0.25013600409562575,-0.018255413000321647
2.6009999999998246,0.2886035190174697,-0.014714189320889021
2.8009999999998025,0.33095464720790224,0.0023491260747449164
3.0009999999997805,0.37484892894445926,0.006601367869457686
3.2009999999997585,0.42084426934236213,0.006829326496244252
3.4009999999997365,0.46732381511102167,0.017935384062156254
3.6009999999997144,0.5116144576796254,0.03939841024561434
3.8009999999996924,0.5599188197398977,0.04024814903718656
4.000999999999671,0.6102608786873204,0.03888490755305997
4.200999999999738,0.6614507584948659,0.04032950919002501
4.400999999999804,0.7179095938116633,0.044308521352472735
4.600999999999871,0.7748010007357816,0.05661851249732582
4.800999999999938,0.8418253202733621,0.06941176833255691
5.000000000000004,0.900532349009602,0.09234827110062194
5.200000000000071,0.93882596513414,0.12192363122038392
5.400000000000138,0.9918356221525303,0.15019565107983032
5.600000000000205,1.041261353538152,0.17750301564139787
5.800000000000272,1.0972504455522594,0.20032761134151947
6.000000000000338,1.1635529298945642,0.2243435819421876
6.200000000000405,1.2127313422062223,0.25246707604524427
6.400000000000472,1.2509952998055611,0.29333967889383705
6.600000000000539,1.2829566947842785,0.351870900601459
6.800000000000606,1.313260982419448,0.41087686774688814
7.000000000000672,1.3527061495207473,0.45503964321195395
7.200000000000739,1.4038442978647454,0.4810311644073454
7.400000000000806,1.4527309443664878,0.47596752336830483
7.600000000000873,1.5028440990238765,0.4655949172457975
7.8000000000009395,1.5455813251892088,0.42520228428243934
8.000000000001005,1.5864199814223432,0.3735934840544512
8.200000000000895,1.6281963936963266,0.3307520531238672
8.400000000000784,1.670378875262154,0.27126237352279275
8.600000000000673,1.710201210792753,0.2161231435925803
8.800000000000562,1.750404062439845,0.1540495043570319
9.000000000000451,1.7835644358052876,0.09045167079694781
9.20000000000034,1.8239629093723475,0.042210502038913085
9.40000000000023,1.8713996304171718,-0.0004132455842822792
9.600000000000119,1.913661814933476,-0.055592149210704794
9.800000000000008,1.9460005803275762,-0.12922809517264122
10.000999999999896,1.9783669925905787,-0.1977394865875862
10.200999999999786,2.0176773280151172,-0.25618528520886397
10.400999999999675,2.065344738633558,-0.29123768638835434
10.600999999999564,2.1173010162161434,-0.33134804421718783
10.800999999999453,2.1722061471463614,-0.3746414655192776
11.000999999999342,2.234467794467237,-0.4073554425633954
11.200999999999231,2.301547862545691,-0.4306383135937478
11.40099999999912,2.358569505076974,-0.46121309878904776
11.60099999999901,2.4056044127424236,-0.5030204327619019
11.800999999998899,2.450440654836876,-0.5481077596189501
12.000999999998788,2.503355661548355,-0.5922561114072389
12.200999999998677,2.546718016069289,-0.6542351580040391
12.400999999998566,2.5793052675969643,-0.7319137018197898
12.600999999998455,2.6001426812188164,-0.8192252259755529
12.800999999998345,2.606299128085677,-0.9103545085193362
13.000999999998234,2.6154682706898744,-0.9971047385897194
13.200999999998123,2.6319435549481542,-1.074223812195777
13.400999999998012,2.653064008124796,-1.1502403771612115
13.600999999997901,2.6800217333746144,-1.233532903272972
13.80099999999779,2.707140253877677,-1.3193241944589562
14.00099999999768,2.7333377444113136,-1.406930783163772
14.200999999997569,2.7596000005040966,-1.4935696544404164
14.400999999997458,2.7949343653812875,-1.5771308615378599
14.600999999997347,2.8231303352283907,-1.6640837266319237
14.800999999997236,2.8511279015763837,-1.7412896288737452
15.000999999997125,2.880769126081459,-1.812229153520095
15.200999999997014,2.896416505931964,-1.8859022238281051
15.400999999996904,2.901716410085848,-1.9583770320822427
15.600999999996793,2.905731136606583,-2.033866416513488
15.800999999996682,2.9072346607470037,-2.1114587300596015
16.000999999996573,2.9063889940139553,-2.1890429520058508
16.200999999996817,2.8883264859291575,-2.2705422982843366
16.40099999999706,2.8405791682902786,-2.353716648106763
16.600999999997306,2.7806643313034085,-2.427901229104973
16.80099999999755,2.7303924171352727,-2.493411644667001
17.000999999997795,2.6694079264382773,-2.5512770292165707
17.20099999999804,2.604299562465347,-2.601962385103409
17.400999999998284,2.552478431360262,-2.6546631214090888
17.60099999999853,2.4950390888398974,-2.7015366013125917
17.800999999998773,2.4341936403268964,-2.7521579472704496
18.000999999999017,2.3752187144862402,-2.8038216355630863
18.20099999999926,2.3091050678853864,-2.845572706529493
18.400999999999506,2.244820711677043,-2.8867576683609895
18.60099999999975,2.174955037026817,-2.9349576407962212
18.799999999999994,2.1057897519466766,-2.9771818267065755
19.000000000000238,2.050307365368362,-3.026816316866624
19.200000000000482,1.9914457814529867,-3.076254353799924
19.400000000000727,1.9180187148999708,-3.130728755020178
19.60000000000097,1.8320545677014841,-3.1797865974044712
19.800000000001216,1.7451175031360853,-3.228439388759898
20.00000000000146,1.6546558669832543,-3.2765562555796506
