Time (s),X (m),Y (m)
0.001,0.0008589492133542695,0.0009348340498585851
0.20000000000000015,0.0007727949369782626,0.0003091250758740667
0.4000000000000003,0.003474961305568551,-0.0039034086615298102
0.6000000000000004,0.003437618276117935,-0.005737848662580787
0.8000000000000006,0.0189219032764774,0.008323953392339748
1.0000000000000007,0.03687692149118642,0.012852957557725673
1.2009999999999785,0.06211552427764572,0.02073030550278076
1.4009999999999565,0.09056550812603709,0.0232607108069628
1.6009999999999345,0.10814893151017213,0.019309411723398714
1.8009999999999124,0.1221604085214732,0.007456416104186188
2.0009999999998906,0.13011575775979442,-0.007420807393075751
2.2009999999998686,0.14232316179821572,-0.02838395322811015
2.4009999999998466,0.15579276249712828,-0.060827810085919164
2.6009999999998246,0.16544319300801283,-0.08920464044343876
2.8009999999998025,0.17266627178837562,-0.11636013202556526
3.0009999999997805,0.1689302437518586,-0.14271432743508303
3.2009999999997585,0.15210590882542063,-0.14965729605572248
3.4009999999997365,0.12729665423758052,-0.15316849504546604
3.6009999999997144,0.09823058109417786,-0.15467493667583584
3.8009999999996924,0.06625722975711229,-0.1551281653068792
4.000999999999671,0.026286120831041693,-0.15436268725039481
4.200999999999738,-0.005766532079495423,-0.14463307320875793
4.400999999999804,-0.03717037639004367,-0.11759397726031307
4.600999999999871,-0.06352440440437665,-0.08097550661302194
4.800999999999938,-0.07989026733464284,-0.036495847288355455
5.000000000000004,-0.07819605846866422,-0.004790651729379021
5.200000000000071,-0.0566211209614693,0.0258536351686701
5.400000000000138,-0.02316824993134078,0.0561455932388529
5.600000000000205,0.011416954280234298,0.07213961980883166
5.800000000000272,0.04302831536799185,0.07652376628451626
6.000000000000338,0.06759338319512795,0.07030919847712115
6.200000000000405,0.08852845319547947,0.05294005680433986
6.400000000000472,0.11350440802767128,0.024889372492836053
6.600000000000539,0.14809831937158477,-0.014012580619649143
6.800000000000606,0.17657533410370066,-0.05466312346440265
7.000000000000672,0.19924704786451097,-0.09651847192538572
7.200000000000739,0.22030429423899067,-0.15335182129610747
7.400000000000806,0.22322349101730676,-0.20343910634814621
7.600000000000873,0.2060096830104086,-0.23623687167592988
7.8000000000009395,0.1738711783256174,-0.26327018355201603
8.000000000001005,0.13458431944647103,-0.2859002331336757
8.200000000000895,0.08548474342087949,-0.2957234093478762
8.400000000000784,0.05372934053767516,-0.28438452919836293
8.600000000000673,0.03195197002421999,-0.25452303088834155
8.800000000000562,0.017279517408681867,-0.2230190724482348
9.000000000000451,0.021821602278318922,-0.1957081829342851
9.20000000000034,0.03728106936974612,-0.1486492993290109
9.40000000000023,0.06613837873934283,-0.1044550220526485
9.600000000000119,0.10657998815956705,-0.06561398861268031
9.800000000000008,0.1515988745787904,-0.03891552419347938
10.000999999999896,0.20260978872419902,-0.00710862294466925
10.200999999999786,0.2635180768283901,0.02995698618693112
10.400999999999675,0.3173125592000489,0.054233136250168734
10.600999999999564,0.3638543548634658,0.04988291056343187
10.800999999999453,0.4052584944297376,0.014147179258335096
11.000999999999342,0.4288846483179975,-0.0434267131281488
11.200999999999231,0.43526024539422026,-0.07857374293117686
11.40099999999912,0.4262188353397588,-0.1178823542258589
11.60099999999901,0.4095146335909754,-0.16227837035549716
11.800999999998899,0.38945426100908587,-0.22036335161965692
12.000999999998788,0.372577347941581,-0.27707578070461414
12.200999999998677,0.34937338635334936,-0.3219085793985996
12.400999999998566,0.3110213288762646,-0.3561300500923763
12.600999999998455,0.25927025140182597,-0.39109711243128403
12.800999999998345,0.20355894313909964,-0.42506433646899944
13.000999999998234,0.15045257334360435,-0.45184671103347196
13.200999999998123,0.09724827205639357,-0.47599303590462727
13.400999999998012,0.04088524527432637,-0.4961763032519076
13.600999999997901,-0.023786447734442263,-0.5246922597742599
13.80099999999779,-0.09424487997680493,-0.5573168811103448
14.00099999999768,-0.15175231474091816,-0.5617441874300592
14.200999999997569,-0.19445304447486728,-0.5383233211261416
14.400999999997458,-0.2227912794142492,-0.5074410390904276
14.600999999997347,-0.23247541815168515,-0.4907519888500141
14.800999999997236,-0.22528334644833722,-0.4806085798161151
15.000999999997125,-0.20464471058722936,-0.4511526832186886
15.200999999997014,-0.17851836198359314,-0.4041650431813836
15.400999999996904,-0.15048238520339413,-0.35121401339397984
15.600999999996793,-0.11017557170096387,-0.3124042396872373
15.800999999996682,-0.06514144386489677,-0.26963526726383885
16.000999999996573,-0.015943475331319276,-0.2334897115998355
16.200999999996817,0.036998592346519164,-0.19628060036809142
16.40099999999706,0.08333608416541186,-0.15002932075845393
16.600999999997306,0.12146253037337915,-0.09693256222549596
16.80099999999755,0.16417312306669546,-0.04168555764774063
17.000999999997795,0.21912686192392958,0.014526780058680902
17.20099999999804,0.2838985163998228,0.06188926926927101
17.400999999998284,0.3467946822692693,0.09298956922265594
17.60099999999853,0.41524597771573285,0.10395292345824471
17.800999999998773,0.4712103461593081,0.08100489378915714
18.000999999999017,0.5125739051380315,0.04047323240209509
18.20099999999926,0.5374465870166515,0.008195762106032
18.400999999999506,0.5565325652231122,-0.033493938728130904
18.60099999999975,0.568630026353578,-0.06206971730673801
18.799999999999994,0.5753135579214442,-0.08336183805365467
19.000000000000238,0.5632967951655949,-0.11190398425089691
19.200000000000482,0.5399158974599118,-0.1464788637861922
19.400000000000727,0.5031490122648453,-0.1915147107305629
19.60000000000097,0.45406185096935303,-0.2349251769553096
19.800000000001216,0.39425357905039865,-0.2795393365066935
20.00000000000146,0.3217164629084219,-0.3387010059939431
