Time (s),X (m),Y (m)
0.001,0.0009387665610552813,0.0008932837685830061
0.20000000000000015,0.0009048159856479738,3.9125776047551534e-05
0.4000000000000003,0.0013673226923119426,0.00019049504123523704
0.6000000000000004,0.0019725519748592965,0.00022594674209329923
0.8000000000000006,0.0028789877464767966,0.0006709239405098791
1.0000000000000007,0.0038156098953735815,0.0011147589048914575
1.2009999999999785,0.004672192654362251,0.0013971224628126632
1.4009999999999565,0.0055731885380415035,0.001852522946518519
1.6009999999999345,0.00649976271890767,0.0024051048212720655
1.8009999999999124,0.007444336836313816,0.0029862804124462486
2.0009999999998906,0.008402328309473212,0.0035637907398048405
2.2009999999998686,0.009378699100286264,0.004151483080298275
2.4009999999998466,0.010371871567963695,0.004767004135261632
2.6009999999998246,0.0113811565809488,0.005420733929741787
2.8009999999998025,0.012398937037854729,0.006108774457619065
3.0009999999997805,0.013418588651585793,0.006821791160882215
3.2009999999997585,0.014439507005464494,0.0075534072900032235
3.4009999999997365,0.015460257595866252,0.008300309066662542
3.6009999999997144,0.016480254238481477,0.009063165220155805
3.8009999999996924,0.017498394899161798,0.009842167050858617
4.000999999999671,0.018514594986685177,0.010636729258885404
4.200999999999738,0.019550864796869075,0.01144593312294918
4.400999999999804,0.020615224351992586,0.012268687218568799
4.600999999999871,0.021706740975334447,0.01310400472164036
4.800999999999938,0.022823491509512274,0.013951110499370934
5.000000000000004,0.023960767945745188,0.014827823359224772
5.200000000000071,0.02512176044965096,0.01569624230106575
5.400000000000138,0.026302430324271715,0.016574433364327068
5.600000000000205,0.02750110351990578,0.017461425824869373
5.800000000000272,0.02871620955929974,0.018356319425931755
6.000000000000338,0.029946095340985603,0.019258662127835967
6.200000000000405,0.031179488164502233,0.02016847131941957
6.400000000000472,0.03240504766364278,0.021085459722680184
6.600000000000539,0.033620041386254206,0.022008779122706237
6.800000000000606,0.03481867961555796,0.022936643218349553
7.000000000000672,0.035981756214912584,0.02386442017453428
7.200000000000739,0.03710674336871495,0.024792261394705292
7.400000000000806,0.038193285854858615,0.02572056949398085
7.600000000000873,0.03924109134298072,0.026649400329764407
7.8000000000009395,0.040249729754237816,0.02757864422386029
8.000000000001005,0.04121931927647518,0.02850824283841067
8.200000000000895,0.04215002876320964,0.029438071116932474
8.400000000000784,0.043041458611939684,0.030368006785719596
8.600000000000673,0.04389344434673585,0.031298014752608856
8.800000000000562,0.044706286732467244,0.03222803233506203
9.000000000000451,0.04548006325911909,0.033158000851788084
9.20000000000034,0.04621444273381506,0.034087696294320985
9.40000000000023,0.04690091203991903,0.03501798957043973
9.600000000000119,0.04750618745206534,0.03595011611874337
9.800000000000008,0.048025834001553504,0.03688329736809326
10.000999999999896,0.048465323882698384,0.03779949868384501
10.200999999999786,0.04881622263379331,0.038733738110444234
10.400999999999675,0.04908731170978218,0.0396683438069721
10.600999999999564,0.0492827349329379,0.040603276300484194
10.800999999999453,0.049406047882282554,0.041538557601481965
11.000999999999342,0.04946092003422752,0.04247417967344192
11.200999999999231,0.04945132814194645,0.04341019024563113
11.40099999999912,0.04938046105360447,0.04434660393661388
11.60099999999901,0.0492516182486073,0.04528340775130013
11.800999999998899,0.04906829157716339,0.04622073840557327
12.000999999998788,0.048833968713740204,0.04715872492064971
12.200999999998677,0.04855203162884194,0.048097572800783306
12.400999999998566,0.04823351893101644,0.04903812536406846
12.600999999998455,0.04788975540565699,0.04998134806086852
12.800999999998345,0.047522129718292436,0.05092729968615014
13.000999999998234,0.047133183424719664,0.05187606277660095
13.200999999998123,0.04672525208380838,0.052827776093344374
13.400999999998012,0.04630041252230134,0.053782414306608635
13.600999999997901,0.04586034703074879,0.05473997363789898
13.80099999999779,0.04540659433984937,0.055700472751099336
14.00099999999768,0.04494243091080209,0.05666409736443917
14.200999999997569,0.044469175976512246,0.05763100440261771
14.400999999997458,0.043987696153586435,0.05860126989504386
14.600999999997347,0.043499005822727956,0.05957500856669292
14.800999999997236,0.04300317750283384,0.06055232911324232
15.000999999997125,0.042500324429513764,0.06153327723466308
15.200999999997014,0.041990514703492646,0.06251790794855018
15.400999999996904,0.04147375880829438,0.06350625936069319
15.600999999996793,0.04094998588651198,0.06449856429017786
15.800999999996682,0.04041912067579243,0.065494946083381
16.000999999996573,0.039881229970946994,0.06649559752735733
16.200999999996817,0.03933631507844632,0.06750085477655818
16.40099999999706,0.03878437405017205,0.06851088112313518
16.600999999997306,0.038225325527927435,0.0695258798662218
16.80099999999755,0.0376591363282889,0.07054618281836662
17.000999999997795,0.03708580232559899,0.07157215178261699
17.20099999999804,0.03650525029780571,0.07260453500152068
17.400999999998284,0.03591730086466303,0.07364433232163521
17.60099999999853,0.03532188743041076,0.07469203403043687
17.800999999998773,0.034718943497464676,0.07574774827846906
18.000999999999017,0.03410842732404603,0.07681151164972738
18.20099999999926,0.03349037031723895,0.07788337528969172
18.400999999999506,0.03286476318665359,0.07896357747940232
18.60099999999975,0.03223157475365533,0.08005217679946287
18.799999999999994,0.03158300138119768,0.0811642429068813
19.000000000000238,0.030933990708490924,0.08226987210887292
19.200000000000482,0.030276993276213627,0.08338427845734757
19.400000000000727,0.029612028358444693,0.08450767326967563
19.60000000000097,0.028938981301216967,0.08563960862921714
19.800000000001216,0.02825783568094164,0.0867800688549475
20.00000000000146,0.027568621677322012,0.08793006245753289
