Time (s),X (m),Y (m)
0.001,0.0013578629866597446,0.0004359202765531099
0.20000000000000015,0.0007037617140208261,0.00014610250815066676
0.4000000000000003,0.0008606990383594035,0.00305431289055348
0.6000000000000004,0.009211263514025032,0.00874052597946971
0.8000000000000006,0.02243361195386771,0.017802127501424955
1.0000000000000007,0.037402619377239356,0.028242477605686468
1.2009999999999785,0.05552906474285391,0.03698143233384523
1.4009999999999565,0.07239656014848603,0.04616882485928538
1.6009999999999345,0.10226678830648853,0.05206577449858751
1.8009999999999124,0.1395364009913476,0.05402241191865181
2.0009999999998906,0.17435982371029068,0.05330240250075917
2.2009999999998686,0.2045997387123394,0.04733385982464015
2.4009999999998466,0.2255507745390229,0.035865244244301105
2.6009999999998246,0.24581382712020364,0.02073993468869334
2.8009999999998025,0.2712517188138097,0.0009103996010816226
3.0009999999997805,0.29416603775145456,-0.02353531408866115
3.2009999999997585,0.3182243807273395,-0.05202802466406803
3.4009999999997365,0.34731474362613407,-0.08463935017756499
3.6009999999997144,0.3680168631914207,-0.1126756435737116
3.8009999999996924,0.3923875771687024,-0.14500326494824026
4.000999999999671,0.4182270567121278,-0.1780019640730466
4.200999999999738,0.43565975721771244,-0.1973558414704575
4.400999999999804,0.44279684413737275,-0.22296647906480893
4.600999999999871,0.43825342285794633,-0.24516682698158881
4.800999999999938,0.43245626838714996,-0.27148075454940174
5.000000000000004,0.43417728997768773,-0.2926740176457204
5.200000000000071,0.4338850325460064,-0.31480431318076635
5.400000000000138,0.43158615179341414,-0.3451500849296052
5.600000000000205,0.4312585129924301,-0.37963004025836283
5.800000000000272,0.4378240287869753,-0.40555279146759027
6.000000000000338,0.44846056172974386,-0.432029043237261
6.200000000000405,0.4594586847785118,-0.4761129633445617
6.400000000000472,0.4574776001843081,-0.5372017566372898
6.600000000000539,0.4415003469430344,-0.5912222223757442
6.800000000000606,0.41599793722884737,-0.6481227854696167
7.000000000000672,0.3844217937982598,-0.694163491093689
7.200000000000739,0.35144045376388927,-0.732618637744685
7.400000000000806,0.3235105571016109,-0.7602047351453936
7.600000000000873,0.2914338794776559,-0.7969135819506014
7.8000000000009395,0.2561702444059151,-0.8341891350557845
8.000000000001005,0.2171716246929358,-0.8746470017278726
8.200000000000895,0.17041251962129036,-0.9235648853292574
8.400000000000784,0.11603375544288222,-0.9723705508378927
8.600000000000673,0.05055893814673889,-1.0228262903526413
8.800000000000562,-0.023119915630548014,-1.070300931171785
9.000000000000451,-0.1044451889060332,-1.110526704599843
9.20000000000034,-0.17747263849090733,-1.1318384051545278
9.40000000000023,-0.23754283246990182,-1.1226995647128073
9.600000000000119,-0.2829945519344548,-1.1007851861502198
9.800000000000008,-0.318787279618286,-1.0628858241570212
10.000999999999896,-0.3412216357795302,-1.0286296003032844
10.200999999999786,-0.34316506678952297,-0.9846213631830941
10.400999999999675,-0.33063003157577425,-0.9488012637740529
10.600999999999564,-0.30176882341923417,-0.9068954000689278
10.800999999999453,-0.26010784901021594,-0.8630167045078421
11.000999999999342,-0.2167834378154568,-0.8245301779946288
11.200999999999231,-0.1707172191036593,-0.789089802613434
11.40099999999912,-0.11373630476343993,-0.7468028527760868
11.60099999999901,-0.05111077797828453,-0.700451484201213
11.800999999998899,0.005473992205733747,-0.6607825196503275
12.000999999998788,0.06067217662707907,-0.6431252210623787
12.200999999998677,0.11885197940969905,-0.6514346435234152
12.400999999998566,0.16740328309452632,-0.672440758237998
12.600999999998455,0.20983328053813732,-0.6963621303240042
12.800999999998345,0.258615597366558,-0.7215918002898971
13.000999999998234,0.3024887770421211,-0.7554324765924088
13.200999999998123,0.36153838064821464,-0.7951679617149046
13.400999999998012,0.42072407217020097,-0.8400754076023658
13.600999999997901,0.4757356400712446,-0.8873078882683108
13.80099999999779,0.5247484928885083,-0.9383440079412598
14.00099999999768,0.5714759105818638,-0.990492677266872
14.200999999997569,0.6145398162867777,-1.0425860785287884
14.400999999997458,0.6643706324418831,-1.099273312010136
14.600999999997347,0.7130994080113168,-1.1535341251727456
14.800999999997236,0.7709499668508689,-1.2050934151958852
15.000999999997125,0.8282105464770347,-1.2574081772171048
15.200999999997014,0.8825439818662241,-1.3106110311240413
15.400999999996904,0.9387685065772471,-1.368055550958545
15.600999999996793,1.0106259044200463,-1.4337584958258223
15.800999999996682,1.0815351889427176,-1.499979856478001
16.000999999996573,1.1447966785900732,-1.5611104321170597
16.200999999996817,1.215625378531251,-1.6237107986008144
16.40099999999706,1.2888554703482058,-1.6862826441995404
16.600999999997306,1.3513069205670576,-1.7451387742707745
16.80099999999755,1.415470098837578,-1.8068059472602682
17.000999999997795,1.4892356786969259,-1.8723624832421473
17.20099999999804,1.5550190373376462,-1.938999075686448
17.400999999998284,1.6270115859668595,-2.0089414878230465
17.60099999999853,1.7019117344182948,-2.0830700663917923
17.800999999998773,1.7738102227930401,-2.1554319528041517
18.000999999999017,1.8472196551086622,-2.228148318650149
18.20099999999926,1.9117452545632714,-2.30186429331568
18.400999999999506,1.964792232713301,-2.37224863065958
18.60099999999975,2.0256263356421482,-2.449253928125072
18.799999999999994,2.0896531135912917,-2.5276294718704695
19.000000000000238,2.1488840086533263,-2.6022044122067993
19.200000000000482,2.2029483289293013,-2.6838785046265796
19.400000000000727,2.2424250849998977,-2.7552125720624705
19.60000000000097,2.24903402781353,-2.811988094901616
19.800000000001216,2.2242835163079766,-2.861083157874817
20.00000000000146,2.1784178616250767,-2.9124016516727163
