Time (s),X (m),Y (m)
0.001,0.0006899943756669482,0.0009963285817120476
0.20000000000000015,0.0008849350516963456,-0.0005754374059472533
0.4000000000000003,0.0063314008969864565,0.0024883182006424634
0.6000000000000004,0.016634650610975205,0.0009442686716511467
0.8000000000000006,0.025315900196914105,-0.004154577752211385
1.0000000000000007,0.03838606359293321,-0.014503809202202218
1.2009999999999785,0.055367990096757386,-0.031755919917478274
1.4009999999999565,0.05606037054575749,-0.04692871586180944
1.6009999999999345,0.061560157516600905,-0.07039748315087642
1.8009999999999124,0.06382402824846378,-0.09400921854199107
2.0009999999998906,0.05536884835325518,-0.1136466157719252
2.2009999999998686,0.037586171975095596,-0.12323144799602916
2.4009999999998466,0.016995951205492597,-0.1280383329700976
2.6009999999998246,-0.004740097110915009,-0.1324283791877439
2.8009999999998025,-0.02926289555603783,-0.13667738378653776
3.0009999999997805,-0.060307584196629904,-0.14489408310028307
3.2009999999997585,-0.09321282716439509,-0.14441637536760304
3.4009999999997365,-0.12805691651344178,-0.16767370817904567
3.6009999999997144,-0.1618512284746493,-0.20893345809934263
3.8009999999996924,-0.18860378273868425,-0.2425106298721955
4.000999999999671,-0.21960912759648704,-0.26018039222572176
4.200999999999738,-0.25560230180081933,-0.2927006082023858
4.400999999999804,-0.2940000941784914,-0.32843512104491623
4.600999999999871,-0.33390065669014934,-0.3538624676095958
4.800999999999938,-0.37510897091110296,-0.37775528303134426
5.000000000000004,-0.4191239559186665,-0.39012236659223065
5.200000000000071,-0.46300108698221887,-0.3830591309245033
5.400000000000138,-0.49698141595501233,-0.35461668214737313
5.600000000000205,-0.5198713808699699,-0.3109261511519116
5.800000000000272,-0.5403300050509026,-0.2531618867108646
6.000000000000338,-0.557382367026703,-0.2001365932707072
6.200000000000405,-0.5704575292448152,-0.15490386760990643
6.400000000000472,-0.5753857913048529,-0.12345067023764589
6.600000000000539,-0.5703370280838915,-0.1008505360177794
6.800000000000606,-0.5586909719501476,-0.0763818699541932
7.000000000000672,-0.5352600018603929,-0.05118697980726543
7.200000000000739,-0.4950527675550517,-0.030643614283069026
7.400000000000806,-0.44479444235076343,-0.020759610418966797
7.600000000000873,-0.3933747387601946,-0.023669574927316393
7.8000000000009395,-0.3375860579958165,-0.035976359253085184
8.000000000001005,-0.29950977481455604,-0.05920083188255525
8.200000000000895,-0.2711234003560095,-0.09570681334874115
8.400000000000784,-0.24826303846476142,-0.11980029185685537
8.600000000000673,-0.23917135681683305,-0.11738277547721827
8.800000000000562,-0.2504362876082969,-0.11735457223777583
9.000000000000451,-0.28317317271706327,-0.13168626307523015
9.20000000000034,-0.32671824283482975,-0.1408786740634831
9.40000000000023,-0.3778197419876049,-0.1559636036954594
9.600000000000119,-0.4428946760860749,-0.18860301181107894
9.800000000000008,-0.5089295517880013,-0.21535246060327307
10.000999999999896,-0.5643971433865331,-0.23666454893290143
10.200999999999786,-0.6163355189988842,-0.25329570393012807
10.400999999999675,-0.6802980402984359,-0.2654794081044461
10.600999999999564,-0.7388645638989976,-0.2732711707466673
10.800999999999453,-0.7843723070735014,-0.27478580717021917
11.000999999999342,-0.8325944747842555,-0.2732864612234904
11.200999999999231,-0.884681803449738,-0.25657689129882044
11.40099999999912,-0.9459240048548802,-0.23804174218655452
11.60099999999901,-1.0190631694836123,-0.22030791050345158
11.800999999998899,-1.0778022644284821,-0.18611994607826574
12.000999999998788,-1.1204233307055964,-0.12350481217970825
12.200999999998677,-1.1474251251540935,-0.0460763405993031
12.400999999998566,-1.1669914089928202,0.026756196919507584
12.600999999998455,-1.1784373356450975,0.09235262862413943
12.800999999998345,-1.1838120822970555,0.13183537054665562
13.000999999998234,-1.1745265563191827,0.17311910525376556
13.200999999998123,-1.1516359839511456,0.2250967238147247
13.400999999998012,-1.1241862162961131,0.2832116317154736
13.600999999997901,-1.1004271180986127,0.34236081174504884
13.80099999999779,-1.0638012500843883,0.38853868217170084
14.00099999999768,-1.0173707682233313,0.4280658231105912
14.200999999997569,-0.9693184352907985,0.4594651315056795
14.400999999997458,-0.9120802983541342,0.49103608218564704
14.600999999997347,-0.8446600382647815,0.5218104765770338
14.800999999997236,-0.7609412293988796,0.5399121461139217
15.000999999997125,-0.6811152202957564,0.5497832756053771
15.200999999997014,-0.6219318248643658,0.5507771976394158
15.400999999996904,-0.5898142239824672,0.5277837484401154
15.600999999996793,-0.5611390463971644,0.4843534806464734
15.800999999996682,-0.5330924705569237,0.4289505577772089
16.000999999996573,-0.5150073113811602,0.3554455517628506
16.200999999996817,-0.4987883391568087,0.27139635781120186
16.40099999999706,-0.48710855632538386,0.17581943204999007
16.600999999997306,-0.4867264180044878,0.10306370730724469
16.80099999999755,-0.5102459340513389,0.05997960539100974
17.000999999997795,-0.5546556639382981,0.02897917627750076
17.20099999999804,-0.6066330648329832,0.006151755564630419
17.400999999998284,-0.6550259235676654,-0.002451339045128181
17.60099999999853,-0.7035099495058977,-0.0019327611847213605
17.800999999998773,-0.7494547933799893,0.019468503446986314
18.000999999999017,-0.7871955050618303,0.061963915984454644
18.20099999999926,-0.825560505908503,0.115170915765927
18.400999999999506,-0.8688979263851305,0.17235703820093465
18.60099999999975,-0.9097192454323902,0.23581973170460452
18.799999999999994,-0.9534431819817816,0.3027688920698396
19.000000000000238,-0.994032009886454,0.3729672113024495
19.200000000000482,-1.0240093971695938,0.4501246261176134
19.400000000000727,-1.051893274626562,0.5256453240315252
19.60000000000097,-1.0760409414674963,0.5833697328137675
19.800000000001216,-1.077905059058079,0.6371816728703401
20.00000000000146,-1.06200620382192,0.6847628191675292
