Time (s),X (m),Y (m)
0.001,-0.0004702548317818469,-0.0005157376242541218
0.20000000000000015,0.0020271102417035915,9.607033321797308e-05
0.4000000000000003,0.010241143757978292,0.0010468331405572785
0.6000000000000004,0.022221148419457878,0.002878123026778815
0.8000000000000006,0.034730144729978,0.0010202846325650691
1.0000000000000007,0.042241148203834726,-0.004127282063296651
1.2009999999999785,0.058726970584275805,-0.019370329257502285
1.4009999999999565,0.08776492418668684,-0.040382409323142465
1.6009999999999345,0.10864554603393438,-0.06017000481751804
1.8009999999999124,0.13124112658381606,-0.08352915371761835
2.0009999999998906,0.15491426061311836,-0.11132515799956395
2.2009999999998686,0.17663059595984404,-0.14183479290965895
2.4009999999998466,0.2027117801305224,-0.17520931201162562
2.6009999999998246,0.2322784409131653,-0.21055284459077747
2.8009999999998025,0.2661747423413437,-0.24753821580236415
3.0009999999997805,0.29632536838196627,-0.27925193239923385
3.2009999999997585,0.3293767470825338,-0.3100296250636104
3.4009999999997365,0.3591364845069261,-0.3446203790344245
3.6009999999997144,0.38743994043498203,-0.38540476942524476
3.8009999999996924,0.42897633240097965,-0.43609541707025096
4.000999999999671,0.4653256300827848,-0.4757379216316876
4.200999999999738,0.49734406503772033,-0.5290788105458273
4.400999999999804,0.5249472457832968,-0.5978738799043233
4.600999999999871,0.5417347852644266,-0.6568242169046384
4.800999999999938,0.5393311857971419,-0.7034804936907955
5.000000000000004,0.5158981025058972,-0.7590082597460456
5.200000000000071,0.47408837461825903,-0.8105117758181135
5.400000000000138,0.4115552169973961,-0.853267085014553
5.600000000000205,0.3391055707228602,-0.8744501497012745
5.800000000000272,0.27504413765715235,-0.87246196707988
6.000000000000338,0.21579696903925497,-0.8563847112772198
6.200000000000405,0.14939502870619073,-0.8331968526546111
6.400000000000472,0.09536726486635586,-0.7993890239651302
6.600000000000539,0.05374978819270898,-0.7619378248413416
6.800000000000606,0.008935690000717068,-0.7185601552455967
7.000000000000672,-0.04500037285988784,-0.6828914231801784
7.200000000000739,-0.10151108880063457,-0.6422481294465234
7.400000000000806,-0.16039788558236828,-0.5962065116164311
7.600000000000873,-0.2123477586103448,-0.5455179907292654
7.8000000000009395,-0.2589632267444676,-0.4944161604564461
8.000000000001005,-0.3127233153563366,-0.44096630422465055
8.200000000000895,-0.37321606718341005,-0.3882780377069974
8.400000000000784,-0.4215697359488955,-0.33777412058370737
8.600000000000673,-0.4741901052223977,-0.2812020167529876
8.800000000000562,-0.5215332995707443,-0.21941151026621147
9.000000000000451,-0.5450012466269203,-0.16217593092244495
9.20000000000034,-0.5398822782287375,-0.1097924549791022
9.40000000000023,-0.506355618744446,-0.06076639620521432
9.600000000000119,-0.4610578048547154,-0.01373985251819332
9.800000000000008,-0.42543843921458646,0.029767730567352862
10.000999999999896,-0.3772602732715663,0.061297997883132636
10.200999999999786,-0.33028677048034405,0.06789959432600191
10.400999999999675,-0.2936231055108008,0.05255256856902291
10.600999999999564,-0.2649983483753324,0.02522570737833969
10.800999999999453,-0.22478834807686848,-0.014840559880273451
11.000999999999342,-0.1870310200175632,-0.05743717378231378
11.200999999999231,-0.14782700901786053,-0.10797000200325509
11.40099999999912,-0.10420734224783867,-0.1604838500619204
11.60099999999901,-0.06353706604562472,-0.21697570756201867
11.800999999998899,-0.022310067940276197,-0.2760478329884547
12.000999999998788,0.03145253640487897,-0.33728890842497444
12.200999999998677,0.0777147975061672,-0.39867742768454756
12.400999999998566,0.12962827218864345,-0.4615502478498547
12.600999999998455,0.1873175570325821,-0.527096419476037
12.800999999998345,0.24314462305686357,-0.5925812923699054
13.000999999998234,0.30754340808236397,-0.6573242529114408
13.200999999998123,0.3665741004675552,-0.7234830273161015
13.400999999998012,0.4249419588287359,-0.7911236765855457
13.600999999997901,0.5029998465687823,-0.854232783121858
13.80099999999779,0.5782480581510608,-0.9054466182836011
14.00099999999768,0.6492421191353385,-0.9536678334142047
14.200999999997569,0.7220585548079684,-1.009430042055901
14.400999999997458,0.7947286888211986,-1.0628876519510426
14.600999999997347,0.8637016836682888,-1.112020102448035
14.800999999997236,0.9297993980428281,-1.1628798835041672
15.000999999997125,0.995200652717615,-1.2122306124071138
15.200999999997014,1.059047880088339,-1.2596043481486143
15.400999999996904,1.120218051441423,-1.31643483439237
15.600999999996793,1.1806735341440515,-1.3910583928251008
15.800999999996682,1.240890005427048,-1.4767346634968617
16.000999999996573,1.2930754811900769,-1.5529771433764294
16.200999999996817,1.3248029656818914,-1.6302716207850545
16.40099999999706,1.3253977458517385,-1.7112597934135398
16.600999999997306,1.2992193995337358,-1.782795457483269
16.80099999999755,1.2549917620454663,-1.8367839378165645
17.000999999997795,1.200394449000516,-1.8871353289972468
17.20099999999804,1.1427549648996616,-1.9317022409891507
17.400999999998284,1.0811755295258687,-1.966469706077102
17.60099999999853,1.015608230960473,-1.9670344701793232
17.800999999998773,0.9522442282844626,-1.9329964176316525
18.000999999999017,0.8965001847318108,-1.8776724442907688
18.20099999999926,0.8623015714704503,-1.8177741521415989
18.400999999999506,0.8543810018911813,-1.7629176746460085
18.60099999999975,0.8714786225835216,-1.7039635845338208
18.799999999999994,0.9079861378050084,-1.6423547501180498
19.000000000000238,0.9551013841813784,-1.5731903100371871
19.200000000000482,1.0073885317575955,-1.5010893904466727
19.400000000000727,1.0652386053676899,-1.4335615190628652
19.60000000000097,1.1302883323300055,-1.3760157699162765
19.800000000001216,1.2008529539407344,-1.318055317903325
20.00000000000146,1.2733735251056244,-1.2530555514681478
