Time (s),X (m),Y (m)
0.001,0.0008589492133542695,0.0009348340498585851
0.20000000000000015,0.0010167602856367066,0.0007802939799459064
0.4000000000000003,0.00924486379270944,0.008270397230731268
0.6000000000000004,0.025596104630381644,0.014494792919723503
0.8000000000000006,0.045279905821174964,0.021363188341285214
1.0000000000000007,0.05839320239167051,0.023425176953253475
1.2009999999999785,0.05809494109677596,0.0224600859550561
1.4009999999999565,0.05589487773202983,0.010909482930445797
1.6009999999999345,0.053373492955309965,-0.0034289471254162623
1.8009999999999124,0.06400567093149423,-0.024215441741235612
2.0009999999998906,0.08492004341381956,-0.0549918162934572
2.2009999999998686,0.10047908069701371,-0.08231665268767917
2.4009999999998466,0.110202763888343,-0.11080190880980986
2.6009999999998246,0.11349943210081533,-0.13921088149550206
2.8009999999998025,0.10690492887830885,-0.16672520486955442
3.0009999999997805,0.08875199866030073,-0.19147795618059452
3.2009999999997585,0.061516507975726234,-0.21701017928593236
3.4009999999997365,0.028090354351023757,-0.2502095279307784
3.6009999999997144,-0.010581260715002861,-0.274348277544649
3.8009999999996924,-0.05056545126217429,-0.2944420992458374
4.000999999999671,-0.08235843962552948,-0.3050146006662941
4.200999999999738,-0.11913609514023511,-0.31384331576537694
4.400999999999804,-0.16599316996485108,-0.3302002680729897
4.600999999999871,-0.21738739882496283,-0.34549525050965707
4.800999999999938,-0.2711869694424101,-0.35651729282661065
5.000000000000004,-0.31280163401627564,-0.35145003569161715
5.200000000000071,-0.3639670105464227,-0.33626765614963405
5.400000000000138,-0.422437374106075,-0.3027740657297842
5.600000000000205,-0.46079715348171496,-0.2628565916902253
5.800000000000272,-0.49085003027005386,-0.21289480970531077
6.000000000000338,-0.5117132192182647,-0.16490666418065358
6.200000000000405,-0.5124481466737706,-0.10449999463078587
6.400000000000472,-0.4945729920306266,-0.0525153894742383
6.600000000000539,-0.45652074935115106,-0.004305230693985965
6.800000000000606,-0.40937079042572716,0.03768362520870453
7.000000000000672,-0.35790363217749466,0.07171628456234679
7.200000000000739,-0.30773529725348353,0.1043430920565211
7.400000000000806,-0.2513149659657792,0.13125141739675794
7.600000000000873,-0.19457026136117275,0.15448526332607573
7.8000000000009395,-0.12720257076236105,0.18394147342947217
8.000000000001005,-0.06263066861931658,0.2120654550415031
8.200000000000895,-0.01949386475389176,0.2282663503521487
8.400000000000784,0.02862042222266441,0.21811756232866975
8.600000000000673,0.07003327908571427,0.1921227204864669
8.800000000000562,0.11392431783477651,0.15279160161177027
9.000000000000451,0.1566467682855891,0.08895129619621264
9.20000000000034,0.18299839851098484,0.01613455219558653
9.40000000000023,0.18732319940924527,-0.053592379317180604
9.600000000000119,0.16606332515578662,-0.11268146489062708
9.800000000000008,0.13253752476195246,-0.15416457750229526
10.000999999999896,0.09203580375417303,-0.18670962484078302
10.200999999999786,0.05281034968022474,-0.2127463333219135
10.400999999999675,0.006283731589212277,-0.2281559148392519
10.600999999999564,-0.054257991865831794,-0.23852623326663713
10.800999999999453,-0.11258948977358195,-0.23334346153260924
11.000999999999342,-0.1554572726759152,-0.21442739510239672
11.200999999999231,-0.18970359114017532,-0.180273933296669
11.40099999999912,-0.2093369149464512,-0.15024051245134798
11.60099999999901,-0.20540114419665242,-0.13689571714576587
11.800999999998899,-0.18271851485082133,-0.12002076397795665
12.000999999998788,-0.14537335507865834,-0.1086845003115839
12.200999999998677,-0.10452907306124429,-0.1167835296601985
12.400999999998566,-0.0695302572639615,-0.14117980038670883
12.600999999998455,-0.04247840225409581,-0.17632446288907763
12.800999999998345,-0.024074859313920616,-0.20880022956666952
13.000999999998234,-0.023551046053453602,-0.22676568307242126
13.200999999998123,-0.05007730988071911,-0.2494152508277144
13.400999999998012,-0.09457022184074412,-0.28167386721215354
13.600999999997901,-0.14818289444076033,-0.3253176326277083
13.80099999999779,-0.20960546821808462,-0.376374686262851
14.00099999999768,-0.27157870680889046,-0.417607843569893
14.200999999997569,-0.33734998228902874,-0.4534450159716841
14.400999999997458,-0.408423809501134,-0.488580868506883
14.600999999997347,-0.46699317488041703,-0.5161071046515053
14.800999999997236,-0.5144617656739776,-0.5214375238981226
15.000999999997125,-0.5568698371178827,-0.496215160611233
15.200999999997014,-0.5929053252678728,-0.45869014542801423
15.400999999996904,-0.6163566335476872,-0.4182739467116715
15.600999999996793,-0.631820716713239,-0.36669591716560757
15.800999999996682,-0.6255588993575748,-0.3267719855294669
16.000999999996573,-0.5934588727173565,-0.29212586473146246
16.200999999996817,-0.5453974583194711,-0.2581006448322565
16.40099999999706,-0.47958063840164655,-0.22744248689418708
16.600999999997306,-0.41550299538789126,-0.20509098407760362
16.80099999999755,-0.3409005495761959,-0.18303643728445027
17.000999999997795,-0.27306981292621063,-0.1652137593366333
17.20099999999804,-0.2102673854716922,-0.15714723029137762
17.400999999998284,-0.15713791628124155,-0.16761825749070738
17.60099999999853,-0.12473046299464018,-0.19658226705224277
17.800999999998773,-0.10148307077901021,-0.2374144586659283
18.000999999999017,-0.07856616793016782,-0.28140946519744553
18.20099999999926,-0.057212655522701696,-0.3360365198067574
18.400999999999506,-0.04146288312245473,-0.38615351843027546
18.60099999999975,-0.03897377065038139,-0.4314253057508112
18.799999999999994,-0.054687934979649085,-0.4896210053156597
19.000000000000238,-0.09720728026366464,-0.54246429406144
19.200000000000482,-0.14457990923486896,-0.5748547252329645
19.400000000000727,-0.18217064775041775,-0.5858091976293645
19.60000000000097,-0.19938084575811263,-0.578269499443393
19.800000000001216,-0.21585071608268996,-0.5499022811770952
20.00000000000146,-0.23401067210464555,-0.5115025250999888
