Time (s),X (m),Y (m)
0.001,-9.270868745296317e-05,0.0008932837685830061
0.20000000000000015,0.0007297495877347247,4.5146042479137345e-05
0.4000000000000003,0.0014051254563964431,-0.00019869135441079902
0.6000000000000004,0.0037861023066944784,-0.0011307382680424299
0.8000000000000006,0.005098573957183432,-0.0020757288485740177
1.0000000000000007,0.0067881754774521815,-0.0024955089346171823
1.2009999999999785,0.007650073013458582,-0.0004926011738008707
1.4009999999999565,0.012101023005381956,-0.0007042782595374147
1.6009999999999345,0.019024587366337237,-0.004368148114505206
1.8009999999999124,0.02309471085198294,-0.00490259922452364
2.0009999999998906,0.02756280366464943,-0.0050842152178380015
2.2009999999998686,0.03133744155838001,-0.0046337586626340275
2.4009999999998466,0.03552315195191585,-0.004614676200102302
2.6009999999998246,0.039026270215343314,-0.00540145324074895
2.8009999999998025,0.04443164694251461,-0.004764360207828249
3.0009999999997805,0.04896777537075711,-0.004204324655841818
3.2009999999997585,0.05463000532636125,-0.004182846605359688
3.4009999999997365,0.05970693812574483,-0.0034027308393885483
3.6009999999997144,0.06598585913132489,-0.0022217251219449567
3.8009999999996924,0.07244936376040097,-0.0013424196488852071
4.000999999999671,0.07410698568451514,0.0007413858587191338
4.200999999999738,0.07384137948935042,0.004773506521397746
4.400999999999804,0.07849932338041937,0.007047405400506207
4.600999999999871,0.08481915139374531,0.00656037646575732
4.800999999999938,0.08775555786332072,0.008968803579715292
5.000000000000004,0.09227124943734957,0.011934368625641444
5.200000000000071,0.0940798149411276,0.012916158815487822
5.400000000000138,0.10047123233453292,0.013085436808231642
5.600000000000205,0.10646186299108032,0.013629300139399982
5.800000000000272,0.110613129577,0.016327816050818168
6.000000000000338,0.11347032841434958,0.019646342129048592
6.200000000000405,0.11893836610284643,0.02249319476164745
6.400000000000472,0.12030027995672334,0.025272363681946967
6.600000000000539,0.12365065714525265,0.027500851373935955
6.800000000000606,0.12831521177797434,0.030068794165180223
7.000000000000672,0.13136690334042653,0.032577160712456046
7.200000000000739,0.13517005098853987,0.03618138195252584
7.400000000000806,0.14198513124080017,0.03970889852758318
7.600000000000873,0.15050815490124475,0.041664370936667146
7.8000000000009395,0.15690817070483568,0.045614738675841704
8.000000000001005,0.16278018820714443,0.048751299861888545
8.200000000000895,0.16708184269617918,0.05070248826644518
8.400000000000784,0.16966525306654148,0.05394125298664647
8.600000000000673,0.17604304561412085,0.05520281513173203
8.800000000000562,0.18283515181165885,0.057458131427283406
9.000000000000451,0.1898348109813072,0.05860952516185532
9.20000000000034,0.19455140752605807,0.06244234373386091
9.40000000000023,0.19902371282013936,0.0664242032902445
9.600000000000119,0.20044034902305993,0.07031288575494396
9.800000000000008,0.20575234060963357,0.07361155248229154
10.000999999999896,0.21027552567864516,0.07550225333195248
10.200999999999786,0.21747307321967332,0.07927531517423654
10.400999999999675,0.22661063697121167,0.08338320590409132
10.600999999999564,0.2275119142806719,0.08827273886477627
10.800999999999453,0.23289508589770888,0.08949705997928488
11.000999999999342,0.23552226971339305,0.09287183140635001
11.200999999999231,0.23717231439338604,0.09783204458560332
11.40099999999912,0.24153210330012526,0.10209843033208425
11.60099999999901,0.24456181078819045,0.10590943023392133
11.800999999998899,0.2490646450343545,0.10879700952771527
12.000999999998788,0.2516816781121981,0.11392091278297956
12.200999999998677,0.2564149713944361,0.11950435408866136
12.400999999998566,0.2603756583445837,0.12351259138758608
12.600999999998455,0.2704821185276484,0.12695695341388505
12.800999999998345,0.2746138373107874,0.12946647866699632
13.000999999998234,0.27796459008448016,0.13310537333693734
13.200999999998123,0.28498025104415076,0.13515981629250648
13.400999999998012,0.2936724745599855,0.13866088746478009
13.600999999997901,0.2993350779258337,0.14193394475145607
13.80099999999779,0.3038092778614813,0.1465563838572606
14.00099999999768,0.30828803891619966,0.15029461085340304
14.200999999997569,0.312984589738859,0.15296778116986998
14.400999999997458,0.3171152329714536,0.15617025569624976
14.600999999997347,0.31966940199333704,0.1604939918667745
14.800999999997236,0.32783925291729626,0.1647378489801313
15.000999999997125,0.3298001742190321,0.1695213423733419
15.200999999997014,0.33483381950624536,0.17187264129135865
15.400999999996904,0.34079820408442074,0.17563974434527593
15.600999999996793,0.34718193044006596,0.17984618508961994
15.800999999996682,0.3532481247966354,0.18533035446261892
16.000999999996573,0.35757671713589645,0.19198282557538227
16.200999999996817,0.3629389168636519,0.1982366150795245
16.40099999999706,0.3668169992688401,0.20352229617177864
16.600999999997306,0.37060336330356075,0.20833029796065677
16.80099999999755,0.3770388831953485,0.21296937110321118
17.000999999997795,0.38052631068427695,0.2179900517858907
17.20099999999804,0.3845677710343032,0.22226061172448153
17.400999999998284,0.3916417687368838,0.22501591874916593
17.60099999999853,0.39640146425758227,0.2299571274382455
17.800999999998773,0.3971615293652213,0.235368366026971
18.000999999999017,0.4018093863660443,0.2405901364776789
18.20099999999926,0.40626804755769136,0.24503587414989433
18.400999999999506,0.4083138188759631,0.24992645477655756
18.60099999999975,0.42048303426899325,0.25259422514271934
18.799999999999994,0.42342847838705894,0.25848754981828576
19.000000000000238,0.4268956549821088,0.2623830160297791
19.200000000000482,0.4300763805691371,0.26678120215147927
19.400000000000727,0.43527983429476685,0.2719264482677924
19.60000000000097,0.44023628295661005,0.27680694177578075
19.800000000001216,0.44277971375085556,0.28104461951048604
20.00000000000146,0.44837169735207144,0.28653233480460116
