Time (s),X (m),Y (m)
0.001,0.0013163127053841656,-0.0005157376242541218
0.20000000000000015,0.0003608599137848549,0.0003172322081383662
0.4000000000000003,0.001322820342847931,0.004100511218355108
0.6000000000000004,0.005428373423120299,0.003430206917578459
0.8000000000000006,0.019503569056032576,0.001369922104527467
1.0000000000000007,0.03995409806651329,0.0032865342574166564
1.2009999999999785,0.0616252076016347,0.005631494646002242
1.4009999999999565,0.07676889165932628,0.008284620420195192
1.6009999999999345,0.08748553988294688,0.007997335922393527
1.8009999999999124,0.10569704243795214,0.0018328420516038686
2.0009999999998906,0.12578334295765228,-0.008545277301977364
2.2009999999998686,0.14498968012688954,-0.04394275508259625
2.4009999999998466,0.15774131720201556,-0.07752062808655306
2.6009999999998246,0.16184471457437122,-0.10651525126816609
2.8009999999998025,0.16978159442778604,-0.13281671282972365
3.0009999999997805,0.1633998277397658,-0.16025906173374582
3.2009999999997585,0.15171013559772298,-0.18262324476482053
3.4009999999997365,0.1319283169810779,-0.2005651884359295
3.6009999999997144,0.10757700771246922,-0.2094409101027074
3.8009999999996924,0.07609406074325328,-0.20259082156628727
4.000999999999671,0.0369974783514508,-0.18569446743594914
4.200999999999738,0.004156230804893357,-0.1642270342289154
4.400999999999804,-0.017626880516324515,-0.13570676536453424
4.600999999999871,-0.029643850607626827,-0.1073896431237916
4.800999999999938,-0.0363738234823476,-0.07692033822212242
5.000000000000004,-0.034870111405196115,-0.0416009553043294
5.200000000000071,-0.025613343256827178,-0.0040044421021465946
5.400000000000138,-0.0025475608730499743,0.038097286727689535
5.600000000000205,0.015041478150336258,0.08006086478623724
5.800000000000272,0.03702998452447452,0.12321458213425504
6.000000000000338,0.07431885625984623,0.1544531127141113
6.200000000000405,0.1178761841441149,0.164845087207531
6.400000000000472,0.16700048184761698,0.16498409883939827
6.600000000000539,0.2168294103250109,0.15990832648148115
6.800000000000606,0.2550800436859507,0.15316017315832384
7.000000000000672,0.28852047099632455,0.1427120962645566
7.200000000000739,0.3267131090587243,0.12807117925686923
7.400000000000806,0.3711576316679938,0.10252937658800168
7.600000000000873,0.4169529454278097,0.07624557670148478
7.8000000000009395,0.45728876967904003,0.04307489908941017
8.000000000001005,0.4905212132880666,0.006960512474854433
8.200000000000895,0.506443713671595,-0.046604815309621746
8.400000000000784,0.514747811941524,-0.08898468524926767
8.600000000000673,0.5073509115711133,-0.14026491607873678
8.800000000000562,0.49897183232906916,-0.18425870308600828
9.000000000000451,0.48496038562884164,-0.24553790997702465
9.20000000000034,0.46144462467508046,-0.30981921511761407
9.40000000000023,0.42673063816219126,-0.3732544620786659
9.600000000000119,0.3860699473196018,-0.43792406712386517
9.800000000000008,0.34304777214518223,-0.5055863380831834
10.000999999999896,0.29562420688336155,-0.5727053456546134
10.200999999999786,0.241557202659906,-0.6251221234022681
10.400999999999675,0.19094132567668542,-0.6527215658349201
10.600999999999564,0.13737170522607012,-0.6597890619663115
10.800999999999453,0.0832347765032643,-0.6576842564792591
11.000999999999342,0.034254820343688104,-0.6532574923276361
11.200999999999231,-0.023061603307960008,-0.6405045467676996
11.40099999999912,-0.08598969597035154,-0.6149393866811154
11.60099999999901,-0.14337266192986076,-0.5864382943273028
11.800999999998899,-0.20627824227553188,-0.5543020295470963
12.000999999998788,-0.28072134287044304,-0.5146092783502518
12.200999999998677,-0.35849612204189996,-0.46027669274917743
12.400999999998566,-0.4119580555576836,-0.3992564886470142
12.600999999998455,-0.42944653404548017,-0.3358066400644434
12.800999999998345,-0.41498245645008247,-0.2768752756979617
13.000999999998234,-0.37775459519684484,-0.23780457040039907
13.200999999998123,-0.32240971318761286,-0.22045876017308624
13.400999999998012,-0.2772697125148849,-0.21480227665841314
13.600999999997901,-0.22397227035661285,-0.22010301581179612
13.80099999999779,-0.1686543699626965,-0.23532207032298968
14.00099999999768,-0.1133618599981311,-0.2558411162832969
14.200999999997569,-0.060714173824620625,-0.2746115074786434
14.400999999997458,-0.02114927433651814,-0.29898955872126654
14.600999999997347,0.002362182338059804,-0.34664746824024545
14.800999999997236,0.01206085306501601,-0.40084437229818276
15.000999999997125,0.0028415350315743335,-0.46229677909348055
15.200999999997014,-0.017237273672269602,-0.5269593384616962
15.400999999996904,-0.0697467286724981,-0.56838157931755
15.600999999996793,-0.1361519347059327,-0.5757863348558913
15.800999999996682,-0.2041333773659078,-0.5603946574578322
16.000999999996573,-0.2695662964846177,-0.5369705197928533
16.200999999996817,-0.3470586804618555,-0.5009281443073025
16.40099999999706,-0.418784636620634,-0.463273762053121
16.600999999997306,-0.4884169099490172,-0.4260440028732335
16.80099999999755,-0.5578995415593674,-0.38738721414601396
17.000999999997795,-0.6259515568579076,-0.3505087614726027
17.20099999999804,-0.6832537915513728,-0.29507133517351836
17.400999999998284,-0.7124832100035594,-0.22846472122110087
17.60099999999853,-0.7143211025133269,-0.1541653072836623
17.800999999998773,-0.7014018955392582,-0.08311692756883447
18.000999999999017,-0.6765871339600164,-0.015424940863000468
18.20099999999926,-0.6464881408521953,0.04953105130573964
18.400999999999506,-0.5912693421707991,0.10842563721963984
18.60099999999975,-0.5085294616945968,0.14714006152583364
18.799999999999994,-0.43603772456472434,0.15801783202306896
19.000000000000238,-0.36867600255215655,0.15116365656352196
19.200000000000482,-0.292359513060605,0.12723457085853318
19.400000000000727,-0.2160278669620796,0.10168939899395234
19.60000000000097,-0.14161625950505372,0.056672106914483315
19.800000000001216,-0.0748121467806434,-0.001964123929734086
20.00000000000146,-0.027627363772756663,-0.06036990756616121
