Time (s),X (m),Y (m)
0.001,0.0008589492133542695,-0.0009348340498585851
0.20000000000000015,0.0006517178233571366,0.0022177970412513757
0.4000000000000003,0.006516175973735574,-0.0029637167165828377
0.6000000000000004,0.01650860916453188,-0.020661978807437652
0.8000000000000006,0.03250032390914185,-0.04985263945157186
1.0000000000000007,0.05055471768188615,-0.05851594354963453
1.2009999999999785,0.07400445706100021,-0.040036512214228076
1.4009999999999565,0.10340344366305149,-0.014275250587405976
1.6009999999999345,0.12754825399050085,0.0004952008824530056
1.8009999999999124,0.15259292937532026,0.002681129369711833
2.0009999999998906,0.1761846934337639,-0.008124473408204748
2.2009999999998686,0.19822290766342418,-0.032507968941732274
2.4009999999998466,0.2195320773016363,-0.07804338029586691
2.6009999999998246,0.240469434111261,-0.12046495880886422
2.8009999999998025,0.2615977633553807,-0.1299678249693245
3.0009999999997805,0.28843428106746444,-0.13895642583780754
3.2009999999997585,0.31886877214786374,-0.1444272167405839
3.4009999999997365,0.349913601340136,-0.1621518573959834
3.6009999999997144,0.3789972596005986,-0.1971424845299773
3.8009999999996924,0.4107457357142185,-0.24945194530168258
4.000999999999671,0.4506164164062869,-0.28457994197877595
4.200999999999738,0.49586438520352977,-0.3140325911937203
4.400999999999804,0.536294151821,-0.34648096571805925
4.600999999999871,0.5728386433723036,-0.3890863532344787
4.800999999999938,0.6088988433815206,-0.43226188592868875
5.000000000000004,0.6493733436017041,-0.46804171677451983
5.200000000000071,0.6874241682756993,-0.4983859686597375
5.400000000000138,0.7271047649717713,-0.5246183482305875
5.600000000000205,0.7693301570947338,-0.545373936196156
5.800000000000272,0.8121931598148107,-0.5564476207539375
6.000000000000338,0.8572603950243921,-0.5772552592664787
6.200000000000405,0.8989878600750318,-0.6141093288688345
6.400000000000472,0.9343189657437864,-0.6587993369436741
6.600000000000539,0.9662133704478244,-0.6943150383472484
6.800000000000606,0.9919765607592492,-0.7319822873144941
7.000000000000672,1.0068669628604021,-0.7788337226902527
7.200000000000739,1.013282962415534,-0.8276504026439898
7.400000000000806,1.01921041550016,-0.8780949360926623
7.600000000000873,1.0294410708894015,-0.9364287442378109
7.8000000000009395,1.0459497580012413,-0.9973511637238511
8.000000000001005,1.0645621813114732,-1.0460842007717845
8.200000000000895,1.0908228058743876,-1.084186268865782
8.400000000000784,1.1230150026227474,-1.120305437982516
8.600000000000673,1.1537836825269256,-1.1561438329006997
8.800000000000562,1.183622829836963,-1.2003779132665904
9.000000000000451,1.215373228294266,-1.25653151020974
9.20000000000034,1.2482578410141378,-1.3003908785216765
9.40000000000023,1.2800323760698342,-1.3576323966670278
9.600000000000119,1.3179693899998635,-1.3979018150227742
9.800000000000008,1.3656807782696148,-1.4179154392678164
10.000999999999896,1.4166372747776677,-1.4150062384279278
10.200999999999786,1.4692225185134868,-1.4165761264980408
10.400999999999675,1.5205043024172908,-1.4492251433454255
10.600999999999564,1.5712324044051003,-1.4820457547405919
10.800999999999453,1.621555840102295,-1.4827290154730186
11.000999999999342,1.6734995725710509,-1.4851851445360944
11.200999999999231,1.7279724065752529,-1.5071553453537225
11.40099999999912,1.774492341147083,-1.5548137985976738
11.60099999999901,1.823870602496277,-1.5938571699873962
11.800999999998899,1.8712569481953927,-1.633339312306656
12.000999999998788,1.9146604516227164,-1.6782108591775224
12.200999999998677,1.9609429504067326,-1.7135739665485659
12.400999999998566,1.9995596183013342,-1.75399393205842
12.600999999998455,2.029602138091937,-1.8051772411844467
12.800999999998345,2.0589167428828685,-1.8584881888753964
13.000999999998234,2.0873615579820153,-1.908447367596732
13.200999999998123,2.1179002624194667,-1.9658497522753395
13.400999999998012,2.1435575106114415,-2.035221156810369
13.600999999997901,2.1688144719601548,-2.0962554979753167
13.80099999999779,2.1910269561461657,-2.16090379155346
14.00099999999768,2.2159836179629426,-2.224772781150454
14.200999999997569,2.247354190164063,-2.278051790664901
14.400999999997458,2.2784002790511932,-2.3496742468838354
14.600999999997347,2.306723414267738,-2.432599829616218
14.800999999997236,2.337276252802057,-2.492315633149802
15.000999999997125,2.3678480330359295,-2.545685669013971
15.200999999997014,2.394722157931729,-2.5903073021239353
15.400999999996904,2.417563771958332,-2.649902297258112
15.600999999996793,2.4400965614469388,-2.720868873365254
15.800999999996682,2.45213817620334,-2.800932166661957
16.000999999996573,2.475737321878683,-2.873970288098933
16.200999999996817,2.4980863158790694,-2.9430428947830927
16.40099999999706,2.4876093425123313,-3.0104986313232547
16.600999999997306,2.463974379264051,-3.0790816645918953
16.80099999999755,2.4307244826007968,-3.1359973746747545
17.000999999997795,2.386765693519692,-3.1758467721378745
17.20099999999804,2.3356314885440845,-3.2107092464854765
17.400999999998284,2.281704670438431,-3.2368304715894194
17.60099999999853,2.225554092038563,-3.2608870401851933
17.800999999998773,2.1566669849884748,-3.278903360346514
18.000999999999017,2.090304859364815,-3.3020364697427054
18.20099999999926,2.0221377359097,-3.3264477476518053
18.400999999999506,1.957564221254518,-3.3543250357363745
18.60099999999975,1.8929970663648858,-3.384232876887492
18.799999999999994,1.8224958252583492,-3.405566602993074
19.000000000000238,1.7538281542550547,-3.406253127587707
19.200000000000482,1.6860050984541557,-3.400938597498019
19.400000000000727,1.6236165134491902,-3.355065597317727
19.60000000000097,1.5728839971403488,-3.3025847184349426
19.800000000001216,1.5209083353467736,-3.245971407204827
20.00000000000146,1.4784863223635412,-3.183597756960441
