Time (s),X (m),Y (m)
0.001,0.001392298616347667,-0.0003527853123316693
0.20000000000000015,0.0007544101516124236,-7.50508484493341e-05
0.4000000000000003,0.001853022203982295,-0.0006611300706044236
0.6000000000000004,0.0012927630846997628,0.0005275577731605791
0.8000000000000006,0.006921261479734424,-0.0020424072762920903
1.0000000000000007,0.013349796912786765,-0.007075775188047023
1.2009999999999785,0.021734455474895813,-0.011947255403328963
1.4009999999999565,0.026579395087277864,-0.013420416785446787
1.6009999999999345,0.029331216238964213,-0.014009932019281841
1.8009999999999124,0.04181975846586503,-0.02101373691390683
2.0009999999998906,0.05392253373859721,-0.028206711887363553
2.2009999999998686,0.06332931355331602,-0.03341036897385241
2.4009999999998466,0.07228615438877585,-0.03846764644304348
2.6009999999998246,0.0805653527488463,-0.03797617825530822
2.8009999999998025,0.08975806532966017,-0.041000123428650566
3.0009999999997805,0.09585656091412408,-0.04331189404616769
3.2009999999997585,0.10727918127106183,-0.047216358167850504
3.4009999999997365,0.11867254862295241,-0.052517561967468145
3.6009999999997144,0.1306356697771827,-0.060888002070027224
3.8009999999996924,0.138503182972864,-0.06617106243748888
4.000999999999671,0.14809739257016585,-0.07027961371425377
4.200999999999738,0.15802369291358023,-0.07885809327759999
4.400999999999804,0.16991211795098604,-0.08618222619698548
4.600999999999871,0.18021609620964393,-0.09107048554720368
4.800999999999938,0.18864648453667204,-0.09306872911633178
5.000000000000004,0.2002983781878026,-0.09854135221647162
5.200000000000071,0.21469142839832328,-0.10435279489472447
5.400000000000138,0.22266129737193022,-0.10554272398319657
5.600000000000205,0.23552019865187307,-0.11214430271692201
5.800000000000272,0.24924601940217467,-0.11818488548999873
6.000000000000338,0.26488950660330934,-0.12600745609740174
6.200000000000405,0.28401136857535797,-0.14097389601639007
6.400000000000472,0.3000087910527509,-0.15392913683734988
6.600000000000539,0.31466648909997935,-0.16757453861801852
6.800000000000606,0.32717286357472825,-0.1723701440837199
7.000000000000672,0.34192878809868765,-0.18372692933903295
7.200000000000739,0.3575140654752969,-0.19618668921249613
7.400000000000806,0.3772124898137581,-0.20938309386285925
7.600000000000873,0.39850438256993875,-0.22556809030513017
7.8000000000009395,0.4135321767960579,-0.239700526349442
8.000000000001005,0.42542362366436276,-0.25266530448120333
8.200000000000895,0.4396665154829951,-0.2687335671987937
8.400000000000784,0.453339981637208,-0.28846908222483325
8.600000000000673,0.46036742779203876,-0.3066383291732464
8.800000000000562,0.46390998817504153,-0.3206669289206781
9.000000000000451,0.4627349785321724,-0.3404027903658967
9.20000000000034,0.45988582216844814,-0.35641838395147196
9.40000000000023,0.4586085206612168,-0.37074607749266597
9.600000000000119,0.4519546978618332,-0.38544357928413847
9.800000000000008,0.4512776582542125,-0.40005480683862954
10.000999999999896,0.4494607632219616,-0.411845474981443
10.200999999999786,0.4425799444289095,-0.4258746124389815
10.400999999999675,0.43563995101798925,-0.4436347435006207
10.600999999999564,0.4227569799902744,-0.4651832397286172
10.800999999999453,0.4118434945076436,-0.48948511900531994
11.000999999999342,0.39542265769393364,-0.5130454897024473
11.200999999999231,0.37982167409525813,-0.5359285093536865
11.40099999999912,0.36433575233247584,-0.5588174198250075
11.60099999999901,0.35136516606112383,-0.5773839589218908
11.800999999998899,0.34461932797736666,-0.5918253774490855
12.000999999998788,0.3330470705320354,-0.608521147595081
12.200999999998677,0.31799701947163045,-0.6210900996339255
12.400999999998566,0.2995571973199182,-0.627976487097814
12.600999999998455,0.27553708890725365,-0.6307556363989374
12.800999999998345,0.24914791383318236,-0.6293091610358731
13.000999999998234,0.2205998484838523,-0.6246913976506813
13.200999999998123,0.19771217634441715,-0.6161988295669132
13.400999999998012,0.17901763471704432,-0.6047315405645215
13.600999999997901,0.16476475987059264,-0.5955197774622699
13.80099999999779,0.14661591149327538,-0.5887926516180458
14.00099999999768,0.13053406557159208,-0.5834439301448566
14.200999999997569,0.11676007138154862,-0.5755843181714682
14.400999999997458,0.0946589420967574,-0.5671865032694948
14.600999999997347,0.07477099860052056,-0.560855744643875
14.800999999997236,0.05595976159160099,-0.5552234740570666
15.000999999997125,0.040230722472890855,-0.5497403097838278
15.200999999997014,0.02255482790389268,-0.5445663182634229
15.400999999996904,0.002482739001337567,-0.5335253953968777
15.600999999996793,-0.014660520388185988,-0.5295473461735192
15.800999999996682,-0.03612932184105512,-0.5220178033478642
16.000999999996573,-0.062000808806893834,-0.51581081272705
16.200999999996817,-0.09380588048953409,-0.5047999475583436
16.40099999999706,-0.11870258014720483,-0.49369106069273655
16.600999999997306,-0.1411649772233942,-0.4800450292252081
16.80099999999755,-0.16221205326187146,-0.4709876682155636
17.000999999997795,-0.18491656849907714,-0.4630411911603327
17.20099999999804,-0.21204907862238115,-0.45108159901677786
17.400999999998284,-0.23964075317792585,-0.44168793029575254
17.60099999999853,-0.26584134364279627,-0.43246529969523667
17.800999999998773,-0.28682890508314945,-0.4201383504464112
18.000999999999017,-0.3108278038531668,-0.40699656404255047
18.20099999999926,-0.32877832690245057,-0.39803315509259696
18.400999999999506,-0.35804591371305433,-0.3808372890162799
18.60099999999975,-0.3835961290240382,-0.36625984329905475
18.799999999999994,-0.40486253867395,-0.35810390161368083
19.000000000000238,-0.42920617693824903,-0.34461960792915547
19.200000000000482,-0.45180853886597194,-0.3316952668726247
19.400000000000727,-0.47429157630691493,-0.31631928841726875
19.60000000000097,-0.49914976647042963,-0.3077477461566254
19.800000000001216,-0.5231068765235886,-0.29661496886774164
20.00000000000146,-0.5510533408188278,-0.28463737022067553
