Time (s),X (m),Y (m)
0.001,0.001392298616347667,0.0003527853123316693
0.20000000000000015,0.0005573132517594441,0.00012183556610847927
0.4000000000000003,-0.002008068972368545,0.00015648298896478208
0.6000000000000004,-0.00020876194477918535,0.0033821449672105735
0.8000000000000006,0.011053336490556797,0.011115246993667012
1.0000000000000007,0.019123385704289064,0.022598868053657545
1.2009999999999785,0.02245307892138351,0.03170297678122703
1.4009999999999565,0.031065448910699574,0.04001345765215989
1.6009999999999345,0.038017350404555623,0.04749647413968982
1.8009999999999124,0.05487487009879296,0.057274258809906275
2.0009999999998906,0.06743320835051807,0.06699505487219498
2.2009999999998686,0.07302978338798767,0.0748451760102623
2.4009999999998466,0.08701327109004656,0.08459240769661935
2.6009999999998246,0.10833520053068652,0.0993762365805512
2.8009999999998025,0.129899805753034,0.11393115227241808
3.0009999999997805,0.15015340183323383,0.12663300812843042
3.2009999999997585,0.16125702224795196,0.13862679866122757
3.4009999999997365,0.18409746100032665,0.15483281145663
3.6009999999997144,0.2114042508957757,0.1697693784539749
3.8009999999996924,0.23793247037539408,0.18534744529662253
4.000999999999671,0.255174284691638,0.19983538407706947
4.200999999999738,0.2769431985428332,0.21270323270069613
4.400999999999804,0.30132736397679694,0.22457636055780955
4.600999999999871,0.317365992003629,0.2342750664926259
4.800999999999938,0.3356426609519772,0.2416927263267468
5.000000000000004,0.36019094369505084,0.24870601068149087
5.200000000000071,0.3867026623813015,0.2534707689855265
5.400000000000138,0.4098525085206947,0.2561570483237701
5.600000000000205,0.43156418902730137,0.26167609385933305
5.800000000000272,0.4510535191330504,0.26609597595735945
6.000000000000338,0.47501114760799223,0.2655144138800541
6.200000000000405,0.48705991503380464,0.265144888024296
6.400000000000472,0.5002989224060574,0.2614782391886624
6.600000000000539,0.5127383154884223,0.2582897684508911
6.800000000000606,0.5425653706506143,0.2566330708305644
7.000000000000672,0.5730184500193823,0.25166558924724897
7.200000000000739,0.6119919129737935,0.24838083555605736
7.400000000000806,0.6465840167355829,0.24884860260651223
7.600000000000873,0.6656403396087281,0.24961207116499276
7.8000000000009395,0.6881429082857191,0.25332715634380354
8.000000000001005,0.7006277818670029,0.26160160064907095
8.200000000000895,0.719182794221244,0.27337273153245506
8.400000000000784,0.7427775071059887,0.2818597666120335
8.600000000000673,0.7589040554101003,0.2868419123706559
8.800000000000562,0.7867752264070804,0.3006127966060096
9.000000000000451,0.8266091671700209,0.3188665950367806
9.20000000000034,0.8651612219127248,0.34189375514732834
9.40000000000023,0.9082914042999656,0.3637456178767915
9.600000000000119,0.9468508053485233,0.3789377441832569
9.800000000000008,0.9836777139289189,0.3921368020293529
10.000999999999896,1.017538230721688,0.40323017448446036
10.200999999999786,1.0399526990618857,0.4034261480559061
10.400999999999675,1.0722512049675799,0.3934124255620213
10.600999999999564,1.1115214489908125,0.37270359078636
10.800999999999453,1.149468042800493,0.34177609425239697
11.000999999999342,1.1799002680059363,0.3072172536267154
11.200999999999231,1.2191408407739774,0.25913125300696754
11.40099999999912,1.2517141719929485,0.2136126155515692
11.60099999999901,1.2793767831473852,0.16925877664731306
11.800999999998899,1.2957751074182002,0.12285226652802472
12.000999999998788,1.2862628598900439,0.07137904891490761
12.200999999998677,1.2616136458918041,0.03166455845671305
12.400999999998566,1.2235812708415115,-0.01284655762442769
12.600999999998455,1.1870689164106913,-0.05131581578980265
12.800999999998345,1.1478977247042381,-0.10123317520363129
13.000999999998234,1.1108925213798762,-0.14883373729068947
13.200999999998123,1.0819933978669223,-0.18543304124426732
13.400999999998012,1.0556423934200398,-0.21941796784261342
13.600999999997901,1.0306053906604211,-0.24970391204845951
13.80099999999779,1.0060324657487345,-0.2771672552650562
14.00099999999768,0.9827869081443386,-0.29853241100035627
14.200999999997569,0.960765911457641,-0.3217663195426223
14.400999999997458,0.9366344953226979,-0.36391766591753083
14.600999999997347,0.9163034480449218,-0.3990055195618684
14.800999999997236,0.9056747836400154,-0.4285073205391341
15.000999999997125,0.9037617278991206,-0.462627921171308
15.200999999997014,0.904180982796696,-0.5020518834440989
15.400999999996904,0.9061375835886367,-0.5334080561972854
15.600999999996793,0.9094401999219227,-0.5557597088710963
15.800999999996682,0.9148367523498263,-0.5830087400641358
16.000999999996573,0.9221512863514109,-0.6068526468037624
16.200999999996817,0.9271096668717295,-0.6471143704335474
16.40099999999706,0.930430128508167,-0.6769808362941252
16.600999999997306,0.9270549944454999,-0.7070064356782848
16.80099999999755,0.91426217685342,-0.7364559406958825
17.000999999997795,0.8984828207937787,-0.7598030487348024
17.20099999999804,0.8732410247856224,-0.7923491626905383
17.400999999998284,0.8450921730357931,-0.8221358581703097
17.60099999999853,0.8192972408440291,-0.8579304962898696
17.800999999998773,0.7976515255123312,-0.8954782538908409
18.000999999999017,0.7782161225359648,-0.925322721132533
18.20099999999926,0.7535290754900145,-0.9599885415920849
18.400999999999506,0.7232248801074992,-0.9977589797694493
18.60099999999975,0.6936752343476356,-1.0253099321855312
18.799999999999994,0.6646467365110791,-1.0524132437612406
19.000000000000238,0.6318174987111553,-1.0826117337538992
19.200000000000482,0.6022455137214446,-1.1199865222750143
19.400000000000727,0.582417801468019,-1.1636743716221105
19.60000000000097,0.5682848905632302,-1.211980546038688
19.800000000001216,0.5530459445092766,-1.2450502276578654
20.00000000000146,0.5375436514746158,-1.2716318441434393
