Time (s),X (m),Y (m)
0.001,-0.00023999057263828476,-0.0007901558823345064
0.20000000000000015,0.0027979784616863246,0.0015394165040426523
0.4000000000000003,0.013644557201997807,0.00852086135715763
0.6000000000000004,0.026128165381890237,0.012115484208842378
0.8000000000000006,0.03949007527988999,0.014544909353783064
1.0000000000000007,0.05493778291651345,0.021990289223944737
1.2009999999999785,0.06969665775057379,0.0240150514394624
1.4009999999999565,0.08324004426545446,0.02806402307831849
1.6009999999999345,0.10221329855809434,0.04480978423781538
1.8009999999999124,0.12608532204898362,0.06658687585273773
2.0009999999998906,0.15364276436347143,0.09116739658454248
2.2009999999998686,0.1881243235758037,0.11878210676406938
2.4009999999998466,0.22676735419400626,0.15650101799513894
2.6009999999998246,0.26498705524055693,0.19410485581877607
2.8009999999998025,0.3063655551547632,0.23061631945921449
3.0009999999997805,0.3465084744980007,0.2592274795532303
3.2009999999997585,0.3899492165694345,0.286327975590313
3.4009999999997365,0.4389208099144093,0.3187120481381106
3.6009999999997144,0.4891561079303355,0.34625391948660594
3.8009999999996924,0.5407819429086731,0.3703270118097137
4.000999999999671,0.6027112102308577,0.3893115800009839
4.200999999999738,0.6494473657587526,0.4020392767156956
4.400999999999804,0.6939579926234059,0.41043058723245374
4.600999999999871,0.7361540079649153,0.4121185622832841
4.800999999999938,0.7727628443302097,0.3971916932171965
5.000000000000004,0.8195480613190459,0.36812193351575945
5.200000000000071,0.8728079749142954,0.32308153858297184
5.400000000000138,0.9226353310027933,0.2690840075266344
5.600000000000205,0.9664113959288784,0.21465422865274375
5.800000000000272,1.00382479066671,0.1628303831926482
6.000000000000338,1.0384112244292039,0.10850922084315173
6.200000000000405,1.073531503499872,0.0481011826952923
6.400000000000472,1.101900787760999,-0.010743084487763567
6.600000000000539,1.115800168342952,-0.061736995938552766
6.800000000000606,1.1202483680747153,-0.10156585169878796
7.000000000000672,1.1211509468380683,-0.14126930739525123
7.200000000000739,1.1193315809713045,-0.1928413279785966
7.400000000000806,1.1065683536485673,-0.2542317178865839
7.600000000000873,1.0750243748017514,-0.3241075832000351
7.8000000000009395,1.0323958226801773,-0.3783326993219889
8.000000000001005,0.9819076249584051,-0.4336316917502939
8.200000000000895,0.9276516848053032,-0.4849552581842647
8.400000000000784,0.8679869434531315,-0.5497634902355549
8.600000000000673,0.8042727258670972,-0.6103843392298061
8.800000000000562,0.7407958687223176,-0.6765325295725156
9.000000000000451,0.6709454877633981,-0.7392846927956636
9.20000000000034,0.5963227131939931,-0.7930575354368463
9.40000000000023,0.5149992651293279,-0.8444460516543805
9.600000000000119,0.4272402829507593,-0.8865344442641966
9.800000000000008,0.36161054882803345,-0.9133747140234708
10.000999999999896,0.31250825797189574,-0.9219680730103044
10.200999999999786,0.25772841760155846,-0.898840065097756
10.400999999999675,0.20148324662853953,-0.8613045406646969
10.600999999999564,0.162514889052713,-0.817532433780395
10.800999999999453,0.11957541461610137,-0.7686096756809871
11.000999999999342,0.07129917968250912,-0.711166297457824
11.200999999999231,0.03505319828171212,-0.6474708116675955
11.40099999999912,-0.0017556800221544616,-0.580088702714332
11.60099999999901,-0.04118181275773542,-0.5120779440341002
11.800999999998899,-0.07186900495484472,-0.4369813024808508
12.000999999998788,-0.09664692601059745,-0.3543596141679315
12.200999999998677,-0.10757586695260729,-0.27659283920185707
12.400999999998566,-0.09747436378662044,-0.20557468219241956
12.600999999998455,-0.0629273118814309,-0.14803449991625298
12.800999999998345,-0.011236126536006053,-0.1053443983124886
13.000999999998234,0.05423508760322121,-0.07372682941430643
13.200999999998123,0.11993394444894802,-0.06631702204201631
13.400999999998012,0.1802302666856425,-0.07092353265646062
13.600999999997901,0.23352743267160844,-0.06888698006719919
13.80099999999779,0.2859068628890526,-0.07011231590650124
14.00099999999768,0.3317028277737739,-0.0888377840991768
14.200999999997569,0.36704926349048794,-0.12564594614859423
14.400999999997458,0.4101429121936792,-0.17697786849110697
14.600999999997347,0.47101253950066546,-0.24242713854571515
14.800999999997236,0.5398940841119108,-0.3044616816003995
15.000999999997125,0.6040382345446614,-0.36881278896341413
15.200999999997014,0.6714363980224122,-0.43834347684009545
15.400999999996904,0.7307540605030849,-0.5084011554301743
15.600999999996793,0.7911941144183513,-0.5804484869192869
15.800999999996682,0.8512973269712929,-0.6567834313931836
16.000999999996573,0.9121442531099874,-0.7293472516914576
16.200999999996817,0.9592912788890937,-0.7952087753083238
16.40099999999706,1.0062109684426188,-0.8604165265238279
16.600999999997306,1.0661098634212751,-0.922695497319036
16.80099999999755,1.1384722646041467,-0.9769547406162573
17.000999999997795,1.198220626546255,-1.0282725553383267
17.20099999999804,1.2448764849878262,-1.0881056455601859
17.400999999998284,1.3005055714150533,-1.1498073691364559
17.60099999999853,1.3531052174290736,-1.2055865967811323
17.800999999998773,1.395390131294825,-1.2558943071711575
18.000999999999017,1.4427725369766535,-1.3077419102655503
18.20099999999926,1.4986814420872354,-1.3629133966985705
18.400999999999506,1.5605479104013331,-1.4114298739805842
18.60099999999975,1.626589931238154,-1.4503541831998
18.799999999999994,1.6901018313468799,-1.4953474178247168
19.000000000000238,1.744408934532577,-1.5505628420830346
19.200000000000482,1.8051638256138296,-1.6157862598249502
19.400000000000727,1.8721083621165817,-1.6907428395238426
19.60000000000097,1.940687407712728,-1.7725161929556195
19.800000000001216,2.0103495266298586,-1.8599501911043066
20.00000000000146,2.0805129570838456,-1.9636616259095885
