Time (s),X (m),Y (m)
0.001,-0.00030633420604509907,0.0007293631428462583
0.20000000000000015,0.0017677401902528704,-0.0014476824422417092
0.4000000000000003,0.0034808100296935293,-0.004622833604251258
0.6000000000000004,0.010131732685489699,-0.005882081507402157
0.8000000000000006,0.025446229692437178,-0.015870085320614673
1.0000000000000007,0.03697973818384731,-0.01895103613443916
1.2009999999999785,0.04486928111376135,-0.02591943310497627
1.4009999999999565,0.0527159354348052,-0.04317591007482809
1.6009999999999345,0.06360992946963713,-0.053337539110082106
1.8009999999999124,0.07411446175593846,-0.0627445411295988
2.0009999999998906,0.07241305877437408,-0.09216150703297382
2.2009999999998686,0.06937706367382575,-0.12475696198533114
2.4009999999998466,0.058595069080108114,-0.16619801756889604
2.6009999999998246,0.05496651698600613,-0.19314871518860252
2.8009999999998025,0.05144174817450556,-0.22279089467039936
3.0009999999997805,0.051813649658305094,-0.24476236875404248
3.2009999999997585,0.05107928925779861,-0.27118781318522023
3.4009999999997365,0.052030502634591226,-0.29948851356188094
3.6009999999997144,0.049950850619258344,-0.33070848348257464
3.8009999999996924,0.04935082801810667,-0.3533338679164086
4.000999999999671,0.05373631458459513,-0.35072983547948244
4.200999999999738,0.06414036263809196,-0.32408416353139285
4.400999999999804,0.08417080092851979,-0.313783718566871
4.600999999999871,0.111960150491316,-0.32023268661247656
4.800999999999938,0.14759549704035205,-0.33176585798644226
5.000000000000004,0.18474777527429984,-0.3377022822935391
5.200000000000071,0.2182658613239869,-0.33298270888000986
5.400000000000138,0.2488146350771049,-0.3271337092357697
5.600000000000205,0.2829039819014582,-0.32978298758544783
5.800000000000272,0.318386843737752,-0.32765474474150014
6.000000000000338,0.36875841551205113,-0.3312820790380034
6.200000000000405,0.413660988145495,-0.33513056259025714
6.400000000000472,0.4559581594866535,-0.3395550327627717
6.600000000000539,0.5122535426756574,-0.3523826713973428
6.800000000000606,0.5644659335139453,-0.36203936440066037
7.000000000000672,0.6154833839771527,-0.36752019237462935
7.200000000000739,0.6576157262579786,-0.37236284977446016
7.400000000000806,0.7024404929772609,-0.3825866697991195
7.600000000000873,0.7551392473699257,-0.3932983179512113
7.8000000000009395,0.8040318891367658,-0.4030420349516477
8.000000000001005,0.8600122162854146,-0.4173780220293618
8.200000000000895,0.9069459384751962,-0.4211331426189961
8.400000000000784,0.9466013112352235,-0.41950439407955425
8.600000000000673,0.9984607478160415,-0.4199682458970706
8.800000000000562,1.054658807377689,-0.4304644748351509
9.000000000000451,1.0993006430793024,-0.42673302205155267
9.20000000000034,1.144803475550225,-0.4227343564969063
9.40000000000023,1.193909534645379,-0.4239493617832743
9.600000000000119,1.2454770543107794,-0.42140513972310795
9.800000000000008,1.297943890269809,-0.4328817701963561
10.000999999999896,1.3318577619999548,-0.46779836462041413
10.200999999999786,1.352137053961481,-0.5063104721542336
10.400999999999675,1.3616593840531357,-0.5511627754044647
10.600999999999564,1.3628396026272374,-0.5993162993730944
10.800999999999453,1.359520849353489,-0.6490685602092832
11.000999999999342,1.3581694262674824,-0.6983223591627592
11.200999999999231,1.3620819370393622,-0.7456928090365179
11.40099999999912,1.3523195606543146,-0.7927239485669347
11.60099999999901,1.3476450784960619,-0.8334925594846829
11.800999999998899,1.3464341137101472,-0.8766731220675007
12.000999999998788,1.337650660032181,-0.920898571042801
12.200999999998677,1.3142570039873067,-0.9606305747937275
12.400999999998566,1.2794029938923057,-0.9990104969673724
12.600999999998455,1.233141771144021,-1.0288307923814184
12.800999999998345,1.1918495096109478,-1.0447292031657656
13.000999999998234,1.153617000549533,-1.058507483100323
13.200999999998123,1.1012921041877615,-1.0667992097873598
13.400999999998012,1.0449413463800687,-1.0670528675578228
13.600999999997901,0.9878359205131231,-1.0622934002833102
13.80099999999779,0.9321960615434755,-1.0611818182797557
14.00099999999768,0.8823813785042788,-1.0603325342489258
14.200999999997569,0.822811226864961,-1.057632043178384
14.400999999997458,0.7720321039240202,-1.0578428833072062
14.600999999997347,0.7353250734723242,-1.058984272179573
14.800999999997236,0.6897872906884813,-1.0600171393668876
15.000999999997125,0.6344773760810594,-1.0559208447948025
15.200999999997014,0.5723688349875796,-1.0492187585181745
15.400999999996904,0.5126417883326952,-1.0439553734194111
15.600999999996793,0.4455443665710274,-1.0247411371299648
15.800999999996682,0.38340019194849473,-1.0095241478587442
16.000999999996573,0.3253055605037802,-0.9986205559653191
16.200999999996817,0.25504535385191074,-0.9855180604838505
16.40099999999706,0.18584305499474355,-0.9736464407383829
16.600999999997306,0.12293530867829801,-0.9689153003089493
16.80099999999755,0.06889180560064485,-0.9703362546434526
17.000999999997795,0.023188103521670004,-0.9708626811438757
17.20099999999804,-0.03087360599912965,-0.965194450286422
17.400999999998284,-0.09222430150481811,-0.9474420691871802
17.60099999999853,-0.15511956869846402,-0.930494046317195
17.800999999998773,-0.2170372415501978,-0.9095289865089694
18.000999999999017,-0.27671697729020783,-0.8942619307203663
18.20099999999926,-0.3370812718161385,-0.8787771975751716
18.400999999999506,-0.40349757685043064,-0.8503656030933706
18.60099999999975,-0.46840233753729493,-0.8052020535517243
18.799999999999994,-0.5219378566684961,-0.754509147422921
19.000000000000238,-0.5600583251082997,-0.7142459885430337
19.200000000000482,-0.5876463741290051,-0.6791501818564449
19.400000000000727,-0.6097985552789693,-0.6453892293549657
19.60000000000097,-0.6196781994458913,-0.5951256373517896
19.800000000001216,-0.6203572001118173,-0.5299648425850186
20.00000000000146,-0.6218174170308108,-0.46825639926657603
