Time (s),X (m),Y (m)
0.001,0.0014505791105779379,8.989899140956135e-05
0.20000000000000015,0.00023740722193604463,0.00029858142668580775
0.4000000000000003,-6.0891758145944465e-05,0.0013029537823369842
0.6000000000000004,-0.0031068045902130264,0.0016912605940566485
0.8000000000000006,0.0005339381386019491,0.003415385324256615
1.0000000000000007,0.0026549239273520393,0.0026261036182640774
1.2009999999999785,0.008262379434329076,-0.003910527654848616
1.4009999999999565,0.02367106964645029,-0.013518703220019702
1.6009999999999345,0.045140309176726866,-0.022508367965465008
1.8009999999999124,0.05580925536774332,-0.027590708776766178
2.0009999999998906,0.06358581960678596,-0.032149622587386156
2.2009999999998686,0.0843905075374744,-0.04379366161082798
2.4009999999998466,0.11020651285273897,-0.06042659451424236
2.6009999999998246,0.14107064326327146,-0.07573136141924496
2.8009999999998025,0.1690039899974356,-0.08723177641064558
3.0009999999997805,0.19908613651644166,-0.11542691142135802
3.2009999999997585,0.22318157921884094,-0.15024382539970488
3.4009999999997365,0.22527551535726317,-0.1894958837904764
3.6009999999997144,0.21242662000523427,-0.23001240690422414
3.8009999999996924,0.18826951788106308,-0.27393944517104496
4.000999999999671,0.16196221997526963,-0.3164965659690095
4.200999999999738,0.13192917212276226,-0.36411720996513797
4.400999999999804,0.10582939259941991,-0.40321725986248036
4.600999999999871,0.08034787273933651,-0.4403768190569877
4.800999999999938,0.053346448965580176,-0.47921102020010564
5.000000000000004,0.025157050904014447,-0.5201484705088587
5.200000000000071,-0.002991674572924567,-0.5615356579243204
5.400000000000138,-0.03662107621260654,-0.6092226402685834
5.600000000000205,-0.07397392165529625,-0.6584090575635694
5.800000000000272,-0.1135644708072161,-0.705392102577838
6.000000000000338,-0.15672434509117683,-0.7457074096258892
6.200000000000405,-0.20871216349788105,-0.7644901432753944
6.400000000000472,-0.26351009358321426,-0.758949995398826
6.600000000000539,-0.3145534089558429,-0.7408885596875462
6.800000000000606,-0.36580765450080516,-0.7166694090713969
7.000000000000672,-0.4032876008718202,-0.6914749068805618
7.200000000000739,-0.4509172368046077,-0.6630163068118635
7.400000000000806,-0.5116691932403121,-0.6251520518596905
7.600000000000873,-0.5742327911444749,-0.5831354500309712
7.8000000000009395,-0.6352723604753792,-0.5400069377930001
8.000000000001005,-0.7008634686729175,-0.49553632478033655
8.200000000000895,-0.763561720853235,-0.45212981430824506
8.400000000000784,-0.8270870165756118,-0.40862109965516613
8.600000000000673,-0.8876974929081354,-0.36295671353697373
8.800000000000562,-0.9549827281139808,-0.31462477923102505
9.000000000000451,-1.0171513795467964,-0.267694058992484
9.20000000000034,-1.0747193765062295,-0.22180483696292916
9.40000000000023,-1.1319242914545469,-0.16596276246233016
9.600000000000119,-1.189775889366956,-0.11218348097009678
9.800000000000008,-1.2466174363972462,-0.06939125248277704
10.000999999999896,-1.3009927504847976,-0.0057916702862977135
10.200999999999786,-1.3546952590709516,0.07611834467171731
10.400999999999675,-1.3882738886671162,0.15025809571105092
10.600999999999564,-1.4035703956973906,0.21697251901830072
10.800999999999453,-1.4014821002822857,0.28503031825214903
11.000999999999342,-1.3799971520233805,0.3530816384884307
11.200999999999231,-1.337905368174984,0.4244752679650695
11.40099999999912,-1.2868265344655445,0.494321653571619
11.60099999999901,-1.2298504197818272,0.5591643108118551
11.800999999998899,-1.1654874751051414,0.6290792858115241
12.000999999998788,-1.0989584860564752,0.6966360112714126
12.200999999998677,-1.0229836216599797,0.748694889962102
12.400999999998566,-0.9496621260277326,0.762693863020008
12.600999999998455,-0.8844747426851239,0.7470282814216723
12.800999999998345,-0.8240415269278168,0.7122590364098773
13.000999999998234,-0.7709779254517805,0.6695741508734298
13.200999999998123,-0.7459194728032648,0.6243523169172766
13.400999999998012,-0.749838481002104,0.5791225903071904
13.600999999997901,-0.7691296455119644,0.532361987938063
13.80099999999779,-0.8010287329196293,0.47834947877505674
14.00099999999768,-0.8397825553151648,0.4195469784613385
14.200999999997569,-0.8870884282830749,0.3534519180180103
14.400999999997458,-0.9439148009451539,0.2896853645061785
14.600999999997347,-0.9955765712706854,0.23279618774229496
14.800999999997236,-1.0469071910232526,0.2010484042920937
15.000999999997125,-1.0997927879532605,0.19834129551961782
15.200999999997014,-1.1468329823488241,0.20897007768509623
15.400999999996904,-1.1953941802367016,0.24024656011070306
15.600999999996793,-1.2453112751071296,0.2855445774442016
15.800999999996682,-1.2854638525428188,0.32249577064873175
16.000999999996573,-1.30615382310295,0.3613869849973588
16.200999999996817,-1.3047966943413165,0.39890844916900337
16.40099999999706,-1.292491087312453,0.43510728333493826
16.600999999997306,-1.2648385645448357,0.4790040072642392
16.80099999999755,-1.2301841618790899,0.5237589356536241
17.000999999997795,-1.195825663010501,0.565770028170546
17.20099999999804,-1.1591413210290902,0.5971432182489006
17.400999999998284,-1.115944827905897,0.6055573225571127
17.60099999999853,-1.0702115799419811,0.591117652527344
17.800999999998773,-1.0191866691815463,0.5596720327811002
18.000999999999017,-0.9668362514437834,0.5221960670913544
18.20099999999926,-0.9088394875867298,0.4732759104283503
18.400999999999506,-0.8556594827870496,0.4180953251606611
18.60099999999975,-0.8164824593987304,0.3624182454586341
18.799999999999994,-0.8014684270874307,0.30512738531478134
19.000000000000238,-0.8114761585558138,0.23615799099307058
19.200000000000482,-0.8278485990277042,0.18194390548533626
19.400000000000727,-0.854327245008749,0.12451579178398121
19.60000000000097,-0.879730247918538,0.07349233610030384
19.800000000001216,-0.9095014595042044,0.02535175802936123
20.00000000000146,-0.9512012029947127,-0.029119767801694712
