Time (s),X (m),Y (m)
0.001,0.0014388337585722719,0.00017911379721200063
0.20000000000000015,0.0008956116132956945,-7.76867102213705e-05
0.4000000000000003,0.001321556009428948,-2.8302159785327545e-05
0.6000000000000004,0.001975809251051228,6.428393637321464e-05
0.8000000000000006,0.002800050542307432,0.0002734230359275161
1.0000000000000007,0.003689330256538719,0.00048363962902423635
1.2009999999999785,0.0047405896017589325,0.0007408482397737018
1.4009999999999565,0.005641593966536012,0.0009589040519348734
1.6009999999999345,0.006507156899226475,0.001176602586293251
1.8009999999999124,0.007444629463657588,0.0014233071561905904
2.0009999999998906,0.008479287793389002,0.0017076660928123065
2.2009999999998686,0.009579245373588693,0.0020181783689825913
2.4009999999998466,0.01071264987104908,0.002344660306441926
2.6009999999998246,0.011857930274592395,0.002681421116314993
2.8009999999998025,0.013016462799723131,0.0030277687489270928
3.0009999999997805,0.014197645689673091,0.0033869697186935154
3.2009999999997585,0.015408518018555879,0.0037605407407712123
3.4009999999997365,0.016649607828735237,0.004148342143014372
3.6009999999997144,0.017917470879772714,0.004549113014130228
3.8009999999996924,0.019209726480278626,0.00496202284514843
4.000999999999671,0.020523929381691237,0.005386143853858264
4.200999999999738,0.02185996967463372,0.005821294159296076
4.400999999999804,0.023218244269298062,0.006267505986433116
4.600999999999871,0.024598993001563,0.006724298966336568
4.800999999999938,0.02600271741182032,0.0071895374463506675
5.000000000000004,0.02740339631631514,0.007655061924651608
5.200000000000071,0.028853494061871727,0.008135035555523367
5.400000000000138,0.030330209970059415,0.008627585090582032
5.600000000000205,0.0318342921410988,0.009133401923441871
5.800000000000272,0.033366098102765966,0.009653275119836833
6.000000000000338,0.03492574365058164,0.010187447427772367
6.200000000000405,0.0365132463102558,0.010736609668724096
6.400000000000472,0.03812854020931763,0.0113012137444224
6.600000000000539,0.03977151264365681,0.011881511381235488
6.800000000000606,0.041442068374879903,0.012478088931004768
7.000000000000672,0.04314008446942304,0.013091363152035851
7.200000000000739,0.044940438726843904,0.013713906552561836
7.400000000000806,0.04676099222690672,0.01440907370523102
7.600000000000873,0.048723322569624854,0.01511294970056476
7.8000000000009395,0.050657130672852047,0.015836202968792654
8.000000000001005,0.052704879194168996,0.016607712145754683
8.200000000000895,0.05473213142295116,0.017394705749881764
8.400000000000784,0.05683738560789932,0.01823510552724853
8.600000000000673,0.059033255613325786,0.019087160450110392
8.800000000000562,0.06123400660259786,0.020000658244327438
9.000000000000451,0.06344057518321491,0.020911150890389387
9.20000000000034,0.06569543409052285,0.021876525872748808
9.40000000000023,0.06809909816973776,0.022888193541008538
9.600000000000119,0.07039351941757288,0.02389656228547293
9.800000000000008,0.07266881837772399,0.024931909020529615
10.000999999999896,0.07499425019096521,0.02603150462010251
10.200999999999786,0.07731947580617902,0.02715113996581991
10.400999999999675,0.07973575261623951,0.02831905249309457
10.600999999999564,0.08211888799521934,0.029502791448500185
10.800999999999453,0.08441830806227885,0.03069663475172991
11.000999999999342,0.08689193585414218,0.03196950438322394
11.200999999999231,0.08923480761598487,0.03323866881873368
11.40099999999912,0.09169674137816129,0.03454413406692181
11.60099999999901,0.09410100267578478,0.035908998299872534
11.800999999998899,0.0964886641661811,0.037257519296120166
12.000999999998788,0.09894888090402583,0.03869320866062511
12.200999999998677,0.10133791058553557,0.040116455293809236
12.400999999998566,0.10386900144460638,0.04162419641852929
12.600999999998455,0.10632439170805433,0.04313419588567959
12.800999999998345,0.10871487408773015,0.0446517114545599
13.000999999998234,0.11117823650167183,0.04622069271987409
13.200999999998123,0.1136067812205214,0.04784695534427437
13.400999999998012,0.11614571557626473,0.0495019268025883
13.600999999997901,0.1186373654815819,0.051216270051113295
13.80099999999779,0.12110044787807688,0.05290900189379605
14.00099999999768,0.12356543973543664,0.05466330290558355
14.200999999997569,0.1260565613665295,0.05645665076317125
14.400999999997458,0.12851682135681822,0.058285541320916484
14.600999999997347,0.13105565217680407,0.060173228553014796
14.800999999997236,0.13358920914611247,0.06209475768560715
15.000999999997125,0.1361406416665316,0.06402533165617937
15.200999999997014,0.13866198128080418,0.06605383137177505
15.400999999996904,0.14112885806737716,0.06802360277391056
15.600999999996793,0.14371861847076683,0.07014518933335344
15.800999999996682,0.14618714166197813,0.07220872294179323
16.000999999996573,0.1488393491226127,0.07442965093431525
16.200999999996817,0.15139039535672064,0.07661405702019315
16.40099999999706,0.15397774672188577,0.07887689411036511
16.600999999997306,0.15666414670924486,0.08128575767968546
16.80099999999755,0.15938597159470103,0.08380353110033813
17.000999999997795,0.16219022436473896,0.08643072311127481
17.20099999999804,0.16491445693865628,0.0889514494672252
17.400999999998284,0.167909543737867,0.09181865748960445
17.60099999999853,0.17079971417980233,0.0946239621169451
17.800999999998773,0.173733299860525,0.09746626114824522
18.000999999999017,0.17675732339799116,0.10048900647068965
18.20099999999926,0.1795927707814286,0.10333850134203801
18.400999999999506,0.18286835273330773,0.10678252296428523
18.60099999999975,0.18578448907946465,0.1097395598270265
18.799999999999994,0.18908371942633703,0.11333232797170777
19.000000000000238,0.19205153424079488,0.11644335148716052
19.200000000000482,0.1950440323089102,0.11975063287919414
19.400000000000727,0.19814790724450818,0.12319993830677223
19.60000000000097,0.20099978715137837,0.12633269490113397
19.800000000001216,0.20373619172231583,0.12945559339598492
20.00000000000146,0.20640723817108542,0.1325926495973121
