Time (s),X (m),Y (m)
0.001,0.0013578629866597446,0.0004359202765531099
0.20000000000000015,0.0007284991673907402,8.736959292625384e-05
0.4000000000000003,0.00461221024255212,0.0021487985831647903
0.6000000000000004,0.00809847437732351,0.004985748393083035
0.8000000000000006,0.014136132338816698,0.008452900960214277
1.0000000000000007,0.010729729632781742,0.01186587181150324
1.2009999999999785,0.021790402919617903,0.020531324734460104
1.4009999999999565,0.04274098295400955,0.03321300845209662
1.6009999999999345,0.06336260001738053,0.04350865262157907
1.8009999999999124,0.09106490695970201,0.047535559350343225
2.0009999999998906,0.11030850556315908,0.046038715804063414
2.2009999999998686,0.1273850085398017,0.03904857994599334
2.4009999999998466,0.14080304097467722,0.030840576586525746
2.6009999999998246,0.14971057695527215,0.02120087980891719
2.8009999999998025,0.16476811566631075,0.009288195147333126
3.0009999999997805,0.17700948961680435,-0.004905430199737074
3.2009999999997585,0.1956194295747775,-0.01830039493193185
3.4009999999997365,0.20014615002665867,-0.027098729593457525
3.6009999999997144,0.19818111375502334,-0.029048894054190078
3.8009999999996924,0.20952887192745767,-0.029670231194952282
4.000999999999671,0.22988886349169352,-0.02969331758454048
4.200999999999738,0.2542072237700208,-0.03260275693263438
4.400999999999804,0.2727165049395852,-0.04287928337370346
4.600999999999871,0.2966780515217162,-0.058872204953899596
4.800999999999938,0.32138905230484993,-0.0750779459993079
5.000000000000004,0.33719918696738155,-0.08926951346630624
5.200000000000071,0.351944253126308,-0.0981334602120454
5.400000000000138,0.3755903538129115,-0.10402103820660652
5.600000000000205,0.39660197920836104,-0.10695943863354838
5.800000000000272,0.4298091046169529,-0.10900353816374443
6.000000000000338,0.46040369804458253,-0.10917755213177395
6.200000000000405,0.4892747899719707,-0.109644296766085
6.400000000000472,0.5150372384918441,-0.11199846639526242
6.600000000000539,0.5397457300595001,-0.12016745306952172
6.800000000000606,0.5664269104748696,-0.1307336358900115
7.000000000000672,0.6077531461075318,-0.14647370482948754
7.200000000000739,0.6460527149457357,-0.16829466971858803
7.400000000000806,0.6746243835514542,-0.19421125660262203
7.600000000000873,0.700958809451251,-0.2253325000864765
7.8000000000009395,0.7334020135273218,-0.2549258552540334
8.000000000001005,0.7697646975926126,-0.28163192861176745
8.200000000000895,0.7882028799688089,-0.30313876966739073
8.400000000000784,0.8189675932211248,-0.3147201943932023
8.600000000000673,0.836638704435617,-0.32100561547460765
8.800000000000562,0.8513426792142366,-0.3298029683844055
9.000000000000451,0.8794776576374413,-0.35056209407995276
9.20000000000034,0.9187521166509326,-0.37998566562881003
9.40000000000023,0.9571973652166983,-0.41505360771025646
9.600000000000119,0.9973533139083577,-0.452259761888076
9.800000000000008,1.0344698937965926,-0.4919739749382656
10.000999999999896,1.0738019716698275,-0.5342071767684414
10.200999999999786,1.10751666494281,-0.5771285184457347
10.400999999999675,1.14468634911571,-0.620159957946201
10.600999999999564,1.1899680741498588,-0.6635297089140068
10.800999999999453,1.2300797174030438,-0.7057212345741389
11.000999999999342,1.2677806492609722,-0.7490994868679988
11.200999999999231,1.3039704502487193,-0.7926195800316373
11.40099999999912,1.3489792684993962,-0.833291466502767
11.60099999999901,1.392311806976211,-0.8719533521356042
11.800999999998899,1.439936683931859,-0.9144120952163856
12.000999999998788,1.4803220155502235,-0.9586169637155849
12.200999999998677,1.5178446504201821,-1.0032943960433607
12.400999999998566,1.5613938330283952,-1.0446985166917526
12.600999999998455,1.6103327098156972,-1.0956499929398542
12.800999999998345,1.6570712740861022,-1.14657783643672
13.000999999998234,1.7052709112374105,-1.1995589835763083
13.200999999998123,1.7506140406091886,-1.2511451688173398
13.400999999998012,1.7958191538937065,-1.3005829829661166
13.600999999997901,1.831599719550886,-1.3485536851009214
13.80099999999779,1.8736175808250404,-1.3906028669310688
14.00099999999768,1.916530686546008,-1.428470039528172
14.200999999997569,1.96609888748126,-1.4669501661005737
14.400999999997458,2.0114247429272627,-1.5079951399484681
14.600999999997347,2.0547676589405524,-1.5449140225835853
14.800999999997236,2.0992562704435764,-1.5747534985216551
15.000999999997125,2.1515883290760107,-1.6044303913757891
15.200999999997014,2.2120385203800863,-1.643020398222573
15.400999999996904,2.2760502696999754,-1.6883781315429551
15.600999999996793,2.3271617921103895,-1.734219215614649
15.800999999996682,2.3627745335279426,-1.7769956557018687
16.000999999996573,2.4006585221310637,-1.808934764716742
16.200999999996817,2.438374906405403,-1.8286851111664983
16.40099999999706,2.482376276048342,-1.8477574827383672
16.600999999997306,2.530368139957018,-1.864964977993938
16.80099999999755,2.569835277712623,-1.885538579982213
17.000999999997795,2.615208836369214,-1.9063596585904627
17.20099999999804,2.6625766117812755,-1.9296691439996678
17.400999999998284,2.7120043754391534,-1.96117928598369
17.60099999999853,2.7516332722374988,-1.9975606186320845
17.800999999998773,2.798341733663495,-2.03640505804965
18.000999999999017,2.8396023660922345,-2.067251081214069
18.20099999999926,2.8872109216383133,-2.085168986805203
18.400999999999506,2.936383829692181,-2.0951073970457226
18.60099999999975,2.984281423068118,-2.104299056801408
18.799999999999994,3.0322854915025466,-2.1139398624516743
19.000000000000238,3.080322173141544,-2.123562229659587
19.200000000000482,3.135137588458839,-2.1347706588525455
19.400000000000727,3.1952816599084333,-2.158498482315485
19.60000000000097,3.240252756462637,-2.1937538206416916
19.800000000001216,3.2827041726131947,-2.2294322370229924
20.00000000000146,3.3297795091019045,-2.259653941532049
