Time (s),X (m),Y (m)
0.001,0.0005129279282107199,0.0010275501737767782
0.20000000000000015,0.0008487058991917703,-0.001457625968103461
0.4000000000000003,0.005745445113756676,-0.0022505224012514436
0.6000000000000004,0.014217746810567405,-0.0017236479189406625
0.8000000000000006,0.03357596304786746,0.005966091808528669
1.0000000000000007,0.0524865443007832,0.015433042855773904
1.2009999999999785,0.07882683906001414,0.031241428594706775
1.4009999999999565,0.10424921511933923,0.042330459727068795
1.6009999999999345,0.13561496562297007,0.05060939712110621
1.8009999999999124,0.16053902797706873,0.05115003952469317
2.0009999999998906,0.17054974166797668,0.044270095299080534
2.2009999999998686,0.16903542009104827,0.02942348723190659
2.4009999999998466,0.1791493881724184,0.004565458778212589
2.6009999999998246,0.18133563667950042,-0.01774783679964423
2.8009999999998025,0.17767432346788478,-0.05736561224442341
3.0009999999997805,0.16492884208127176,-0.08999880465118015
3.2009999999997585,0.15028898022906034,-0.09149901161517138
3.4009999999997365,0.13511213332310645,-0.08111715309138291
3.6009999999997144,0.11653727940893129,-0.06364996337993357
3.8009999999996924,0.10839017578413235,-0.0427770376605693
4.000999999999671,0.10422420719453246,-0.01640396131356161
4.200999999999738,0.10870819421581426,0.010197614272134439
4.400999999999804,0.11399107955094766,0.042031675153590325
4.600999999999871,0.12327641874013347,0.05325692579290628
4.800999999999938,0.1464335782665575,0.058341646708867156
5.000000000000004,0.17610195607532847,0.05673988803293816
5.200000000000071,0.213018677311352,0.04625175283703288
5.400000000000138,0.24685783623048152,0.0270447079362639
5.600000000000205,0.2713131331100063,-0.0032224452966248085
5.800000000000272,0.28733519787248957,-0.045938068671375766
6.000000000000338,0.2917476795320914,-0.08561999975964743
6.200000000000405,0.2778151257482455,-0.1123636122572699
6.400000000000472,0.251027214016535,-0.1259883873405002
6.600000000000539,0.2228181584753069,-0.12667644337250825
6.800000000000606,0.1931946130739241,-0.1165848499601828
7.000000000000672,0.1623745914820931,-0.10251151159468155
7.200000000000739,0.13678812043938382,-0.07898301524367476
7.400000000000806,0.11493953604320552,-0.042285711209313785
7.600000000000873,0.11594777466768628,-0.006582962704173772
7.8000000000009395,0.12481843161425422,0.03392602446260815
8.000000000001005,0.13719709891893175,0.040311265830989595
8.200000000000895,0.15624588124634886,0.03530958426798247
8.400000000000784,0.18730272599188705,0.018839477192787384
8.600000000000673,0.21253777694239218,-0.01691234236305544
8.800000000000562,0.21899606805150085,-0.05873552263647339
9.000000000000451,0.20747027306930813,-0.08102882128133289
9.20000000000034,0.18140019466307358,-0.09166727514493116
9.40000000000023,0.14783808883219476,-0.09531227066234547
9.600000000000119,0.11771619725865033,-0.09125482297310802
9.800000000000008,0.0947165326106325,-0.07108596894967227
10.000999999999896,0.08911722214008508,-0.041839244014719695
10.200999999999786,0.09779679291565452,-0.00687863964570151
10.400999999999675,0.1253797850341872,0.023013388737464006
10.600999999999564,0.16341810995136094,0.04759291892884259
10.800999999999453,0.19502858189878658,0.05448431724631354
11.000999999999342,0.22603423419656044,0.04957355159655603
11.200999999999231,0.23789035797403066,0.029290469336973126
11.40099999999912,0.24022728264485738,0.010109393804052935
11.60099999999901,0.23267084093594964,-0.011530032421774325
11.800999999998899,0.21724144797916606,-0.021220290710364582
12.000999999998788,0.19562767366977474,-0.0157964105419281
12.200999999998677,0.16038532576796163,-0.011064563381745695
12.400999999998566,0.11800616504753436,-0.004269385457656504
12.600999999998455,0.06647956868199101,0.013269681721102806
12.800999999998345,0.04845698106055003,0.03443772711334573
13.000999999998234,0.045133715654575884,0.059841431804710556
13.200999999998123,0.04433363162222466,0.08462449544778587
13.400999999998012,0.05292513893378057,0.11610130991787469
13.600999999997901,0.05694253841894366,0.15905503362270054
13.80099999999779,0.06771220658280498,0.20588969576913127
14.00099999999768,0.08304812182397936,0.24743271894211757
14.200999999997569,0.11021657352634616,0.28556788897555635
14.400999999997458,0.1457535650799749,0.312673471368943
14.600999999997347,0.19449067539822745,0.3275987470867868
14.800999999997236,0.237880728546631,0.33276937868280027
15.000999999997125,0.25376794536668473,0.3202268705102307
15.200999999997014,0.25468947558677185,0.29889057611049896
15.400999999996904,0.24794640707164708,0.2699178436912617
15.600999999996793,0.2621300123817627,0.22557412120765316
15.800999999996682,0.2645249078492136,0.18900659845745638
16.000999999996573,0.24953623148037227,0.16087120780982345
16.200999999996817,0.23416423765950475,0.12440871281461252
16.40099999999706,0.2139223070524423,0.08246108111019163
16.600999999997306,0.18633037185656262,0.024645346813971035
16.80099999999755,0.14392640410657298,-0.018031968024899113
17.000999999997795,0.10479763055364111,-0.05131176313995831
17.20099999999804,0.09230412428743574,-0.05850272817261881
17.400999999998284,0.08874182698813124,-0.047947428954789886
17.60099999999853,0.09609783324337107,-0.030999150013914203
17.800999999998773,0.11737090379141396,-0.021284203088019718
18.000999999999017,0.15134795218531874,-0.021584171045552825
18.20099999999926,0.17835326912350097,-0.03396745988234044
18.400999999999506,0.2021403353727431,-0.06574364533083805
18.60099999999975,0.2196278073208383,-0.10711416548388365
18.799999999999994,0.21390058585775465,-0.14764156312872795
19.000000000000238,0.19080581390501555,-0.17851529518697584
19.200000000000482,0.16747928174884547,-0.19383266602964752
19.400000000000727,0.1373422268148594,-0.19041105578669323
19.60000000000097,0.12671779418828658,-0.17299097960407245
19.800000000001216,0.13063627947127837,-0.1619061902588772
20.00000000000146,0.142307842371904,-0.14571471147290968
