Time (s),X (m),Y (m)
0.001,-0.0005462407427453492,0.0003527853123316693
0.20000000000000015,0.0009029166735060929,-0.00015957502609558082
0.4000000000000003,0.001387221258843537,-0.0002470054466402529
0.6000000000000004,0.002247913739295113,-0.0006930590352428511
0.8000000000000006,0.0034104541969060716,-0.0013552646718213036
1.0000000000000007,0.005084372423620428,-0.0021955360088021527
1.2009999999999785,0.006691395719850138,-0.003062804902813845
1.4009999999999565,0.008253963790816188,-0.0039666253072384704
1.6009999999999345,0.009972100391570765,-0.004886379225801047
1.8009999999999124,0.01189919978574376,-0.005848881680807812
2.0009999999998906,0.013819173555013543,-0.006736101823572026
2.2009999999998686,0.015905827620666446,-0.007679718662317829
2.4009999999998466,0.01817252730303122,-0.008588120546404024
2.6009999999998246,0.020458378769496504,-0.009488627583814245
2.8009999999998025,0.022902935069295728,-0.010384019629840376
3.0009999999997805,0.025317226562675366,-0.011237576862489884
3.2009999999997585,0.0277274690427431,-0.012044594574652987
3.4009999999997365,0.03041792056975871,-0.01293582973736891
3.6009999999997144,0.03319224453261563,-0.013777188852467624
3.8009999999996924,0.03586726159088739,-0.01454268100788408
4.000999999999671,0.03856821524659533,-0.015182367290189121
4.200999999999738,0.041276720964282025,-0.015809141634976244
4.400999999999804,0.04389920914226598,-0.016303226734049242
4.600999999999871,0.04679885490272382,-0.016831237191008055
4.800999999999938,0.04980740341160763,-0.017254357253832266
5.000000000000004,0.05284732451682986,-0.01766180105569582
5.200000000000071,0.05582632353760108,-0.01790193712470486
5.400000000000138,0.058786042558372366,-0.01804974901364153
5.600000000000205,0.0618914343076032,-0.01809154700317848
5.800000000000272,0.06510626495077385,-0.018104444993696525
6.000000000000338,0.06814685350985109,-0.017924232398366498
6.200000000000405,0.07141125570035028,-0.017630970584400194
6.400000000000472,0.07459099107555575,-0.01705618191832263
6.600000000000539,0.07767548327697109,-0.016455665011821323
6.800000000000606,0.08066914364790596,-0.01566273778692915
7.000000000000672,0.08377345004787064,-0.014658292710639419
7.200000000000739,0.08687423699862472,-0.01352546531921364
7.400000000000806,0.08978641134157382,-0.012140223459865833
7.600000000000873,0.09329258338090486,-0.010711950298928257
7.8000000000009395,0.09634599573086716,-0.008971608352373478
8.000000000001005,0.09944463612426556,-0.007144577967779845
8.200000000000895,0.1022487962433517,-0.005024007608621083
8.400000000000784,0.10500167300339523,-0.002959681986034482
8.600000000000673,0.1079403703769475,-0.000570300224882375
8.800000000000562,0.11097813552187487,0.0019961901061998407
9.000000000000451,0.11376133395602847,0.004765359535360591
9.20000000000034,0.1164564320002778,0.007543556207411469
9.40000000000023,0.1198103021059405,0.010602884343467017
9.600000000000119,0.12296964701017218,0.013582152788735242
9.800000000000008,0.12614022016096957,0.01694263716734734
10.000999999999896,0.12924466366082066,0.020134496924031436
10.200999999999786,0.13252976066026154,0.023918359577551136
10.400999999999675,0.1357635493657957,0.027669566204937632
10.600999999999564,0.1389449626631101,0.031514580803867924
10.800999999999453,0.14174988148842751,0.035198090502568335
11.000999999999342,0.144969157356353,0.0393886183760044
11.200999999999231,0.14840305661719905,0.04362338141967374
11.40099999999912,0.15140559524150232,0.04796847145649327
11.60099999999901,0.15483962890270284,0.05224259752691087
11.800999999998899,0.15821631572460482,0.05673212101341264
12.000999999998788,0.1612684629666198,0.061412973780829334
12.200999999998677,0.16525007208984369,0.06616548030222497
12.400999999998566,0.16868481882951053,0.0708573445409261
12.600999999998455,0.17226017007085495,0.0763291310779954
12.800999999998345,0.17552472356006654,0.0821159906250705
13.000999999998234,0.1791712350736792,0.08807617488778008
13.200999999998123,0.18304013925216678,0.09323421894489192
13.400999999998012,0.187045411935,0.09918030464881739
13.600999999997901,0.1906081469525471,0.10541524435548172
13.80099999999779,0.19381402573450351,0.11226738431921841
14.00099999999768,0.19752630992563658,0.11868043138221111
14.200999999997569,0.20121746994863557,0.1266628008185993
14.400999999997458,0.20478698105922552,0.13340710153661206
14.600999999997347,0.20807304826582956,0.14072431645156813
14.800999999997236,0.21165202704889957,0.1484250303800267
15.000999999997125,0.21507014603086957,0.15647370283662285
15.200999999997014,0.2185735916384804,0.16444320447124808
15.400999999996904,0.2217545997593422,0.17249029837252547
15.600999999996793,0.22528830032894692,0.1806394879745893
15.800999999996682,0.22843706682726803,0.18875856411887276
16.000999999996573,0.23219955898540554,0.19685284424357158
16.200999999996817,0.23523014299468809,0.2054347094051851
16.40099999999706,0.23852832658882983,0.2141515865685345
16.600999999997306,0.24169616124419915,0.2228754131427202
16.80099999999755,0.24508157192361396,0.2311626166307713
17.000999999997795,0.24816247995969945,0.23977850284220015
17.20099999999804,0.25129543059029774,0.24840806957094608
17.400999999998284,0.25444450034419197,0.2574315007161449
17.60099999999853,0.25715038070678226,0.26643633503652525
17.800999999998773,0.2600098914155537,0.27519235105549816
18.000999999999017,0.26279568487500954,0.28431022082215285
18.20099999999926,0.26580899439716305,0.2939646498000745
18.400999999999506,0.26845128309005617,0.3029599111247763
18.60099999999975,0.27121218166551136,0.31214846329580614
18.799999999999994,0.27381844473470546,0.3207244341858675
19.000000000000238,0.2754969167222773,0.3298726299319898
19.200000000000482,0.2777934986615166,0.34020138781520504
19.400000000000727,0.2791119540709567,0.3494370086745878
19.60000000000097,0.2808016592663522,0.3601432288723362
19.800000000001216,0.2827370977532069,0.3667116775540471
20.00000000000146,0.2837077893137152,0.37589284484919205
