Time (s),X (m),Y (m)
0.001,0.0005129279282107199,-0.0010275501737767782
0.20000000000000015,0.0008752904535917776,-0.0001312328495856819
0.4000000000000003,0.0016540755808439897,-0.00015428788289853287
0.6000000000000004,0.0037945293324297786,0.0007301885504511184
0.8000000000000006,0.006033481058824062,0.0012988384244950288
1.0000000000000007,0.008908948461646212,0.003446854978922606
1.2009999999999785,0.013597053955262024,0.004743192484965522
1.4009999999999565,0.017093456852923395,0.009953969237151285
1.6009999999999345,0.020794149108456228,0.012095506196817768
1.8009999999999124,0.025636106811907804,0.013965734257643051
2.0009999999998906,0.028591696662861925,0.01600940464743075
2.2009999999998686,0.031732411714728084,0.01531986219038318
2.4009999999998466,0.037197514131818515,0.016848262629669018
2.6009999999998246,0.045056043991442495,0.0152338422481909
2.8009999999998025,0.05282420858088086,0.016554267178994903
3.0009999999997805,0.058744852937248945,0.01782573193680227
3.2009999999997585,0.06456191104432898,0.019886505529653747
3.4009999999997365,0.07056171710678591,0.01841445142328114
3.6009999999997144,0.0766374159916226,0.024972376419750506
3.8009999999996924,0.08441099835676531,0.029621679581644703
4.000999999999671,0.09285648198201357,0.02792705832790902
4.200999999999738,0.09844897071748451,0.03196982618236592
4.400999999999804,0.10361271688914703,0.033815291208383925
4.600999999999871,0.11070678943401824,0.034216199991641376
4.800999999999938,0.11758337240583143,0.03574088447587831
5.000000000000004,0.12501417559315825,0.03593205676063381
5.200000000000071,0.13091552124389674,0.04067227790589336
5.400000000000138,0.14023276889474878,0.03999531360718188
5.600000000000205,0.14926451411617034,0.04181059247180708
5.800000000000272,0.15804397864271152,0.04316744958813575
6.000000000000338,0.1650292415229989,0.039629050332315695
6.200000000000405,0.17426211532501396,0.03962856409659115
6.400000000000472,0.18216653539501362,0.04121847092811535
6.600000000000539,0.1942318198285663,0.03893749547694997
6.800000000000606,0.2054904095360813,0.03524512356740164
7.000000000000672,0.21594536616953808,0.03483714197833258
7.200000000000739,0.22639564389537167,0.03033407335310986
7.400000000000806,0.23658763653889484,0.030438911479585096
7.600000000000873,0.2473106262616843,0.025235595956924713
7.8000000000009395,0.2578690793368194,0.021726565282612163
8.000000000001005,0.2666312466726742,0.0218203066260369
8.200000000000895,0.2710749881496051,0.020330838018156924
8.400000000000784,0.277441647096279,0.014343851508653613
8.600000000000673,0.2870192471884178,0.015212430376735543
8.800000000000562,0.2963956821784738,0.015499991035557475
9.000000000000451,0.30657998458636704,0.01783227869232543
9.20000000000034,0.31403230773083246,0.019842627789469908
9.40000000000023,0.3221062576800492,0.021170204116613425
9.600000000000119,0.33193304355493397,0.02166071719856799
9.800000000000008,0.3414014279309635,0.01827729731343161
10.000999999999896,0.34599715007563203,0.014021846306357747
10.200999999999786,0.3475910656642988,0.010317612959209726
10.400999999999675,0.3502461941409862,0.004656051892851864
10.600999999999564,0.35789121331479856,0.008298602734202186
10.800999999999453,0.36589561724942654,0.00988798246950418
11.000999999999342,0.3736464515989286,0.004344345109592974
11.200999999999231,0.3819584106458696,0.003895409912443221
11.40099999999912,0.38777764159181805,0.005869371463730212
11.60099999999901,0.3961505180188595,0.0038219865281784275
11.800999999998899,0.4031559963683037,-0.0009598607886119061
12.000999999998788,0.4071125649248409,-0.004029110210457026
12.200999999998677,0.41281508619898455,-0.0019496813561278939
12.400999999998566,0.4171439196462432,-0.004049221988241911
12.600999999998455,0.42300056907097616,-0.007693835417867418
12.800999999998345,0.4309817254084401,-0.009501133616423246
13.000999999998234,0.4394504010046245,-0.009907483658831028
13.200999999998123,0.4479408445718427,-0.011804339624468176
13.400999999998012,0.4527129067510285,-0.011447810299182935
13.600999999997901,0.4570539642834743,-0.012126062825246926
13.80099999999779,0.4603720901005638,-0.020635257203826828
14.00099999999768,0.4598366652041962,-0.029397005746869147
14.200999999997569,0.46221138017431246,-0.033689546402844814
14.400999999997458,0.46952031823773155,-0.035848121251184785
14.600999999997347,0.47852176664774265,-0.035452525891054465
14.800999999997236,0.48540462973819665,-0.03284068395701369
15.000999999997125,0.4930613621611507,-0.031990571892753644
15.200999999997014,0.4978356315335243,-0.029241605133307175
15.400999999996904,0.5045984175748555,-0.03195911023975061
15.600999999996793,0.5105095020706206,-0.03872845695555213
15.800999999996682,0.5157942681556495,-0.043650121256476083
16.000999999996573,0.5221136277704513,-0.04584180362826396
16.200999999996817,0.5300757787521427,-0.054839735966459614
16.40099999999706,0.5398887803727856,-0.056000133660910965
16.600999999997306,0.5485133875521048,-0.055259243719568266
16.80099999999755,0.5585762965986498,-0.05228552490325298
17.000999999997795,0.5699042856169686,-0.05169000895691116
17.20099999999804,0.5809056918604298,-0.04995199393715317
17.400999999998284,0.5931195088089378,-0.048660618492187994
17.60099999999853,0.6028590656863908,-0.05276971669840014
17.800999999998773,0.6122645377249447,-0.058509341286556896
18.000999999999017,0.6215271688808831,-0.0586233638111112
18.20099999999926,0.6321993990377307,-0.06201467513598969
18.400999999999506,0.6418660641939131,-0.06258788666206132
18.60099999999975,0.6525118192889611,-0.06086870523189061
18.799999999999994,0.6609656735385309,-0.05473481912143927
19.000000000000238,0.6686958135659381,-0.05154751485391114
19.200000000000482,0.6776372441251481,-0.048801830133933195
19.400000000000727,0.6859896528062238,-0.05020178191371825
19.60000000000097,0.6972319298391844,-0.05320680926950953
19.800000000001216,0.7070007002980941,-0.05242228336328232
20.00000000000146,0.71734851261469,-0.051714766762483134
