Time (s),X (m),Y (m)
0.001,-0.00023999057263828476,-0.0007901558823345064
0.20000000000000015,0.0026708967743234633,0.0010745914915831856
0.4000000000000003,0.007407628779336967,0.0034999515416214854
0.6000000000000004,0.014436239784555174,0.005255130961902801
0.8000000000000006,0.0255233600419573,0.00960050920263146
1.0000000000000007,0.037669937000711785,0.012012525585786483
1.2009999999999785,0.05463679480678356,0.011456079708271057
1.4009999999999565,0.07199249726776748,0.015674837324539982
1.6009999999999345,0.0870258805172876,0.01586551534110552
1.8009999999999124,0.10376397433420463,0.011506896444043388
2.0009999999998906,0.125491686389795,0.02048621414265752
2.2009999999998686,0.15133481070766766,0.03894496857842159
2.4009999999998466,0.17584587805966223,0.05723804091027974
2.6009999999998246,0.19996736372760077,0.07411979854546603
2.8009999999998025,0.22571412679410932,0.09377874219727907
3.0009999999997805,0.2547779323195673,0.11431263045643181
3.2009999999997585,0.28788695412814236,0.12843700618735093
3.4009999999997365,0.3170407107669868,0.15525168948445559
3.6009999999997144,0.34358965087396776,0.19412180796114373
3.8009999999996924,0.365705142086996,0.2245651225935767
4.000999999999671,0.3954909993906014,0.26074725415564065
4.200999999999738,0.43436407662720683,0.2955414193283863
4.400999999999804,0.47296388869038386,0.3276221477207508
4.600999999999871,0.5054184413857103,0.37512967607992265
4.800999999999938,0.5396194927153687,0.4135220393639215
5.000000000000004,0.574097126737163,0.45661054642555293
5.200000000000071,0.6104404452340897,0.4950239574502715
5.400000000000138,0.6522146688940502,0.541805104311891
5.600000000000205,0.685074467646636,0.5925363801600775
5.800000000000272,0.7127011682308914,0.6480668488309386
6.000000000000338,0.7328026670924324,0.7054262199548167
6.200000000000405,0.7517325443186529,0.7504032387599433
6.400000000000472,0.7698263740080362,0.7935283795146669
6.600000000000539,0.7969595408199072,0.8438654741465861
6.800000000000606,0.829338011138495,0.8853945650212701
7.000000000000672,0.8694415051767959,0.931312055384828
7.200000000000739,0.9157333110658145,0.9664264037180209
7.400000000000806,0.9537786760926803,0.9949574917523757
7.600000000000873,0.9864612985043446,1.0333617190666107
7.8000000000009395,1.0142276621126625,1.0618365708688948
8.000000000001005,1.0449785260839985,1.110226461115937
8.200000000000895,1.076227630976566,1.1629942747257629
8.400000000000784,1.121638243341892,1.2171899344757418
8.600000000000673,1.1736244351214582,1.2718728633351832
8.800000000000562,1.2294326851130106,1.3340292078154492
9.000000000000451,1.2878540693366338,1.392084719761479
9.20000000000034,1.345237397290848,1.4422541639238173
9.40000000000023,1.3988339031593697,1.4919562371880255
9.600000000000119,1.4410649181302788,1.5529756952786615
9.800000000000008,1.4817441320853093,1.6057669953231342
10.000999999999896,1.5291340711716808,1.650378084857221
10.200999999999786,1.5797731244809976,1.688198912557759
10.400999999999675,1.6339087495556892,1.7283083428917105
10.600999999999564,1.6876681834404417,1.7616097750454685
10.800999999999453,1.744260256277328,1.7914070599512208
11.000999999999342,1.8032588501061158,1.8240807332104911
11.200999999999231,1.8622524232165503,1.8514342639526766
11.40099999999912,1.9217852474094455,1.8752077016278794
11.60099999999901,1.98603469155701,1.909895194722744
11.800999999998899,2.0483611741128973,1.944722213471125
12.000999999998788,2.1165596986663946,1.9862799219780296
12.200999999998677,2.180155127902328,2.030234067804006
12.400999999998566,2.23490175920822,2.0586596356858538
12.600999999998455,2.2830941362041868,2.094958874692158
12.800999999998345,2.325666757721679,2.148868330355343
13.000999999998234,2.34910600210608,2.208887333669378
13.200999999998123,2.367049572490746,2.2685678930089073
13.400999999998012,2.3897304902798786,2.337162640107867
13.600999999997901,2.4200344056234093,2.3833335370904285
13.80099999999779,2.4649495527097907,2.412964934236404
14.00099999999768,2.5208670858373505,2.4465916382504913
14.200999999997569,2.5876890620968425,2.4963432638783423
14.400999999997458,2.6470478850347274,2.555367833958038
14.600999999997347,2.6837308741106862,2.624103347463317
14.800999999997236,2.7023314072762084,2.6925102491394353
15.000999999997125,2.7245248409889085,2.7486363281107016
15.200999999997014,2.7529734532182744,2.7925305488818704
15.400999999996904,2.787222621364279,2.8300120020438544
15.600999999996793,2.827627999332243,2.871188024535976
15.800999999996682,2.869567783249163,2.9363999784191734
16.000999999996573,2.903271642141122,3.009108358363211
16.200999999996817,2.9327563553335665,3.089613833113773
16.40099999999706,2.951239451638701,3.1694835732733666
16.600999999997306,2.966546490073544,3.230778466099473
16.80099999999755,2.9841061269734777,3.2919610243613744
17.000999999997795,3.0094193164134615,3.346905474749641
17.20099999999804,3.042457767972823,3.399095477095186
17.400999999998284,3.0749822699952696,3.4603522179192208
17.60099999999853,3.113289250981987,3.5185088521439236
17.800999999998773,3.1632933165466484,3.589464817522493
18.000999999999017,3.2135625985195384,3.6531613651348542
18.20099999999926,3.265329917767606,3.725369608610785
18.400999999999506,3.3250274276873686,3.796865643396412
18.60099999999975,3.3951609630857,3.8778252788448544
18.799999999999994,3.4645893756461614,3.9503390091909756
19.000000000000238,3.528447864398986,4.022193548466074
19.200000000000482,3.5831144116180087,4.088107871220362
19.400000000000727,3.621602189474457,4.15957598279661
19.60000000000097,3.6610796834839388,4.225116207251286
19.800000000001216,3.7202402152379634,4.286777615498778
20.00000000000146,3.7918173067313816,4.342624280364869
