Time (s),X (m),Y (m)
0.001,0.0006021427340131596,-0.0010158048217711122
0.20000000000000015,0.0010234177060963001,0.0006988413131264508
0.4000000000000003,0.0045963869174617915,0.0033649701383875316
0.6000000000000004,0.011453263213787946,0.0024765070464077424
0.8000000000000006,0.021466260056239406,-0.0014194393677801017
1.0000000000000007,0.03901352707780618,-0.001489965701378654
1.2009999999999785,0.05981788348027231,-0.004199194914194161
1.4009999999999565,0.08223204341117282,-0.012004594139961638
1.6009999999999345,0.09253946436099447,-0.022331696369366407
1.8009999999999124,0.08540914187480599,-0.035423701030821216
2.0009999999998906,0.07518884642342004,-0.054702659152165344
2.2009999999998686,0.06137699279100352,-0.07091654033954753
2.4009999999998466,0.03597678885402114,-0.08153486975826518
2.6009999999998246,0.0027531992447281215,-0.09057897347975029
2.8009999999998025,-0.031173866100508436,-0.08641354767444427
3.0009999999997805,-0.06901527292487246,-0.08202042811704872
3.2009999999997585,-0.07878544857620268,-0.07058043572384706
3.4009999999997365,-0.06413785687745585,-0.05488303056955303
3.6009999999997144,-0.04368849518838024,-0.0362176567430749
3.8009999999996924,-0.02864297018536984,-0.005308663773072373
4.000999999999671,-0.0073810376560592235,0.028255319847538526
4.200999999999738,0.012752169327774282,0.061917683988294586
4.400999999999804,0.03832002255562086,0.07811223261864156
4.600999999999871,0.06868438414041578,0.07801704566872612
4.800999999999938,0.10434905939686834,0.07951423208811025
5.000000000000004,0.13573258187616533,0.06470173548972685
5.200000000000071,0.15538169718317577,0.04138143785842035
5.400000000000138,0.15840006774548135,0.012472946090652505
5.600000000000205,0.15280203543307205,-0.023451795266674264
5.800000000000272,0.14648538133549374,-0.06660206654114499
6.000000000000338,0.13264234157535457,-0.10959282372279508
6.200000000000405,0.11009409468212492,-0.12406410094662274
6.400000000000472,0.07357281738795472,-0.13223875300206758
6.600000000000539,0.03138994832851146,-0.13403950187778874
6.800000000000606,-0.008417195085303269,-0.12838635139449964
7.000000000000672,-0.03657693745579258,-0.10355476033314895
7.200000000000739,-0.0680497482354014,-0.08267269598301213
7.400000000000806,-0.10029475210984262,-0.06365853849145656
7.600000000000873,-0.1353891445115302,-0.04554832759147203
7.8000000000009395,-0.16043542737501848,-0.01942443114104119
8.000000000001005,-0.17196967684597633,0.016792256644970378
8.200000000000895,-0.17589137104369737,0.06005966758241318
8.400000000000784,-0.16095332817456087,0.09773021449862646
8.600000000000673,-0.134820563445853,0.12871782807033508
8.800000000000562,-0.10084907789976497,0.15346166774876868
9.000000000000451,-0.06578029464420752,0.15152410526642676
9.20000000000034,-0.029021334729785422,0.1291851420243356
9.40000000000023,0.006303382948457982,0.10031363353726952
9.600000000000119,0.04475385453446604,0.07371612536837129
9.800000000000008,0.0838408036178105,0.04931666307039663
10.000999999999896,0.12520644781646312,0.02178263989392564
10.200999999999786,0.15547471686373177,-0.008623252928003283
10.400999999999675,0.1555436015764315,-0.04892889219798422
10.600999999999564,0.15075395639019004,-0.09538024855558512
10.800999999999453,0.13199896548346599,-0.1405164953787891
11.000999999999342,0.09868778453582144,-0.18205117710978402
11.200999999999231,0.05533262432161134,-0.20761672499430206
11.40099999999912,0.018317000250393158,-0.23456119254409277
11.60099999999901,-0.01891299773709983,-0.24443162672589333
11.800999999998899,-0.05989458626440691,-0.2404334655179433
12.000999999998788,-0.0949387149081514,-0.21661764652701235
12.200999999998677,-0.13348102585409108,-0.18753340347471514
12.400999999998566,-0.16443301859003026,-0.1550864932344204
12.600999999998455,-0.18223463441511306,-0.11468666622551993
12.800999999998345,-0.1874848788580345,-0.0679328731318709
13.000999999998234,-0.18449735199907266,-0.020353064685955286
13.200999999998123,-0.16743771050113623,0.025586324024317698
13.400999999998012,-0.15608129717831154,0.07373873782589874
13.600999999997901,-0.13957287186556264,0.11951711173814743
13.80099999999779,-0.11570699627999807,0.14840239998190674
14.00099999999768,-0.07922136421250497,0.15386245951629807
14.200999999997569,-0.0314460011490197,0.15938039764392964
14.400999999997458,0.021561510988311605,0.16244966351603737
14.600999999997347,0.06221014763486201,0.1446817191438755
14.800999999997236,0.10181454312118729,0.1257647640981289
15.000999999997125,0.13217030280380324,0.09650628494605455
15.200999999997014,0.16119889094205794,0.05199177032272374
15.400999999996904,0.18933426423640026,-0.006654732805699959
15.600999999996793,0.21831008738369964,-0.06876981313168225
15.800999999996682,0.24313256130879868,-0.14389382503558296
16.000999999996573,0.2726173240987408,-0.1934799046729648
16.200999999996817,0.30831974458024697,-0.2249662917901064
16.40099999999706,0.3436591159710192,-0.2581506840106462
16.600999999997306,0.3752122366236786,-0.3010821354333528
16.80099999999755,0.40488043005485197,-0.34800379968383455
17.000999999997795,0.4470108809726376,-0.37015702857251653
17.20099999999804,0.4879986741026023,-0.4021365766414779
17.400999999998284,0.527439518289158,-0.4505777027092597
17.60099999999853,0.5631953624771696,-0.497081056155474
17.800999999998773,0.5981593197966614,-0.5450631745928901
18.000999999999017,0.6399381263188817,-0.5956285199956296
18.20099999999926,0.685942073746456,-0.6566588844220331
18.400999999999506,0.6952777682122532,-0.71024303356351
18.60099999999975,0.6771407455291164,-0.7517808468985362
18.799999999999994,0.6533394289797522,-0.7969223671585935
19.000000000000238,0.6233787683882699,-0.836551930782723
19.200000000000482,0.5823049220377121,-0.8565815078369549
19.400000000000727,0.5418756940430182,-0.8497115609553648
19.60000000000097,0.49240643097546405,-0.8289123209998069
19.800000000001216,0.4403658017432383,-0.8005039072106137
20.00000000000146,0.4155444515364543,-0.7633326803897433
