Time (s),X (m),Y (m)
0.001,0.0014193575185132074,0.0002669654388657892
0.20000000000000015,0.0010474134559414993,-1.9835424406615854e-05
0.4000000000000003,0.0016533903968053616,0.0002579048997918856
0.6000000000000004,0.0032759446420248506,0.0013680108456814095
0.8000000000000006,0.005783072083300659,0.00286246256620092
1.0000000000000007,0.007745478171106285,0.004394974344818988
1.2009999999999785,0.01142642096258931,0.0065089264142378644
1.4009999999999565,0.01563833145165237,0.007718922634899332
1.6009999999999345,0.02080133827413488,0.010182085434628676
1.8009999999999124,0.02400266852599638,0.011304910816033213
2.0009999999998906,0.02940319173823054,0.01402430985941553
2.2009999999998686,0.03277265176731383,0.015057148362686458
2.4009999999998466,0.03670827254092636,0.017347142269438096
2.6009999999998246,0.04100820950755592,0.019558854093515012
2.8009999999998025,0.045471702895388544,0.021660972223111447
3.0009999999997805,0.04993724130272925,0.02493998684607093
3.2009999999997585,0.05419601330906418,0.027045904053807208
3.4009999999997365,0.057866271887019004,0.030175379358527186
3.6009999999997144,0.06315763709249002,0.03404814180629018
3.8009999999996924,0.06723590817900058,0.03712861156154376
4.000999999999671,0.07051550389157228,0.04075555827608914
4.200999999999738,0.07543103978200863,0.043676088049889164
4.400999999999804,0.07924204586938671,0.04726866882569711
4.600999999999871,0.08266438639187502,0.051801450357174005
4.800999999999938,0.08696785082683466,0.055827605928575844
5.000000000000004,0.09184342608689851,0.06074419385406703
5.200000000000071,0.095194930595495,0.06404437841767378
5.400000000000138,0.09900453442644584,0.06819461035730993
5.600000000000205,0.10240427502334966,0.07289774394845902
5.800000000000272,0.10633957208965772,0.07856436998639665
6.000000000000338,0.10988095522130795,0.0824308412784902
6.200000000000405,0.11529093043046758,0.0900503972783309
6.400000000000472,0.1204704020316713,0.09728517399267607
6.600000000000539,0.12504695525982618,0.10437875156856195
6.800000000000606,0.12943790952617015,0.1114249327951877
7.000000000000672,0.13345477968435682,0.11762484413911792
7.200000000000739,0.13821766997082258,0.12589965376050125
7.400000000000806,0.14060585299350825,0.13176038289186648
7.600000000000873,0.14273666881141645,0.13732838369830738
7.8000000000009395,0.1451336039985914,0.1448196063887685
8.000000000001005,0.14609404489978217,0.14947431846414583
8.200000000000895,0.14770204985262786,0.1569190504984413
8.400000000000784,0.14796909285128654,0.16323375344765204
8.600000000000673,0.14818549288846253,0.16906241602633965
8.800000000000562,0.1481712769673445,0.17611334616157734
9.000000000000451,0.14743522961701291,0.18320273621198654
9.20000000000034,0.147054798348954,0.19166990437379533
9.40000000000023,0.14501255010264394,0.19793141265644007
9.600000000000119,0.14312311128417066,0.2034952045415068
9.800000000000008,0.14239263092732793,0.2120194965845357
10.000999999999896,0.13989778128233551,0.2179205409608854
10.200999999999786,0.13666478586667363,0.22364315048486363
10.400999999999675,0.13410784750609747,0.23120719030088535
10.600999999999564,0.13171393044705224,0.24061944439951768
10.800999999999453,0.12913102297158904,0.24978681301068156
11.000999999999342,0.12524066682395507,0.2566802101298363
11.200999999999231,0.12020049656295836,0.2620772034489268
11.40099999999912,0.11635183170552764,0.2710303950116266
11.60099999999901,0.11138922594446347,0.2794650247174704
11.800999999998899,0.1066394389209186,0.288867544179761
12.000999999998788,0.10076401911348491,0.2951118847519276
12.200999999998677,0.09569409086555929,0.3010409183908296
12.400999999998566,0.0907224036710466,0.3078626365557299
12.600999999998455,0.08485027531002277,0.3136861295932979
12.800999999998345,0.07795802605606761,0.3208746153458383
13.000999999998234,0.07315834666030054,0.32531589673121813
13.200999999998123,0.06540888513746251,0.3303294378604354
13.400999999998012,0.060464008663643945,0.3351279876954336
13.600999999997901,0.05376284468509468,0.34194800185668683
13.80099999999779,0.04741117629371082,0.34664752867272336
14.00099999999768,0.03957174295904864,0.35347129334892463
14.200999999997569,0.03108585231782828,0.35933313981485976
14.400999999997458,0.024457133723961764,0.36547293894765376
14.600999999997347,0.017846988009829236,0.37063025572645986
14.800999999997236,0.011761842273863348,0.37498177582934583
15.000999999997125,0.004151068375475906,0.3798637567367006
15.200999999997014,-0.0010182153213982466,0.3836581822039821
15.400999999996904,-0.009012022417129084,0.38842974251599255
15.600999999996793,-0.014701364995572726,0.39256362514612
15.800999999996682,-0.02124634975593704,0.396653909048226
16.000999999996573,-0.027949547517393092,0.4006343810147318
16.200999999996817,-0.03582413516999661,0.40513880494319277
16.40099999999706,-0.04220748554357118,0.40931008813763314
16.600999999997306,-0.05115761673871498,0.4141919399142627
16.80099999999755,-0.06056265994619154,0.41954380497922533
17.000999999997795,-0.06763779748605939,0.4226105434475696
17.20099999999804,-0.07441256048222797,0.424772873367269
17.400999999998284,-0.08008361379814964,0.42599057483560665
17.60099999999853,-0.08793515804504971,0.42852886563533443
17.800999999998773,-0.09380457824212185,0.4294009732101043
18.000999999999017,-0.10097723709791126,0.4300983037113779
18.20099999999926,-0.10917731901914446,0.43145675687671525
18.400999999999506,-0.11540921163780414,0.43134724364472626
18.60099999999975,-0.12265962312084358,0.4309424315341091
18.799999999999994,-0.13223633640127863,0.4314983742743794
19.000000000000238,-0.13949247087648914,0.4311271439277911
19.200000000000482,-0.14601192188732615,0.430014002853628
19.400000000000727,-0.15173249767000843,0.4287965442479615
19.60000000000097,-0.159369261798864,0.4268659312045338
19.800000000001216,-0.16533041040141122,0.4242050961055072
20.00000000000146,-0.17224871060737668,0.4209385631653208
