Time (s),X (m),Y (m)
0.001,0.00033312994539159724,-0.0010275501737767782
0.20000000000000015,0.0010306577936679522,0.000387826983221647
0.4000000000000003,0.003561053493607145,-0.00026920799273773293
0.6000000000000004,0.006994130760919415,0.0044769057160525
0.8000000000000006,0.015631362326785598,0.011900416137499441
1.0000000000000007,0.02266894500641266,0.012557593718013144
1.2009999999999785,0.030750204585204943,0.0134422230347124
1.4009999999999565,0.03769167040048911,0.011506748675809211
1.6009999999999345,0.04764008538787389,0.00841851960032819
1.8009999999999124,0.054222696108935715,0.002119273363307113
2.0009999999998906,0.06276420545874467,-0.00044698944659761464
2.2009999999998686,0.07718172891952814,0.0061633268790111115
2.4009999999998466,0.09178672774899976,0.009983719634312712
2.6009999999998246,0.11225022778891021,0.016166359724560247
2.8009999999998025,0.13248547722356677,0.02604294750885706
3.0009999999997805,0.14514409892872504,0.023641111471508297
3.2009999999997585,0.15730348483486345,0.02179892419059966
3.4009999999997365,0.17311835318650443,0.023384526744493254
3.6009999999997144,0.1837297925736064,0.026852681739333122
3.8009999999996924,0.19745340734384256,0.036134737567498576
4.000999999999671,0.21096708205099318,0.03731138107409237
4.200999999999738,0.23321900857600952,0.04547611027466445
4.400999999999804,0.25630296088521043,0.061719966553114194
4.600999999999871,0.27932305910773714,0.06581408821839146
4.800999999999938,0.29554013636297155,0.05899103553694781
5.000000000000004,0.31585056333127065,0.055160029314918195
5.200000000000071,0.33142087756284655,0.05415744173771228
5.400000000000138,0.346264552024558,0.05457946336785948
5.600000000000205,0.36679560153584573,0.05750739415733972
5.800000000000272,0.3878987333299268,0.05813979795884872
6.000000000000338,0.4026803201698338,0.05106087929950994
6.200000000000405,0.41285788752659586,0.04432539999559155
6.400000000000472,0.4336703079899358,0.046718047793939434
6.600000000000539,0.45731746725628225,0.05181720955674904
6.800000000000606,0.48141415683282,0.06513948363935503
7.000000000000672,0.5028290955958009,0.07158029892398848
7.200000000000739,0.5209382707571543,0.06721248739160107
7.400000000000806,0.5409965183884293,0.06526001843449564
7.600000000000873,0.5582130651784772,0.06256637155107045
7.8000000000009395,0.5800894595986517,0.0713617529645247
8.000000000001005,0.606063739806281,0.08626335115369795
8.200000000000895,0.6291293368418417,0.08828411315499558
8.400000000000784,0.6469097565220976,0.09190189743202007
8.600000000000673,0.6698251424729503,0.10232303290629939
8.800000000000562,0.6900654658255057,0.10594868035650643
9.000000000000451,0.7065072493190275,0.09719544431331859
9.20000000000034,0.7265657932803703,0.09085242250837279
9.40000000000023,0.7476499366349526,0.08433957881147448
9.600000000000119,0.7681602802363345,0.07854976153761817
9.800000000000008,0.7879599630403962,0.0821564284137197
10.000999999999896,0.8062685048029017,0.07687259935665704
10.200999999999786,0.8236709321257963,0.0771841049317798
10.400999999999675,0.8367571043248376,0.0763343587569623
10.600999999999564,0.8555715673932401,0.08147236558203269
10.800999999999453,0.8716177724008514,0.08275980137257286
11.000999999999342,0.8900589722821618,0.0881082122105688
11.200999999999231,0.9197831434625111,0.10048731444215975
11.40099999999912,0.9468608599871354,0.11158568832156461
11.60099999999901,0.972934350984571,0.11842994657600413
11.800999999998899,0.9901794743542282,0.11410724504965788
12.000999999998788,1.005000032779452,0.10966777865195873
12.200999999998677,1.0215455827639472,0.10251455003214355
12.400999999998566,1.037798992588153,0.09690307147090138
12.600999999998455,1.0558138465269744,0.09657488118747033
12.800999999998345,1.0797716490845284,0.09977450570112335
13.000999999998234,1.104108892139688,0.10352389997115947
13.200999999998123,1.1247103629245983,0.10915602960146421
13.400999999998012,1.149361322337527,0.11390966539417226
13.600999999997901,1.1709450865467632,0.1134099379353648
13.80099999999779,1.1844219204543203,0.09981886338863744
14.00099999999768,1.1943595475658262,0.09166730642714266
14.200999999997569,1.2143399682344413,0.09564464000818415
14.400999999997458,1.2348303119714257,0.10715629536297405
14.600999999997347,1.2613583590153545,0.12088229240615717
14.800999999997236,1.2852653712518576,0.12190603550158959
15.000999999997125,1.304156647444012,0.12076046569623615
15.200999999997014,1.320380204249235,0.11273929074074955
15.400999999996904,1.3361250179132296,0.10949139215699234
15.600999999996793,1.360679744089259,0.11232261497434008
15.800999999996682,1.3920355876594468,0.11510581149127562
16.000999999996573,1.4233303631718284,0.11798203955312724
16.200999999996817,1.4452117727198286,0.11750804274439944
16.40099999999706,1.458250159591124,0.11258193732588208
16.600999999997306,1.47069362534756,0.1000651827281049
16.80099999999755,1.4820833535570128,0.08391155899268549
17.000999999997795,1.4964202213420306,0.08371676304840754
17.20099999999804,1.5087651574901282,0.07951845524115313
17.400999999998284,1.5260370284963678,0.07748356503768503
17.60099999999853,1.5440260100673808,0.07475051574591457
17.800999999998773,1.5673274643760555,0.08784370631093508
18.000999999999017,1.5908250550968277,0.08561622006272629
18.20099999999926,1.6078222659981771,0.065971894299512
18.400999999999506,1.6209413651445967,0.04765315766538427
18.60099999999975,1.6373652689728635,0.04382184450340888
18.799999999999994,1.6557221850742396,0.03716283794061848
19.000000000000238,1.6708805562863145,0.035689053856966954
19.200000000000482,1.690049204738833,0.02943153999228197
19.400000000000727,1.7081754517488756,0.030060447841844185
19.60000000000097,1.731270105517375,0.03431306436360991
19.800000000001216,1.7500509116491896,0.03866240614975422
20.00000000000146,1.7703093923801132,0.043928964313611193
