Time (s),X (m),Y (m)
0.001,-0.00036712694553334884,-0.000663019509439443
0.20000000000000015,0.00265910773340105,0.001254738658657973
0.4000000000000003,0.007656101698414671,0.0038224855779326323
0.6000000000000004,0.01264706327077632,0.001100027424504405
0.8000000000000006,0.025950967690144693,-0.004477300001491061
1.0000000000000007,0.037318010834475036,-0.012172086867696701
1.2009999999999785,0.048855982781626395,-0.02258248156219656
1.4009999999999565,0.07729183606381929,-0.03727369601514323
1.6009999999999345,0.1086030850557998,-0.05772513768191938
1.8009999999999124,0.12468014661057829,-0.08054000077684577
2.0009999999998906,0.14436490894034587,-0.11003881254853164
2.2009999999998686,0.17208420236454589,-0.14440487692688497
2.4009999999998466,0.2105948198357252,-0.18481416982698204
2.6009999999998246,0.24709971645308954,-0.22801231213612863
2.8009999999998025,0.2792721458116155,-0.2744033864603711
3.0009999999997805,0.30359680004795797,-0.31450805267285603
3.2009999999997585,0.3179349356379861,-0.35590866080600264
3.4009999999997365,0.31549557901062447,-0.39827580220103653
3.6009999999997144,0.29672889961083443,-0.4380440128385645
3.8009999999996924,0.27073214501938964,-0.471351026858204
4.000999999999671,0.23051599829827313,-0.5089740330618672
4.200999999999738,0.18557783155848567,-0.5410648646829176
4.400999999999804,0.15016215206806668,-0.5608763415387606
4.600999999999871,0.11944714768253237,-0.5635100422067886
4.800999999999938,0.09362989891036154,-0.5520330034937226
5.000000000000004,0.06831577029398526,-0.5292874595492177
5.200000000000071,0.03550088043576736,-0.49301464232860076
5.400000000000138,-0.0016571224961461348,-0.43837129318417717
5.600000000000205,-0.0357129661099795,-0.3697152874423514
5.800000000000272,-0.05475729747644662,-0.3032094045074841
6.000000000000338,-0.06471522702542278,-0.2272733043889242
6.200000000000405,-0.08008319584837581,-0.1592073799531559
6.400000000000472,-0.09926288360591767,-0.10298954073130799
6.600000000000539,-0.11805370485023717,-0.044518618388508235
6.800000000000606,-0.12377878024119203,0.027819787542690762
7.000000000000672,-0.11056938787914196,0.0890301770719002
7.200000000000739,-0.0871772413729698,0.14208548884661598
7.400000000000806,-0.05115360584691931,0.19749880637345893
7.600000000000873,-0.005173487957265457,0.251307782097718
7.8000000000009395,0.04743340615421272,0.3050429048180859
8.000000000001005,0.10726201110243627,0.359944327488028
8.200000000000895,0.17109777816721788,0.4220301685965097
8.400000000000784,0.2349341193428653,0.4801187351956186
8.600000000000673,0.2980379948711171,0.5286819161154326
8.800000000000562,0.3714369589007769,0.569571031696244
9.000000000000451,0.43825984358100895,0.5925771102712158
9.20000000000034,0.5023645401693959,0.584303761958196
9.40000000000023,0.5752334011825394,0.5709944133953935
9.600000000000119,0.6443582953696425,0.5578165299820983
9.800000000000008,0.6989595583747146,0.5310211285018845
10.000999999999896,0.7529818710608783,0.48516934157612346
10.200999999999786,0.7999953414558406,0.43087491045198
10.400999999999675,0.8272337560029837,0.3722403010242012
10.600999999999564,0.824866063127868,0.31370995469019425
10.800999999999453,0.8200791830097517,0.25425887096973315
11.000999999999342,0.8179592341336849,0.19945638482221856
11.200999999999231,0.8130565183430802,0.13940626446791646
11.40099999999912,0.7915828028340837,0.07418013308927422
11.60099999999901,0.7541632158013903,0.006989668730305229
11.800999999998899,0.7006002362155748,-0.0641965620330405
12.000999999998788,0.6367722527627038,-0.13287944239445168
12.200999999998677,0.5609721667826468,-0.2075227069429508
12.400999999998566,0.4829249297338317,-0.281007286240792
12.600999999998455,0.4032797003299628,-0.3570300524562473
12.800999999998345,0.32206868369209213,-0.42779861349374393
13.000999999998234,0.24129023458914484,-0.493686506948888
13.200999999998123,0.16328203150070433,-0.5640139003073545
13.400999999998012,0.08947096983102935,-0.6477608417030012
13.600999999997901,0.022143433213250782,-0.7297975740569121
13.80099999999779,-0.04108849815319457,-0.8076267839011113
14.00099999999768,-0.10113289381311898,-0.8885264514575743
14.200999999997569,-0.16572603484932905,-0.959263284320592
14.400999999997458,-0.2506303073689881,-1.0304001558052702
14.600999999997347,-0.3395152172275245,-1.0898743010237726
14.800999999997236,-0.42702150265939454,-1.119329488963844
15.000999999997125,-0.5077060621744146,-1.1118723456671844
15.200999999997014,-0.590424167184006,-1.0879438517725546
15.400999999996904,-0.6665978407518817,-1.0574092209695205
15.600999999996793,-0.7403440573108239,-1.0178584548782272
15.800999999996682,-0.8044673785608182,-0.9640199563462057
16.000999999996573,-0.8764084088743394,-0.8985471489243423
16.200999999996817,-0.950318434488753,-0.822410183965375
16.40099999999706,-1.0201710729641629,-0.739586801363312
16.600999999997306,-1.0856286090271434,-0.6530603428315351
16.80099999999755,-1.145807671273534,-0.5575890912264866
17.000999999997795,-1.1888545091802247,-0.4681154156134385
17.20099999999804,-1.208792249982587,-0.3894141948225221
17.400999999998284,-1.1961129401534387,-0.3173446162562505
17.60099999999853,-1.156657037740754,-0.2534571732579265
17.800999999998773,-1.105131846619528,-0.20293736020132208
18.000999999999017,-1.0451303226494493,-0.14408285074641725
18.20099999999926,-0.973252670495425,-0.07513455626409567
18.400999999999506,-0.8996688009332975,-0.011371948051750418
18.60099999999975,-0.8252569532227391,0.04666509392855964
18.799999999999994,-0.751064080050755,0.09987132427448943
19.000000000000238,-0.6633559891836494,0.14895534455942586
19.200000000000482,-0.5893266782732749,0.1804539596325404
19.400000000000727,-0.5308292050577187,0.17406377095126427
19.60000000000097,-0.4836945534932739,0.14303317411018868
19.800000000001216,-0.44244855844598446,0.10039045639120897
20.00000000000146,-0.3975570408887955,0.03278996130328197
