Time (s),X (m),Y (m)
0.001,0.0005129279282107199,0.0010275501737767782
0.20000000000000015,0.0008539688699721056,-0.0010921778348747144
0.4000000000000003,0.0035950919184360225,0.0001983377658853139
0.6000000000000004,0.009739919599213363,0.000900151169730978
0.8000000000000006,0.011729764334817996,-0.00984247697010005
1.0000000000000007,0.0017925476106135042,-0.024145327939191507
1.2009999999999785,-0.005838946492243631,-0.04092689240855586
1.4009999999999565,-0.007037369254972069,-0.060507071233589144
1.6009999999999345,-0.01480278955139364,-0.07641024492386288
1.8009999999999124,-0.019245745154169873,-0.0976944737028314
2.0009999999998906,-0.02395237886537029,-0.11335781687963938
2.2009999999998686,-0.03720236716868019,-0.11979428031354894
2.4009999999998466,-0.06010277175668919,-0.11074069322492616
2.6009999999998246,-0.08589193485696985,-0.11210099762193634
2.8009999999998025,-0.11329971158922233,-0.11099217201219815
3.0009999999997805,-0.1421493649447957,-0.11632677631307303
3.2009999999997585,-0.16600275435659897,-0.11247006557891971
3.4009999999997365,-0.18630145999192338,-0.1002141065246216
3.6009999999997144,-0.20514939153603587,-0.08579233672224595
3.8009999999996924,-0.22255422099300182,-0.07004353242110259
4.000999999999671,-0.22442320752536524,-0.049166989672057335
4.200999999999738,-0.2160657536040749,-0.02139882315513966
4.400999999999804,-0.2056601047431899,0.0028370970599174788
4.600999999999871,-0.19083887258465845,0.02806448199430604
4.800999999999938,-0.17845115141299409,0.04711771957593026
5.000000000000004,-0.15866202309516406,0.0705918414397895
5.200000000000071,-0.13466278815344648,0.08880498552136133
5.400000000000138,-0.09676588009724336,0.11644821224452123
5.600000000000205,-0.050687613174991895,0.14232206428505734
5.800000000000272,-0.010213455498465385,0.15246091456017055
6.000000000000338,0.029346066890332808,0.15280599611202794
6.200000000000405,0.0737566351642726,0.15336357069920864
6.400000000000472,0.11084950040672514,0.14401664116521212
6.600000000000539,0.1420826747496205,0.1268511666397634
6.800000000000606,0.17853776361206442,0.10631158224052706
7.000000000000672,0.20571355631856153,0.0826395931157202
7.200000000000739,0.20791040490389795,0.04979430241218883
7.400000000000806,0.19890368648378318,0.015587355662031491
7.600000000000873,0.18044264533611656,-0.015022466848098496
7.8000000000009395,0.14773351856474348,-0.05463799502296192
8.000000000001005,0.11007049194669026,-0.0718029204188871
8.200000000000895,0.0741076056140261,-0.07008798744177977
8.400000000000784,0.047361595261415465,-0.05876302993295908
8.600000000000673,0.02064677429134022,-0.03829346166995045
8.800000000000562,0.0013562117647862703,-0.01170765237325599
9.000000000000451,-0.008248053576318819,0.02304989929189758
9.20000000000034,-0.0006838691464752775,0.05913635381845497
9.40000000000023,0.017047648084545872,0.08798045979306135
9.600000000000119,0.034208344172611586,0.12495585861752292
9.800000000000008,0.055851560412899064,0.15960628811207284
10.000999999999896,0.07703333712800313,0.18950146059412343
10.200999999999786,0.10299409226299178,0.19549971317095358
10.400999999999675,0.1406841928937536,0.19319565579100714
10.600999999999564,0.17455437263105572,0.18631322736582187
10.800999999999453,0.18916881209729106,0.17126217923795628
11.000999999999342,0.2080337666992969,0.1410271335470881
11.200999999999231,0.21467060456147033,0.09934531215413055
11.40099999999912,0.22144072031402026,0.04836376874505995
11.60099999999901,0.2167881999391634,0.014661598010652036
11.800999999998899,0.20298242569217015,-0.012114601689616996
12.000999999998788,0.17461910384588092,-0.025257027059579953
12.200999999998677,0.14387169944281172,-0.027250472416316524
12.400999999998566,0.10641571831704191,-0.026335722581340062
12.600999999998455,0.077349139411976,-0.01697612753366935
12.800999999998345,0.04631025038655916,0.005601990028416201
13.000999999998234,0.035621045734240075,0.03809765416028517
13.200999999998123,0.03570853065783611,0.07189734045803949
13.400999999998012,0.048084457194797106,0.10427875861720282
13.600999999997901,0.06316110382351624,0.1323394924430049
13.80099999999779,0.07422825770906731,0.1679367027036042
14.00099999999768,0.09017023020250499,0.20690203527308507
14.200999999997569,0.10661923593181172,0.23992944122742793
14.400999999997458,0.1297753828384478,0.25448131979421335
14.600999999997347,0.1645795062420951,0.26048321461707696
14.800999999997236,0.21001266893680348,0.26421995081996447
15.000999999997125,0.2544015881056442,0.26200976358474715
15.200999999997014,0.29607260953026987,0.24918921275976338
15.400999999996904,0.3340779042202201,0.22929377780437643
15.600999999996793,0.37677901867713204,0.20851599977223317
15.800999999996682,0.40556460330082955,0.17132701601201106
16.000999999996573,0.4232557705730256,0.1225265515574402
16.200999999996817,0.4302671632258214,0.06564221991546601
16.40099999999706,0.429127173695597,0.01245023072405384
16.600999999997306,0.4248152065209821,-0.03343795532267661
16.80099999999755,0.4088050250861234,-0.067158736861826
17.000999999997795,0.3837130493368017,-0.08279641515688521
17.20099999999804,0.35476560330869855,-0.08768171127686765
17.400999999998284,0.3236750931867332,-0.08514198929538112
17.60099999999853,0.28844699517940164,-0.07386209859090676
17.800999999998773,0.2351936218401271,-0.06953902645670827
18.000999999999017,0.1878443306974883,-0.05866759186273801
18.20099999999926,0.1364412820006134,-0.04133611483763591
18.400999999999506,0.11358742101432316,-0.014274327823504592
18.60099999999975,0.10779258020395895,0.02256164715863437
18.799999999999994,0.11129826673107868,0.0646059454365936
19.000000000000238,0.11209048277108505,0.10396893085853001
19.200000000000482,0.11172872228826797,0.14576394369117
19.400000000000727,0.11510221205167473,0.18551136033565283
19.60000000000097,0.12279052600129038,0.22975320651802433
19.800000000001216,0.13971517606814973,0.26057311605412925
20.00000000000146,0.16190165817708355,0.25494921410156296
