Time (s),X (m),Y (m)
0.001,0.001392298616347667,0.0003527853123316693
0.20000000000000015,0.0006782541191896232,-0.00015141199896682683
0.4000000000000003,0.0015133745819014982,0.00012071870709592083
0.6000000000000004,0.0026410353356242718,0.0007750716761252238
0.8000000000000006,0.0040217868415618,0.001806633007139731
1.0000000000000007,0.005523030194548189,0.002965026047317519
1.2009999999999785,0.007289487479107527,0.00424143534998328
1.4009999999999565,0.009127722262236347,0.00554121380808203
1.6009999999999345,0.010988241618948878,0.0068571843870501095
1.8009999999999124,0.01294115302127517,0.008237637250420086
2.0009999999998906,0.01502662449946344,0.009732674500561323
2.2009999999998686,0.017235180948885077,0.0113369749493357
2.4009999999998466,0.019545382688105146,0.013037347717164376
2.6009999999998246,0.021984683849919886,0.01481419260193293
2.8009999999998025,0.024665548051208155,0.01680240043058519
3.0009999999997805,0.02730653486410447,0.01884520946068917
3.2009999999997585,0.030118071727433547,0.020965977095364123
3.4009999999997365,0.032980830220421205,0.023153088687131104
3.6009999999997144,0.035801939360652034,0.025423021554974643
3.8009999999996924,0.03862492824778796,0.027734147041908172
4.000999999999671,0.04150203985590443,0.03007524272683635
4.200999999999738,0.04438654075522893,0.03243311648244397
4.400999999999804,0.04741136880593511,0.03495474782839218
4.600999999999871,0.05034011399623755,0.037496341462532175
4.800999999999938,0.053150209628723744,0.04005575254433458
5.000000000000004,0.05580991120398527,0.042578806623198795
5.200000000000071,0.05856459615675793,0.045226910060364015
5.400000000000138,0.061329928529637825,0.047938521087660974
5.600000000000205,0.0640813722526768,0.05071917051250372
5.800000000000272,0.06666077411501029,0.05338324515830799
6.000000000000338,0.06921197692191533,0.05616660320936599
6.200000000000405,0.07162816471630544,0.05881013818809018
6.400000000000472,0.07403335086016231,0.061546224404526756
6.600000000000539,0.07652172400141137,0.06436597664500002
6.800000000000606,0.07902748128344395,0.06730413579066938
7.000000000000672,0.08142910730896069,0.07011204035008743
7.200000000000739,0.08383575838639537,0.07303072254262387
7.400000000000806,0.08608080945572465,0.07581698815371198
7.600000000000873,0.08845755301820586,0.0788018580681337
7.8000000000009395,0.09066578073840809,0.0816334806268635
8.000000000001005,0.09290208252758594,0.08458897263021674
8.200000000000895,0.09508189491051916,0.08748496996935395
8.400000000000784,0.09718102291575055,0.09038928866791153
8.600000000000673,0.09933830425810551,0.09335443412345608
8.800000000000562,0.10140699868707426,0.09631413127271965
9.000000000000451,0.10352838307733009,0.09934816501840206
9.20000000000034,0.10556548988645487,0.10237164749600984
9.40000000000023,0.10768898936720446,0.10556164536053557
9.600000000000119,0.1096863841724632,0.10862917037322309
9.800000000000008,0.11162913233475068,0.1116706592875375
10.000999999999896,0.11356872100577894,0.11480403360852495
10.200999999999786,0.11537939681708703,0.11781577187641605
10.400999999999675,0.11727327825454006,0.12106552095755395
10.600999999999564,0.11905222674671731,0.12422601748167239
10.800999999999453,0.12079375979716284,0.12753531936240453
11.000999999999342,0.12229800268180399,0.1305291011710591
11.200999999999231,0.123757666208727,0.133893753633232
11.40099999999912,0.12511955550484893,0.13694433881947762
11.60099999999901,0.12639140795101422,0.14043156216110197
11.800999999998899,0.1275514071681761,0.14366406978121357
12.000999999998788,0.12865116338649213,0.14720521067503656
12.200999999998677,0.12959119828284024,0.1504088877277256
12.400999999998566,0.1303194429582925,0.15380624053296132
12.600999999998455,0.13104020119648363,0.15715534045492924
12.800999999998345,0.13153320212625141,0.16061075126597013
13.000999999998234,0.13200767807423439,0.1640033826006733
13.200999999998123,0.13224520201676457,0.1674909240956639
13.400999999998012,0.13246687008705108,0.17093156608015897
13.600999999997901,0.13247189345800744,0.17423154069949232
13.80099999999779,0.1323821247139253,0.1776669715116914
14.00099999999768,0.13216885335961048,0.1812942507896075
14.200999999997569,0.1318397883327856,0.18493519679471268
14.400999999997458,0.1314045151851554,0.1882826978496965
14.600999999997347,0.13074474113145731,0.1919653482176369
14.800999999997236,0.13004289429376054,0.1956549930509963
15.000999999997125,0.12920422337085952,0.19938046137445822
15.200999999997014,0.12829589818891096,0.20277964058391124
15.400999999996904,0.12721450573565238,0.20635260527242116
15.600999999996793,0.12600536212399222,0.20995361373352056
15.800999999996682,0.12459615071890659,0.21373885504847423
16.000999999996573,0.12315175005788169,0.21751932539946564
16.200999999996817,0.12167150375104789,0.22119438040907288
16.40099999999706,0.11992434482830941,0.22507613362343845
16.600999999997306,0.11813033554776962,0.2288382717339156
16.80099999999755,0.11629422815094258,0.23255937046226363
17.000999999997795,0.11444500852191347,0.23630669357354822
17.20099999999804,0.11232804556297275,0.2402509343683242
17.400999999998284,0.11028706902132428,0.2441126745606954
17.60099999999853,0.10798493000031388,0.24809030625127101
17.800999999998773,0.10576610419775079,0.2519880978555919
18.000999999999017,0.10327737377591156,0.2559835602230423
18.20099999999926,0.10088112273996129,0.25990186735029974
18.400999999999506,0.09835675769380355,0.2636896057777795
18.60099999999975,0.09562239189416069,0.2675303249794565
18.799999999999994,0.09237734954871561,0.27193621590504846
19.000000000000238,0.08932697755511665,0.27604466168164093
19.200000000000482,0.08659351397643902,0.2796662299682179
19.400000000000727,0.08309711784629813,0.2839478299156242
19.60000000000097,0.07983466818871013,0.28787084071396263
19.800000000001216,0.07680064754236986,0.2915040134665253
20.00000000000146,0.07360843953908701,0.29512235974223033
