Time (s),X (m),Y (m)
0.001,-0.0005118051130574269,0.0004359202765531096
0.20000000000000015,0.0008262774812235736,-0.00013714051923691231
0.4000000000000003,0.0014396051259696777,-0.0004520190302697752
0.6000000000000004,0.003089781447155091,-0.0016100081254989578
0.8000000000000006,0.0031997003460025575,-0.0013017638253807935
1.0000000000000007,0.0018181452372167616,-0.0016006431353897412
1.2009999999999785,0.0033872880138092407,-0.0020528295467949612
1.4009999999999565,0.007409416537095004,-0.0033901028097371977
1.6009999999999345,0.010913403867038807,-0.004788567158962513
1.8009999999999124,0.01320422142269063,-0.004756262557581492
2.0009999999998906,0.015863771186653792,-0.005721920834002768
2.2009999999998686,0.021320402607176745,-0.006794792616398671
2.4009999999998466,0.02812089652667323,-0.008940806991995884
2.6009999999998246,0.033927187079099266,-0.008805904052870833
2.8009999999998025,0.03888149788019179,-0.009056789789869733
3.0009999999997805,0.04416916902372377,-0.01072527555154602
3.2009999999997585,0.05219882601694783,-0.013292665080602688
3.4009999999997365,0.059868830387356874,-0.01442159799735269
3.6009999999997144,0.06689541081524106,-0.016438893997418217
3.8009999999996924,0.07381806532918532,-0.01789990831132895
4.000999999999671,0.08075173672817915,-0.018691678399435002
4.200999999999738,0.0907971749108569,-0.02118916939464296
4.400999999999804,0.0960620736797871,-0.022092389041612093
4.600999999999871,0.10243784761854133,-0.023250044382524586
4.800999999999938,0.10961675903515179,-0.025204380436668332
5.000000000000004,0.11595422434101975,-0.028361154512650956
5.200000000000071,0.12600995694248898,-0.03120119217778613
5.400000000000138,0.1309254349589422,-0.03083214335055493
5.600000000000205,0.13698953800418245,-0.03106548214642484
5.800000000000272,0.14571589527579465,-0.033602283784526406
6.000000000000338,0.15395336727250447,-0.03572294590419301
6.200000000000405,0.15973163907697996,-0.036207739554885154
6.400000000000472,0.16782120665686842,-0.038448922547148004
6.600000000000539,0.1775794008208851,-0.042709831079992364
6.800000000000606,0.18768328815899307,-0.04399782234800836
7.000000000000672,0.1985548243014186,-0.04637427013111921
7.200000000000739,0.20779978687288336,-0.050012615936507424
7.400000000000806,0.2179115806164013,-0.05291053490361098
7.600000000000873,0.22767822563214685,-0.05296143475792565
7.8000000000009395,0.23600815215367152,-0.053336484184078346
8.000000000001005,0.2440517594450497,-0.05548182943465541
8.200000000000895,0.2565153237503918,-0.0582797846224338
8.400000000000784,0.2641370857586974,-0.05959134933129703
8.600000000000673,0.27455138980160143,-0.06270104833665917
8.800000000000562,0.28368362364818134,-0.06411309602741204
9.000000000000451,0.29154706497534183,-0.06612072985957564
9.20000000000034,0.3027595604172474,-0.06906484600061152
9.40000000000023,0.3157132331054144,-0.07357381254804335
9.600000000000119,0.3288642409202786,-0.07804846392194084
9.800000000000008,0.3421838720792548,-0.08731482206481388
10.000999999999896,0.3537641941127921,-0.08979361190791964
10.200999999999786,0.36335548116337196,-0.09149793310206954
10.400999999999675,0.3736337395946556,-0.09426993914197984
10.600999999999564,0.38336028446874537,-0.09488392773739043
10.800999999999453,0.393516329151797,-0.09836583164036991
11.000999999999342,0.40294232104482836,-0.10039113534208023
11.200999999999231,0.4126436208405959,-0.10696704018811186
11.40099999999912,0.421325777591376,-0.11367532752044428
11.60099999999901,0.4304997925875036,-0.11543687225012911
11.800999999998899,0.4385596097811269,-0.12098335349515825
12.000999999998788,0.4451669763953758,-0.1248040889567045
12.200999999998677,0.45098511096307803,-0.13059958150599485
12.400999999998566,0.45595422980578376,-0.13461048040938367
12.600999999998455,0.4598649350645136,-0.1415651536840057
12.800999999998345,0.4640281583571848,-0.15109769939886175
13.000999999998234,0.4670998090900909,-0.15879529061982292
13.200999999998123,0.4677393699684381,-0.16759290531962182
13.400999999998012,0.4689351216913518,-0.17501265720113635
13.600999999997901,0.4704936246146688,-0.18379708654002064
13.80099999999779,0.4706187627634761,-0.18999998575387655
14.00099999999768,0.47024443705746877,-0.2005239623154499
14.200999999997569,0.4717709587120714,-0.2091085834348407
14.400999999997458,0.47281456677064887,-0.21818598101404582
14.600999999997347,0.47299765244729863,-0.22532819993992506
14.800999999997236,0.4735296799124368,-0.23355185601347928
15.000999999997125,0.4718677618070899,-0.24282812492352487
15.200999999997014,0.4711430528638876,-0.24915211781363986
15.400999999996904,0.4709655992803086,-0.26012532210680916
15.600999999996793,0.47098428563705125,-0.26909528842016445
15.800999999996682,0.4702862959565121,-0.2788080177065176
16.000999999996573,0.47072409341907634,-0.2909801097038491
16.200999999996817,0.4699017999061719,-0.2995483913240825
16.40099999999706,0.4686918985213437,-0.3117549042958389
16.600999999997306,0.46939356021092793,-0.3215672076570534
16.80099999999755,0.46667821305237583,-0.3338657329470056
17.000999999997795,0.4640805448915728,-0.34464220854584204
17.20099999999804,0.46056999209484895,-0.35696451304014337
17.400999999998284,0.4567637879453973,-0.3691673507005688
17.60099999999853,0.45657750283207676,-0.3812023078327273
17.800999999998773,0.45383035647300884,-0.39333771420487096
18.000999999999017,0.4536046216172004,-0.4049780019275224
18.20099999999926,0.45515783049737957,-0.4145668357013097
18.400999999999506,0.45422804139434314,-0.42471079351167734
18.60099999999975,0.45278367791833785,-0.43814462593157577
18.799999999999994,0.45006037435474167,-0.45102112898517815
19.000000000000238,0.4488543648341189,-0.46126364347852344
19.200000000000482,0.4453143573569189,-0.4747502309920801
19.400000000000727,0.44333810728987116,-0.4861825503884339
19.60000000000097,0.43930838147438284,-0.49917415734636206
19.800000000001216,0.43522432138793005,-0.512282327845364
20.00000000000146,0.43063538658811507,-0.5252528583141884
