Time (s),X (m),Y (m)
0.001,-0.0005732996449108882,0.0002669654388657892
0.20000000000000015,0.002604592123941469,-0.0011837096417127014
0.4000000000000003,0.010036918142939931,-0.00225856515615129
0.6000000000000004,0.024991076424683147,-0.0041612948249828575
0.8000000000000006,0.03662667580577376,-0.009457086321753497
1.0000000000000007,0.04510264847936982,-0.01493101386248532
1.2009999999999785,0.058232292785797064,-0.023438254576831175
1.4009999999999565,0.08267155757818437,-0.041558124584853806
1.6009999999999345,0.10459169341278411,-0.05643379754738169
1.8009999999999124,0.12673218359435792,-0.06256183498077711
2.0009999999998906,0.1487882452644503,-0.07557505559976681
2.2009999999998686,0.1737804295349346,-0.09202533691058432
2.4009999999998466,0.20092279139000196,-0.09487701138477188
2.6009999999998246,0.21797576314408848,-0.1154376308134171
2.8009999999998025,0.22391360141605254,-0.150163541912289
3.0009999999997805,0.21788348166636382,-0.1900495689135883
3.2009999999997585,0.2069585316968734,-0.22464394632910162
3.4009999999997365,0.1851881803003353,-0.26879114949919103
3.6009999999997144,0.15492599532089696,-0.31664358100470885
3.8009999999996924,0.12921405012026227,-0.36000248602842644
4.000999999999671,0.10287412606200906,-0.40163092423252755
4.200999999999738,0.06980513742823796,-0.4453376902289166
4.400999999999804,0.02754055193843029,-0.4907666041963273
4.600999999999871,-0.010223917608831375,-0.5211043568194722
4.800999999999938,-0.03719520272526613,-0.5323425725619619
5.000000000000004,-0.06138955034545788,-0.5320364285327864
5.200000000000071,-0.08843214249562188,-0.5241616903539753
5.400000000000138,-0.12119738644130647,-0.5152713268424078
5.600000000000205,-0.16281808232183367,-0.5008965489246102
5.800000000000272,-0.202609519363497,-0.4878388037716362
6.000000000000338,-0.2466313305326931,-0.4576239871117289
6.200000000000405,-0.2801700357996251,-0.4144876015625738
6.400000000000472,-0.2935985226023572,-0.35672252394230297
6.600000000000539,-0.28581088784841485,-0.29528025844727024
6.800000000000606,-0.2671998696260762,-0.23884134354868045
7.000000000000672,-0.24597889857331795,-0.19224091775423363
7.200000000000739,-0.2167295456010845,-0.13792844534468438
7.400000000000806,-0.18543392439626047,-0.08526415747783882
7.600000000000873,-0.15632489565732757,-0.03244965887024173
7.8000000000009395,-0.12073545574938024,0.02120371754718122
8.000000000001005,-0.08715762859230879,0.07242034760011072
8.200000000000895,-0.06088746662313455,0.1227697823851775
8.400000000000784,-0.03279357521462643,0.17007166434182158
8.600000000000673,0.004234544606403754,0.20938193718374892
8.800000000000562,0.053175648510964096,0.2239661519287997
9.000000000000451,0.10399799319126321,0.2172726183673227
9.20000000000034,0.15937377349737805,0.19957319630671888
9.40000000000023,0.22111364897776206,0.16907929388099446
9.600000000000119,0.28120660489194277,0.13265211798093945
9.800000000000008,0.3329179861965108,0.10730508044588266
10.000999999999896,0.36708555829524536,0.08246099549957374
10.200999999999786,0.3762991530254212,0.039803418312271695
10.400999999999675,0.37313135755731347,0.0016040473669631772
10.600999999999564,0.3590950347407034,-0.04122665406699217
10.800999999999453,0.3240422034125254,-0.10406874416043424
11.000999999999342,0.2874932893815373,-0.17233440721427998
11.200999999999231,0.2551880031075928,-0.24073114965126527
11.40099999999912,0.2188640601323857,-0.30552247988265496
11.60099999999901,0.17660487944396816,-0.367448281418427
11.800999999998899,0.12944235585638378,-0.42669891972767116
12.000999999998788,0.08347336857157374,-0.4821623371240551
12.200999999998677,0.038997460958029646,-0.5328179349926161
12.400999999998566,-0.01610495811611685,-0.5709317364229441
12.600999999998455,-0.0703222441484494,-0.5832054587063632
12.800999999998345,-0.12299857221839787,-0.5732629658535857
13.000999999998234,-0.17634426708357193,-0.5556401212401754
13.200999999998123,-0.23099767205506697,-0.53151986265823
13.400999999998012,-0.2894243585125651,-0.49815624756087795
13.600999999997901,-0.34898469055579334,-0.4560477855298873
13.80099999999779,-0.40760071404899073,-0.4017912341645887
14.00099999999768,-0.4494179365523779,-0.35147688103326336
14.200999999997569,-0.4653261885797526,-0.30126394600762246
14.400999999997458,-0.45902883264485433,-0.24036059975849192
14.600999999997347,-0.4380146989115713,-0.17752291134601453
14.800999999997236,-0.4057333321955074,-0.11447441629384081
15.000999999997125,-0.3606615103474108,-0.039586684273178616
15.200999999997014,-0.3160155332225062,0.03600746061563615
15.400999999996904,-0.2721506907874954,0.11129398548680844
15.600999999996793,-0.23291926633648377,0.18640161576669428
15.800999999996682,-0.19881800124848725,0.2554722251026833
16.000999999996573,-0.17034494312171441,0.31574251597556546
16.200999999996817,-0.13455878869904636,0.3786024681306854
16.40099999999706,-0.09782236872429352,0.4432075045431867
16.600999999997306,-0.06465593402501005,0.5092614620845702
16.80099999999755,-0.04050583673605063,0.5740159879940026
17.000999999997795,-0.00013864276418206674,0.6317177131207331
17.20099999999804,0.044672720585190714,0.6776279498030489
17.400999999998284,0.09516799036838314,0.6997600168259346
17.60099999999853,0.15785320202182374,0.694558292946606
17.800999999998773,0.2220129790458518,0.6708901735593085
18.000999999999017,0.2836084993843967,0.6408896040312081
18.20099999999926,0.3448894631346811,0.6034817337697674
18.400999999999506,0.38843315113133225,0.5591756291541048
18.60099999999975,0.40424927862954974,0.5103186400109481
18.799999999999994,0.3999257924444272,0.4594888114733255
19.000000000000238,0.3870698860346206,0.4110987813542289
19.200000000000482,0.36323530891711436,0.3546654830441495
19.400000000000727,0.33195212460970513,0.2901600011939355
19.60000000000097,0.29501296025232826,0.21392759197063516
19.800000000001216,0.2631903059301684,0.1428707610622338
20.00000000000146,0.2208448058146227,0.08534689623737855
