Time (s),X (m),Y (m)
0.001,-0.00016860096042250976,-0.0008449350584490231
0.20000000000000015,0.0017972321858800056,0.0008985189172707639
0.4000000000000003,0.00611573805509827,0.0044221276987740435
0.6000000000000004,0.011465905377471754,0.009037562337356416
0.8000000000000006,0.014871008194458054,0.004862945019164303
1.0000000000000007,0.01819475918001905,-0.00019108579663364977
1.2009999999999785,0.02942578798962314,0.0013148658527827259
1.4009999999999565,0.04059928153258666,0.003286432035379835
1.6009999999999345,0.056801784907456764,-0.0009970113519109226
1.8009999999999124,0.07129364843405116,-0.003463014990157324
2.0009999999998906,0.08335601852039164,-0.0046472260711722885
2.2009999999998686,0.097703170873764,0.0029293548224956917
2.4009999999998466,0.11632363348239316,0.015602108581517634
2.6009999999998246,0.13354988848361657,0.02830475500884904
2.8009999999998025,0.1469676692390856,0.04099687109633801
3.0009999999997805,0.15985110616251372,0.06321000266384978
3.2009999999997585,0.17681875514889267,0.07930359480920242
3.4009999999997365,0.1950275758512026,0.08754781652258975
3.6009999999997144,0.21390372098674124,0.10865823261497852
3.8009999999996924,0.23257580984020496,0.132618441371921
4.000999999999671,0.24916802995003864,0.1448098740855041
4.200999999999738,0.26590209295943174,0.14646614566200272
4.400999999999804,0.2848515404980006,0.1510027589103787
4.600999999999871,0.30298500631300346,0.1606199893952811
4.800999999999938,0.3220990547366107,0.16913270966456692
5.000000000000004,0.3388065742604976,0.16923905422311167
5.200000000000071,0.3553066492238511,0.18112404751900027
5.400000000000138,0.3727351097946568,0.20308112604199877
5.600000000000205,0.39662770457286817,0.2328520952616144
5.800000000000272,0.4227325505018107,0.25353808771908865
6.000000000000338,0.4549821670564974,0.27020511162647304
6.200000000000405,0.48313113419008796,0.28404824521203204
6.400000000000472,0.5054677995159602,0.30242797281104344
6.600000000000539,0.5275158073667903,0.3150789503714208
6.800000000000606,0.5508195093948319,0.32385691633690294
7.000000000000672,0.5764539343704413,0.33455032273060165
7.200000000000739,0.6014200987138071,0.3491729531569753
7.400000000000806,0.630459232478054,0.3703830228809957
7.600000000000873,0.6643887437493488,0.3990566106448708
7.8000000000009395,0.6959667193873629,0.43173870472726383
8.000000000001005,0.7227327682176533,0.4637171055274564
8.200000000000895,0.7494656562872288,0.49326788585770504
8.400000000000784,0.7662887603951731,0.5300127624600937
8.600000000000673,0.7825590878492075,0.5591176885832922
8.800000000000562,0.8026625297097362,0.5834312519816458
9.000000000000451,0.8207473690763009,0.6114951655410036
9.20000000000034,0.8259958780854795,0.6398304010058875
9.40000000000023,0.8267801477902149,0.6720183053966196
9.600000000000119,0.8313332373826401,0.6968149645511581
9.800000000000008,0.8334541493473931,0.719050060026435
10.000999999999896,0.8403854896267751,0.73881606768037
10.200999999999786,0.8548531521823858,0.7694493380145581
10.400999999999675,0.8707348044229408,0.8081871582967428
10.600999999999564,0.8844704538383813,0.8325856948285387
10.800999999999453,0.9039923020356938,0.8472054136096718
11.000999999999342,0.9289793281763709,0.8678694383467133
11.200999999999231,0.9589737871125735,0.8980336793535383
11.40099999999912,0.9837790849483113,0.927138679642121
11.60099999999901,1.0002719074712738,0.9646410370236743
11.800999999998899,1.0139330835842244,1.0017769395719303
12.000999999998788,1.0253209698699914,1.0491545351212088
12.200999999998677,1.0420894834992194,1.0850497803809813
12.400999999998566,1.0638102549675927,1.1188999309253684
12.600999999998455,1.0882554552233168,1.145172312725332
12.800999999998345,1.11364643049011,1.1729203590926174
13.000999999998234,1.1317977712598766,1.2075496964654127
13.200999999998123,1.1456648227015431,1.2350551967882086
13.400999999998012,1.172383350711962,1.2665471634365622
13.600999999997901,1.202494164570468,1.288475557218817
13.80099999999779,1.2365641942878167,1.3194185452231302
14.00099999999768,1.2753198841816622,1.346529645482374
14.200999999997569,1.314210350109002,1.3740010762789943
14.400999999997458,1.3511948339726643,1.3986122523861657
14.600999999997347,1.3896298821225652,1.419630647827527
14.800999999997236,1.4258557068159674,1.4423557274860113
15.000999999997125,1.4563514249688587,1.4688688548450834
15.200999999997014,1.4878322098259391,1.5012010244954486
15.400999999996904,1.5201316321518334,1.5298621873579925
15.600999999996793,1.5542609775778242,1.5535804057884832
15.800999999996682,1.5932810225273533,1.5797026269332075
16.000999999996573,1.6328515159490644,1.6021522985183376
16.200999999996817,1.669350513838627,1.6301296358848834
16.40099999999706,1.7083751825172249,1.6547795865772514
16.600999999997306,1.7468950742297116,1.688511953936467
16.80099999999755,1.78921254990608,1.7316741941949052
17.000999999997795,1.8326268982807725,1.7531098089706316
17.20099999999804,1.8692464389808554,1.7708905406081359
17.400999999998284,1.9027161086258533,1.786657946427936
17.60099999999853,1.9293175962166467,1.8171252704617549
17.800999999998773,1.9517349369732162,1.855411198283349
18.000999999999017,1.9715817342429791,1.88909603120651
18.20099999999926,1.9866766624123764,1.9176861678670802
18.400999999999506,2.0004180197088908,1.9521107507849147
18.60099999999975,2.0118893325293348,1.992436109119283
18.799999999999994,2.0226248428997446,2.0270708868531897
19.000000000000238,2.035200784140047,2.0572058211687985
19.200000000000482,2.049624547262176,2.092046614921057
19.400000000000727,2.05811355880837,2.132828667557326
19.60000000000097,2.0629383276670206,2.1721568024096576
19.800000000001216,2.077456464431077,2.2135661272894005
20.00000000000146,2.09141406363084,2.2544772118123264
