Time (s),X (m),Y (m)
0.001,0.00024391513958915793,0.0010158048217711127
0.20000000000000015,0.0012216717900587586,-0.001380294788228575
0.4000000000000003,0.00432177943658021,0.0005903640329319479
0.6000000000000004,0.012404002171743268,-0.01182915657503468
0.8000000000000006,0.026519445641000092,-0.018169044009483982
1.0000000000000007,0.044234863998972085,-0.016262126501043094
1.2009999999999785,0.06058363431562627,-0.016651254654942632
1.4009999999999565,0.08359135587604377,-0.017544735300356017
1.6009999999999345,0.10674291510632085,-0.031308998954774576
1.8009999999999124,0.13476756573776782,-0.0398208362841821
2.0009999999998906,0.16168154895359016,-0.05092294287600263
2.2009999999998686,0.1923083101678576,-0.05967544054947221
2.4009999999998466,0.21588695955353787,-0.07452907751781733
2.6009999999998246,0.2461227416480402,-0.08375678502060784
2.8009999999998025,0.283161896454119,-0.09461541995111455
3.0009999999997805,0.30564309862242683,-0.11524741788635263
3.2009999999997585,0.3155514081255904,-0.14152172558405865
3.4009999999997365,0.3284228255879112,-0.1714450887461787
3.6009999999997144,0.331323252952899,-0.20440859140200884
3.8009999999996924,0.340330642193742,-0.23300999550849066
4.000999999999671,0.3358672875460211,-0.2597705021933413
4.200999999999738,0.32375389667008897,-0.28550390768738293
4.400999999999804,0.30930046081032697,-0.31147848979242665
4.600999999999871,0.2912639798963798,-0.3404605312600088
4.800999999999938,0.26423562936094425,-0.37015728572536727
5.000000000000004,0.2522011021026818,-0.4037446723667079
5.200000000000071,0.23188993787142473,-0.4350102435363849
5.400000000000138,0.20801239746009897,-0.46455688149609103
5.600000000000205,0.18823814153171942,-0.49601097023438495
5.800000000000272,0.1705430881592806,-0.5376908111505542
6.000000000000338,0.1463430746680488,-0.5707415664599185
6.200000000000405,0.11410491242785066,-0.5971445245862737
6.400000000000472,0.07624612300362978,-0.6002715051393201
6.600000000000539,0.04199957411352252,-0.5872950339546155
6.800000000000606,0.012643045506571976,-0.5651567087071685
7.000000000000672,-0.005044392649880091,-0.5287847103671615
7.200000000000739,-0.026729196103027004,-0.4935581691733985
7.400000000000806,-0.060186960326021624,-0.4689146431069887
7.600000000000873,-0.09944696425660574,-0.444300036126771
7.8000000000009395,-0.12414929381053462,-0.41064017295327865
8.000000000001005,-0.1409874899244228,-0.3734867121179583
8.200000000000895,-0.12729949375287875,-0.32941431794767567
8.400000000000784,-0.11116903524212535,-0.2852531763124525
8.600000000000673,-0.09809195524236469,-0.2427288239319698
8.800000000000562,-0.07943298400676241,-0.20432657853406522
9.000000000000451,-0.05421797859134434,-0.17378176394977018
9.20000000000034,-0.019705678562659507,-0.16211043114380955
9.40000000000023,0.023316463161181415,-0.16105330043723698
9.600000000000119,0.07448902537760682,-0.1566864884498327
9.800000000000008,0.12658737344468704,-0.15448172393270063
10.000999999999896,0.17600734941599827,-0.16052927940868197
10.200999999999786,0.22312557540992703,-0.16808362617090514
10.400999999999675,0.2658304774608506,-0.17745465837501379
10.600999999999564,0.3036477819488644,-0.19211831292625053
10.800999999999453,0.33566667994924493,-0.21360206982698604
11.000999999999342,0.3671978354081768,-0.24214129479002564
11.200999999999231,0.3876893356578708,-0.2793193485914051
11.40099999999912,0.4107953975001358,-0.3242671188923028
11.60099999999901,0.4188840188181149,-0.37175599834758355
11.800999999998899,0.4167037507173617,-0.4195675611926822
12.000999999998788,0.39945977086035084,-0.4633951239033029
12.200999999998677,0.3741223703202101,-0.4998042141918252
12.400999999998566,0.35225997164385914,-0.533632767461577
12.600999999998455,0.32301688096172576,-0.565931616832519
12.800999999998345,0.28467143508071574,-0.5926808235658444
13.000999999998234,0.24695507909961883,-0.6252961991105715
13.200999999998123,0.20634032957263373,-0.6462712100886429
13.400999999998012,0.16169753476946003,-0.6610239144324894
13.600999999997901,0.1181884768224453,-0.6529110772333167
13.80099999999779,0.09321105016147754,-0.6286566586506063
14.00099999999768,0.07596803952360953,-0.5976191326437517
14.200999999997569,0.07180294188514307,-0.5593283436670147
14.400999999997458,0.08076830227205813,-0.5209067585663003
14.600999999997347,0.10562217911999347,-0.4900247268410334
14.800999999997236,0.1267033902499438,-0.4544871456087956
15.000999999997125,0.15011275999770557,-0.4132666181766179
15.200999999997014,0.18039736198378592,-0.37664868278666025
15.400999999996904,0.2194954283716603,-0.35110132870091626
15.600999999996793,0.27065331562174155,-0.33109035973219714
15.800999999996682,0.3225343230134149,-0.33625194507398615
16.000999999996573,0.37322343523177637,-0.3504815244687462
16.200999999996817,0.42336580239884253,-0.3651352149107232
16.40099999999706,0.4749458629503657,-0.37966359624646234
16.600999999997306,0.5155968484478906,-0.4137005409555856
16.80099999999755,0.5547534080079308,-0.4497893484885462
17.000999999997795,0.5883782627973553,-0.4892321785809058
17.20099999999804,0.6194510357467308,-0.5323837639433341
17.400999999998284,0.6470110409548798,-0.5750407357223054
17.60099999999853,0.6393326917682356,-0.622787502652724
17.800999999998773,0.6412061014199288,-0.6786930448858008
18.000999999999017,0.6447697577675124,-0.7417933880400068
18.20099999999926,0.6359729233986507,-0.798209617263703
18.400999999999506,0.6283655254756456,-0.8530298254057859
18.60099999999975,0.6085801656142001,-0.9027948905327564
18.799999999999994,0.582162466330085,-0.9445726638168311
19.000000000000238,0.5557224479719257,-0.9812289654130264
19.200000000000482,0.5227784056154617,-1.0181887507753313
19.400000000000727,0.49364451900360473,-1.0586216023414619
19.60000000000097,0.4593995748423344,-1.0975204287274005
19.800000000001216,0.4272853102170895,-1.1386111196188122
20.00000000000146,0.38932955998917157,-1.181112228110876
