Time (s),X (m),Y (m)
0.001,-0.000592775884969954,0.00017911379721200063
0.20000000000000015,0.0008283604813348003,-0.00011472042054121792
0.4000000000000003,0.001740159138915098,-0.00044325981238312767
0.6000000000000004,0.0038985333508528243,-0.0007772415000558965
0.8000000000000006,0.002653629358307068,-0.0010771911096604245
1.0000000000000007,0.004513340901657751,-0.0011129510929399108
1.2009999999999785,0.00861370721338004,-0.001777191236335338
1.4009999999999565,0.011664278274052413,-0.0027402976173613366
1.6009999999999345,0.015829172666629938,-0.003972608640328567
1.8009999999999124,0.019755493068722426,-0.005530431293065659
2.0009999999998906,0.022549520118900386,-0.009270888711567874
2.2009999999998686,0.02984209259012899,-0.012114348092588906
2.4009999999998466,0.034985502151927,-0.014521182741901659
2.6009999999998246,0.040409827501705034,-0.01665359314543639
2.8009999999998025,0.046589578401738406,-0.018486652765428387
3.0009999999997805,0.05166929063787576,-0.0211220681589024
3.2009999999997585,0.058612955255191744,-0.024291296690906867
3.4009999999997365,0.06622602925125748,-0.02828015582037771
3.6009999999997144,0.07192571923826267,-0.030448822432252557
3.8009999999996924,0.07596361583970611,-0.03335966888217363
4.000999999999671,0.07919612231002243,-0.03450060665322766
4.200999999999738,0.08537433017224748,-0.036247898447960065
4.400999999999804,0.08838927404056296,-0.03782445849545153
4.600999999999871,0.09604319847129912,-0.03951692465248335
4.800999999999938,0.10220624350255034,-0.04137368928361068
5.000000000000004,0.10765148984583904,-0.04382337617637852
5.200000000000071,0.11424730674501143,-0.04628696125903777
5.400000000000138,0.12218938561826635,-0.04907746825733857
5.600000000000205,0.1293860327317168,-0.05226414367240782
5.800000000000272,0.13834855562616263,-0.056894167064389364
6.000000000000338,0.14716457870017807,-0.061326681531040685
6.200000000000405,0.15659095668577686,-0.0661658294905207
6.400000000000472,0.16479910058236868,-0.07082703972879367
6.600000000000539,0.1754685956139902,-0.0762246454092788
6.800000000000606,0.18482895575530853,-0.08051031641085925
7.000000000000672,0.19356283703417693,-0.0840673652210893
7.200000000000739,0.20443233146575351,-0.0893023871463748
7.400000000000806,0.2113752776816284,-0.09390869981321627
7.600000000000873,0.22019126570267572,-0.0962089640087966
7.8000000000009395,0.23072056787967887,-0.10146113487538633
8.000000000001005,0.23955885182129225,-0.10630143115085404
8.200000000000895,0.2484746053435381,-0.11144301960954868
8.400000000000784,0.25696306651604117,-0.11519327720781428
8.600000000000673,0.2672118252453933,-0.12018825121234658
8.800000000000562,0.277884567841477,-0.12725274359498254
9.000000000000451,0.288242468126739,-0.13079297392927233
9.20000000000034,0.29582271341283484,-0.1350605752989401
9.40000000000023,0.3069158174562889,-0.1420312330666447
9.600000000000119,0.3177155574068045,-0.14763449470098297
9.800000000000008,0.32656019909775985,-0.15266227668456855
10.000999999999896,0.33465657404043325,-0.15844641150125963
10.200999999999786,0.3429106925691591,-0.16236604544738403
10.400999999999675,0.3493335281120113,-0.16505117927992383
10.600999999999564,0.353878449117868,-0.16769150043833927
10.800999999999453,0.35799600526909237,-0.16958402062588626
11.000999999999342,0.3614001048135893,-0.1715619856973684
11.200999999999231,0.36375532235537866,-0.17713772620659854
11.40099999999912,0.3641819082251581,-0.18233898814361968
11.60099999999901,0.3658783849652764,-0.188188033299398
11.800999999998899,0.3670140372110268,-0.1969689041445974
12.000999999998788,0.3660951366041088,-0.2061314520110905
12.200999999998677,0.36570022048917167,-0.21498024058313459
12.400999999998566,0.3644043740676857,-0.22233632123842187
12.600999999998455,0.3641569377730973,-0.2287587344494425
12.800999999998345,0.36164337723705114,-0.23490624093782558
13.000999999998234,0.36081087726212585,-0.24533442606202474
13.200999999998123,0.35932900931621425,-0.2535572582592531
13.400999999998012,0.35480134381745715,-0.26573089775197606
13.600999999997901,0.350363406934894,-0.2782555207482627
13.80099999999779,0.34606044265442487,-0.28954280045020553
14.00099999999768,0.34087445177439685,-0.3030168340665281
14.200999999997569,0.33798673998187484,-0.3150145394814553
14.400999999997458,0.33288701053858294,-0.3244012257436538
14.600999999997347,0.3279604837785179,-0.3343677888084108
14.800999999997236,0.32382515366202946,-0.34333338276457376
15.000999999997125,0.3197191893721033,-0.35318897442343994
15.200999999997014,0.31207129668827704,-0.3632645691290716
15.400999999996904,0.30621593934578445,-0.373130865814986
15.600999999996793,0.30180496599214546,-0.38470874619449014
15.800999999996682,0.2984093358503917,-0.39305320820543393
16.000999999996573,0.2924784564868575,-0.4034402960574558
16.200999999996817,0.28973400619610146,-0.41254645124112144
16.40099999999706,0.28485687208519106,-0.4243007719784634
16.600999999997306,0.27929970912273233,-0.43591060994195646
16.80099999999755,0.2747137229126413,-0.44299199503139364
17.000999999997795,0.2728824025150616,-0.452647427247954
17.20099999999804,0.26833308576166726,-0.4621350112402971
17.400999999998284,0.2619915759904743,-0.4740738833573365
17.60099999999853,0.2550972986509928,-0.4858396579153085
17.800999999998773,0.24689490813837814,-0.49656666222146745
18.000999999999017,0.2399598195808515,-0.5076766571176802
18.20099999999926,0.23623868413909818,-0.517381843074681
18.400999999999506,0.22821497828731374,-0.5278081483161664
18.60099999999975,0.2225374806176786,-0.5359141692611441
18.799999999999994,0.21643744223988992,-0.5443427730241138
19.000000000000238,0.21173984097330328,-0.5508664300604803
19.200000000000482,0.2072127671050004,-0.5543666767571016
19.400000000000727,0.20052219937635538,-0.5591471614255289
19.60000000000097,0.1946764920698304,-0.5621685462989869
19.800000000001216,0.1919952702522472,-0.5621828291622798
20.00000000000146,0.18611741964654124,-0.5633276700211562
