Time (s),X (m),Y (m)
0.001,-0.0004702548317818469,0.0005157376242541224
0.20000000000000015,0.0014850335061907343,-0.0010084872785238387
0.4000000000000003,-0.0056803150098808045,0.0025249069681411314
0.6000000000000004,-0.00183882059448497,0.0017827386556124652
0.8000000000000006,0.011986518121150164,0.0010994748325012928
1.0000000000000007,0.0346425548994214,-0.003747290384869148
1.2009999999999785,0.04844493379351369,-0.007088217483456909
1.4009999999999565,0.06126184453257398,-0.009837583358898967
1.6009999999999345,0.09425057542467773,-0.018431665992810327
1.8009999999999124,0.1296250738735903,-0.030361348932714347
2.0009999999998906,0.15854740949254936,-0.050466883462395536
2.2009999999998686,0.18987668843578703,-0.0651781228512631
2.4009999999998466,0.21887672800467647,-0.07782880130771387
2.6009999999998246,0.2424464480945637,-0.08468892709631878
2.8009999999998025,0.2685377212333894,-0.09165111868778866
3.0009999999997805,0.3048552973044185,-0.11001142437056055
3.2009999999997585,0.3412277814878547,-0.1338613505539032
3.4009999999997365,0.3754886451207716,-0.15443571248986135
3.6009999999997144,0.4068748039400764,-0.17833734219570735
3.8009999999996924,0.4402109368237387,-0.21132558853474778
4.000999999999671,0.4740286483691397,-0.23601555714234332
4.200999999999738,0.5065858417740173,-0.2619525165071482
4.400999999999804,0.5294194256444424,-0.3055762933522998
4.600999999999871,0.5356501218066857,-0.35117904958928303
4.800999999999938,0.5264527608879037,-0.3979687246932185
5.000000000000004,0.5130951911668106,-0.44780756948172606
5.200000000000071,0.49125710793379995,-0.5052676240926617
5.400000000000138,0.4688434918254464,-0.5635222323498307
5.600000000000205,0.4447569170553089,-0.6185270411130601
5.800000000000272,0.4231918223798025,-0.67068028583407
6.000000000000338,0.39712429494155327,-0.7228607182134801
6.200000000000405,0.3698789099232295,-0.7715587713297016
6.400000000000472,0.3415945642308486,-0.822189564302417
6.600000000000539,0.31924078693903274,-0.8713051802768671
6.800000000000606,0.30554935633358327,-0.9169936361509095
7.000000000000672,0.287209956654455,-0.9633615817915858
7.200000000000739,0.27467493393007475,-1.0118031171077988
7.400000000000806,0.25416899177837093,-1.064092302768463
7.600000000000873,0.2342119181466864,-1.115813068933896
7.8000000000009395,0.2147641294256818,-1.1650529760250607
8.000000000001005,0.17833420399336156,-1.2146124910370253
8.200000000000895,0.14598850345541964,-1.2632588147619592
8.400000000000784,0.1079724405064229,-1.2996441472538838
8.600000000000673,0.06633711406025304,-1.3133151910635672
8.800000000000562,0.02195191899527413,-1.3032852833019637
9.000000000000451,-0.021240307336500786,-1.2897529225994184
9.20000000000034,-0.06410018661648835,-1.2819413792680583
9.40000000000023,-0.11254350847708228,-1.2655423649526225
9.600000000000119,-0.1579584039130267,-1.2338296935332826
9.800000000000008,-0.19148171733054362,-1.1960804781208474
10.000999999999896,-0.21362386456015847,-1.1501123685688912
10.200999999999786,-0.22290017073181606,-1.11202839222895
10.400999999999675,-0.22015791181609903,-1.0660437808322694
10.600999999999564,-0.20130610724653933,-1.01899185865093
10.800999999999453,-0.16871473955677704,-0.9673982572388223
11.000999999999342,-0.12205338024369901,-0.9334951508534292
11.200999999999231,-0.07138062034215939,-0.9187140955310987
11.40099999999912,-0.02757871196076067,-0.9152227247809608
11.60099999999901,0.019229450487556143,-0.9178467272283293
11.800999999998899,0.06971153660285116,-0.9255182912586448
12.000999999998788,0.13071387697978568,-0.9386184544513053
12.200999999998677,0.18053103505685528,-0.9499949981677216
12.400999999998566,0.24038015626263387,-0.9681866581878589
12.600999999998455,0.304556011125861,-0.992066598291481
12.800999999998345,0.36305325623697016,-1.008254005463591
13.000999999998234,0.42572103151112645,-1.0298430882770693
13.200999999998123,0.4855790422033548,-1.0508003580858438
13.400999999998012,0.5398519332845804,-1.0677826699098123
13.600999999997901,0.590604149010107,-1.0806595223656381
13.80099999999779,0.6389201812603237,-1.0960630262723097
14.00099999999768,0.6934082347594249,-1.1212735345051807
14.200999999997569,0.7511241608766412,-1.169665299515106
14.400999999997458,0.790594137296095,-1.213637718467847
14.600999999997347,0.8084081579859067,-1.2569007484847907
14.800999999997236,0.8138525635124935,-1.2938887151474743
15.000999999997125,0.803581874447871,-1.3347810366761925
15.200999999997014,0.7932305459393816,-1.3896360689688179
15.400999999996904,0.782609869275664,-1.4477677195445167
15.600999999996793,0.7581406458537416,-1.5042449022941307
15.800999999996682,0.7194240549702452,-1.5568634702727249
16.000999999996573,0.6835019925229648,-1.5953660296676824
16.200999999996817,0.6435524830037289,-1.620292439262452
16.40099999999706,0.5898559035995747,-1.6293145009623755
16.600999999997306,0.5303472420577297,-1.6165802857737588
16.80099999999755,0.4727019673510841,-1.6023710547960186
17.000999999997795,0.4163299295457389,-1.5748541526870776
17.20099999999804,0.3777341854224581,-1.5374991433386063
17.400999999998284,0.3655456713880555,-1.4992253431850961
17.60099999999853,0.3704500084690019,-1.4606936017586387
17.800999999998773,0.3844300285568226,-1.4137032922070962
18.000999999999017,0.4034032219823281,-1.35330020616946
18.20099999999926,0.4258200961602596,-1.2864315668549624
18.400999999999506,0.459308590174854,-1.2193599492877838
18.60099999999975,0.489094418685623,-1.1564570568894428
18.799999999999994,0.5375133366514054,-1.1141590833163253
19.000000000000238,0.5988228746331938,-1.0907875856213896
19.200000000000482,0.6549705200182875,-1.086252935209423
19.400000000000727,0.714826903908999,-1.096906346000104
19.60000000000097,0.7703526136681794,-1.1116179511985227
19.800000000001216,0.8233736998506286,-1.1347724068819702
20.00000000000146,0.8758051510647512,-1.1568230071590317
