Time (s),X (m),Y (m)
0.001,-0.00060452123697562,-8.989899140956103e-05
0.20000000000000015,0.0008492266161694946,-8.6819467028002e-05
0.4000000000000003,0.0016272938463711359,0.0001966700609339561
0.6000000000000004,0.00330425500682706,0.0011567011671627016
0.8000000000000006,0.007371447009879246,0.002953155029033902
1.0000000000000007,0.010107547715730887,0.005472644009575612
1.2009999999999785,0.012791975333684088,0.006632726014701284
1.4009999999999565,0.015539369242359866,0.005183877503650489
1.6009999999999345,0.01850686314531466,0.004738707214272231
1.8009999999999124,0.01955601333322089,0.004611170476073474
2.0009999999998906,0.02091220571902377,0.00536594838312425
2.2009999999998686,0.026389148436656646,0.005435049357759212
2.4009999999998466,0.02687125654762697,0.005843592916989497
2.6009999999998246,0.03211504337877978,0.006871344871366765
2.8009999999998025,0.03519328642568216,0.008224731975906925
3.0009999999997805,0.03587074900190517,0.007707108416298842
3.2009999999997585,0.037443395566494654,0.007755930514392384
3.4009999999997365,0.04718627435786879,0.009076450152154832
3.6009999999997144,0.056275766801150776,0.007454831872209869
3.8009999999996924,0.06118836515387483,0.009057065973494765
4.000999999999671,0.07039639623283929,0.005970545853140157
4.200999999999738,0.07868148943081982,0.003206826987645788
4.400999999999804,0.08799836807145386,0.0009659967327637628
4.600999999999871,0.09640157226124141,-0.0009692895100279962
4.800999999999938,0.10120440839023986,-0.0056537036420472786
5.000000000000004,0.10197736808046952,-0.00804138320278909
5.200000000000071,0.10529073323797651,-0.009356780575399393
5.400000000000138,0.11030790500630455,-0.011759618368165513
5.600000000000205,0.11597077396941138,-0.015118848757675763
5.800000000000272,0.12193309075388536,-0.015384913072300593
6.000000000000338,0.13005897154244855,-0.01881734753958012
6.200000000000405,0.1351874669984566,-0.021883380108913147
6.400000000000472,0.14037869279206996,-0.024343025119563315
6.600000000000539,0.15096605291166681,-0.02748933158583184
6.800000000000606,0.16284272498970753,-0.03334647114543407
7.000000000000672,0.17224183666825063,-0.03885313790110063
7.200000000000739,0.18011644886033548,-0.043090522141023664
7.400000000000806,0.1821961751883792,-0.04624373585387523
7.600000000000873,0.18990096497907802,-0.049765241673588034
7.8000000000009395,0.195930367650654,-0.052716367910147215
8.000000000001005,0.2062452564152953,-0.057299051129337225
8.200000000000895,0.21223811836987702,-0.06324866509222016
8.400000000000784,0.2233782611908993,-0.06924562212351519
8.600000000000673,0.22709996819344178,-0.07363827424726928
8.800000000000562,0.23640656883722203,-0.07918821870743042
9.000000000000451,0.24572079289016313,-0.08521552278487837
9.20000000000034,0.2531452579265386,-0.08902698273801107
9.40000000000023,0.2613603244931373,-0.09442101628276253
9.600000000000119,0.2668341855838833,-0.0986757475372699
9.800000000000008,0.27394455536145557,-0.1025486566859189
10.000999999999896,0.27841331632866506,-0.10667493382138896
10.200999999999786,0.2861485002884825,-0.11117333090169128
10.400999999999675,0.2914187985665733,-0.11530679692865717
10.600999999999564,0.2960767720244507,-0.11832124929018208
10.800999999999453,0.30559226793164557,-0.12102570676874394
11.000999999999342,0.3119704900760758,-0.12514286016672407
11.200999999999231,0.31749194520369195,-0.1295305719407988
11.40099999999912,0.32379086518198863,-0.1327485674024786
11.60099999999901,0.33025570146885075,-0.13719206943060425
11.800999999998899,0.33736289827135524,-0.1423384544956426
12.000999999998788,0.3426294366887599,-0.14699742255715853
12.200999999998677,0.35832518981103473,-0.1530018113650369
12.400999999998566,0.37299307299643125,-0.15908527114618884
12.600999999998455,0.3802139346662615,-0.16301261894567592
12.800999999998345,0.38897101724591887,-0.1681235084765971
13.000999999998234,0.3939626007303843,-0.17306089674445985
13.200999999998123,0.406409369880069,-0.1765977105386088
13.400999999998012,0.4146381565276899,-0.1832803848023386
13.600999999997901,0.4212501538424442,-0.18697537543085319
13.80099999999779,0.42304803037842076,-0.18858193597241132
14.00099999999768,0.4249472971668135,-0.1924436390354897
14.200999999997569,0.4319974958152598,-0.1952619411523609
14.400999999997458,0.43989332019632893,-0.19839530164385005
14.600999999997347,0.4415799274105292,-0.20156546235989434
14.800999999997236,0.4451440228781518,-0.20555734831053127
15.000999999997125,0.45014626604049046,-0.20905190018130723
15.200999999997014,0.4546463583235021,-0.21271071041390405
15.400999999996904,0.4646588249013928,-0.21558279539773081
15.600999999996793,0.4759870063005674,-0.21931936258825455
15.800999999996682,0.4919518589551573,-0.22647470728325703
16.000999999996573,0.49816839379698674,-0.2315187025091084
16.200999999996817,0.5061389894075006,-0.23610297252967663
16.40099999999706,0.513094521941674,-0.2420329575452035
16.600999999997306,0.5202756894252848,-0.2482950096417909
16.80099999999755,0.5275859053514007,-0.25286437994471556
17.000999999997795,0.5322525536881363,-0.2571012903983062
17.20099999999804,0.5369071570358406,-0.2613560683641796
17.400999999998284,0.5441848615924182,-0.26524545221851364
17.60099999999853,0.5565035550425121,-0.2688492517134983
17.800999999998773,0.5728033628668656,-0.2742430799805071
18.000999999999017,0.584185468760677,-0.28075781617363715
18.20099999999926,0.5945350734287177,-0.2872992721044515
18.400999999999506,0.6005306610275853,-0.2921500621787029
18.60099999999975,0.6097608651205814,-0.29743290605806355
18.799999999999994,0.6172707500344653,-0.30274085917193483
19.000000000000238,0.6270061615337748,-0.3062878194784392
19.200000000000482,0.6314526089259102,-0.31081641258215004
19.400000000000727,0.6393932979206622,-0.31503951661897406
19.60000000000097,0.6506865882699561,-0.31849961043346053
19.800000000001216,0.6546432150647092,-0.3233172812091056
20.00000000000146,0.6612535364043908,-0.3302206499524122
