Time (s),X (m),Y (m)
0.001,0.00015606349793537,0.0009963285817120476
0.20000000000000015,0.0015274454592554391,-0.0009824485276743486
0.4000000000000003,0.006772157089280631,-0.0010031004454260277
0.6000000000000004,0.015541033038368618,-0.001070400821395564
0.8000000000000006,0.02800061009856085,-0.013239692041371149
1.0000000000000007,0.04653982422171943,-0.03898160207779763
1.2009999999999785,0.06968292771957328,-0.051858097923144
1.4009999999999565,0.08076241025832757,-0.08075245380373276
1.6009999999999345,0.09504137336959614,-0.10759613744195826
1.8009999999999124,0.11396587024909158,-0.13841746027555676
2.0009999999998906,0.13464344611225346,-0.16633615540685945
2.2009999999998686,0.16414106595455671,-0.1680733871981973
2.4009999999998466,0.20239775966552892,-0.15347758739610834
2.6009999999998246,0.2482449942317729,-0.13788650953652998
2.8009999999998025,0.2960427291380942,-0.12887925625111044
3.0009999999997805,0.3421904144992604,-0.1322804334084641
3.2009999999997585,0.3921081902271853,-0.1356451891071989
3.4009999999997365,0.43948932083654196,-0.1375507652353585
3.6009999999997144,0.4873494619110507,-0.14895523517649825
3.8009999999996924,0.5299964097445755,-0.16431193781730594
4.000999999999671,0.5739075864109047,-0.20023045149512642
4.200999999999738,0.6168379838706584,-0.24200870668743255
4.400999999999804,0.6633046619635854,-0.2801410256289191
4.600999999999871,0.7149058181522054,-0.3197277420437001
4.800999999999938,0.7718712249358727,-0.350704969264345
5.000000000000004,0.8325956768911257,-0.38928181258534095
5.200000000000071,0.8981461437530693,-0.4187570820690422
5.400000000000138,0.9662496917232287,-0.4358782603504925
5.600000000000205,1.0348595260643647,-0.4428236762462286
5.800000000000272,1.084710762784252,-0.4348346861434287
6.000000000000338,1.1316316004231552,-0.41525477487382567
6.200000000000405,1.1664817083249939,-0.38486653275729965
6.400000000000472,1.2078149752338787,-0.3483804717475249
6.600000000000539,1.2427723437511204,-0.3128411739285875
6.800000000000606,1.2634163407412866,-0.27197849911658845
7.000000000000672,1.2780533082308023,-0.22691196879430564
7.200000000000739,1.284384455445406,-0.17522346994058102
7.400000000000806,1.2953043075228037,-0.11749465393018854
7.600000000000873,1.3020962487151155,-0.05751624016904983
7.8000000000009395,1.3343108508774257,-0.001837471770079291
8.000000000001005,1.386456362267347,0.05222070875245604
8.200000000000895,1.432303383848012,0.1096029808231508
8.400000000000784,1.4851666541367838,0.16826747189168798
8.600000000000673,1.537197243804369,0.21954013793214122
8.800000000000562,1.5800472770245726,0.2665321190848949
9.000000000000451,1.6181575087794262,0.3193689917437393
9.20000000000034,1.6709499735992668,0.3745117160219192
9.40000000000023,1.7269205796212979,0.43184987130442476
9.600000000000119,1.7973283808211176,0.4807836184867564
9.800000000000008,1.8604091542028809,0.5275782042105256
10.000999999999896,1.9114349398529136,0.5765673573005554
10.200999999999786,1.9669642874143944,0.6294448887259857
10.400999999999675,2.0237006132477817,0.6855946949978461
10.600999999999564,2.063700635188941,0.7448942206041087
10.800999999999453,2.1003855620421574,0.8072752678145009
11.000999999999342,2.1220612758858506,0.8722546436670727
11.200999999999231,2.1416554113471604,0.9387690029930637
11.40099999999912,2.1647842727112794,0.9967227328313142
11.60099999999901,2.194250528509443,1.0511437638011003
11.800999999998899,2.226811707458646,1.11051692335383
12.000999999998788,2.2642560266381326,1.1714616329076772
12.200999999998677,2.295793094321348,1.2336584884728148
12.400999999998566,2.3364146718777485,1.2979025814105523
12.600999999998455,2.380491900052187,1.3561693320049912
12.800999999998345,2.413642111050782,1.415875467361815
13.000999999998234,2.442700264304197,1.47310743644652
13.200999999998123,2.4646527492207513,1.529698712810225
13.400999999998012,2.4897175554968554,1.58776971756506
13.600999999997901,2.497692029737332,1.6514123998736108
13.80099999999779,2.501033878839549,1.7202649912065184
14.00099999999768,2.519307195978359,1.793426747279811
14.200999999997569,2.544457821370316,1.8637701802679254
14.400999999997458,2.5712629149947697,1.925904801445715
14.600999999997347,2.586754181552413,1.9879212145050016
14.800999999997236,2.628536964257623,2.046639331198133
15.000999999997125,2.6677575381214926,2.0995846286221616
15.200999999997014,2.7013736026766466,2.1529749938398908
15.400999999996904,2.750528463417202,2.1920621231940776
15.600999999996793,2.7994745300500417,2.2379759173789404
15.800999999996682,2.8450440430244677,2.2894493902545614
16.000999999996573,2.8951419259906523,2.326471540412752
16.200999999996817,2.94510744938458,2.3653151213828854
16.40099999999706,3.003831366808498,2.3832822239029494
16.600999999997306,3.0632704396743327,2.404565015428375
16.80099999999755,3.10707215066023,2.4435861680349005
17.000999999997795,3.129597545468012,2.4964241120116095
17.20099999999804,3.1563393317090265,2.5610702545036332
17.400999999998284,3.185684766062939,2.628549232776342
17.60099999999853,3.223008716750527,2.6925451919446237
17.800999999998773,3.25663183605554,2.7520189678921216
18.000999999999017,3.2882161592193873,2.8129760567692546
18.20099999999926,3.3115258932598515,2.876492804757644
18.400999999999506,3.348381564854193,2.9390795252397965
18.60099999999975,3.3789217701209093,3.0040795266362457
18.799999999999994,3.420602082571374,3.0585228342821624
19.000000000000238,3.4780369866156176,3.1049523774401284
19.200000000000482,3.5397993470367535,3.14859838064804
19.400000000000727,3.5869065226642256,3.1987226219914957
19.60000000000097,3.6278177367458335,3.2518914285753633
19.800000000001216,3.673106447249718,3.3093039666617385
20.00000000000146,3.700444803604026,3.370224167768666
