Time (s),X (m),Y (m)
0.001,0.00042302893680115855,0.0010314752485082437
0.20000000000000015,0.001035722432127462,-0.0008742359292581292
0.4000000000000003,0.004133289187732895,-0.008529747544395465
0.6000000000000004,0.010353588059738126,-0.0067334805861345775
0.8000000000000006,0.02154443072083538,-0.008400259983677815
1.0000000000000007,0.03896402446461686,-0.0052026900685422294
1.2009999999999785,0.0564655791049831,-0.01026564147721367
1.4009999999999565,0.07756126193183105,-0.0170795114126348
1.6009999999999345,0.10289280740023588,-0.011901866422942881
1.8009999999999124,0.11538610085544329,-0.00986313861946259
2.0009999999998906,0.11685889573339296,-0.018188882521557037
2.2009999999998686,0.11246524016542715,-0.03094320211920873
2.4009999999998466,0.1019388634900024,-0.05171470403515442
2.6009999999998246,0.08925133615965612,-0.07499575763706628
2.8009999999998025,0.06744319578574984,-0.08766763726257987
3.0009999999997805,0.03777528827862376,-0.09125159217008423
3.2009999999997585,0.01728889741674385,-0.09162452531699028
3.4009999999997365,-0.00020473923986166848,-0.08116812068100301
3.6009999999997144,-0.009353547924344435,-0.057773984878539
3.8009999999996924,-0.009145057213422516,-0.027910442068700796
4.000999999999671,0.007993956409538743,-0.004800756721438117
4.200999999999738,0.0298210199763755,-0.0019647776774377704
4.400999999999804,0.05405069970181406,-0.01109416963269573
4.600999999999871,0.07368878333322604,-0.02786220345447057
4.800999999999938,0.07778240018541024,-0.05484112842607538
5.000000000000004,0.0796798531536779,-0.085189157963814
5.200000000000071,0.08276398002976318,-0.12116058656727619
5.400000000000138,0.08919597572127956,-0.16302914431279023
5.600000000000205,0.08984611042286052,-0.20835938935831327
5.800000000000272,0.08253014725945763,-0.2588536875100803
6.000000000000338,0.07616455172250537,-0.31167301480705173
6.200000000000405,0.07093197911580863,-0.36900187138760154
6.400000000000472,0.059362298637518074,-0.4190143064537013
6.600000000000539,0.03279927957745321,-0.4472467498788661
6.800000000000606,-0.009663190139786452,-0.4685086721144605
7.000000000000672,-0.05697674732726154,-0.47590609696447683
7.200000000000739,-0.1062600096140205,-0.47278324098484087
7.400000000000806,-0.13101436344751202,-0.45103949713347236
7.600000000000873,-0.14245098231053407,-0.41500551261404856
7.8000000000009395,-0.14364644076771627,-0.3792289989219798
8.000000000001005,-0.12534686551902616,-0.35061537278607513
8.200000000000895,-0.09961477084804513,-0.33911982332594176
8.400000000000784,-0.06189506559845605,-0.33217783264202383
8.600000000000673,-0.03690195304229453,-0.335766733497771
8.800000000000562,-0.02033001767896233,-0.34616783985602695
9.000000000000451,3.8045498023214186e-05,-0.3648556468476336
9.20000000000034,0.02338821046232241,-0.3951584657253799
9.40000000000023,0.031221422509270264,-0.43113556267193714
9.600000000000119,0.021694825919231938,-0.46173806764941394
9.800000000000008,0.00023418081349578553,-0.4870238489920511
10.000999999999896,-0.03235743977142481,-0.4961079721196754
10.200999999999786,-0.07721307467050896,-0.5007764984429209
10.400999999999675,-0.10462693165478766,-0.49209905692099176
10.600999999999564,-0.11565348043898464,-0.4734412294094152
10.800999999999453,-0.13219060785041928,-0.43597839965137863
11.000999999999342,-0.1297528040641934,-0.39652892210973983
11.200999999999231,-0.1152561586886561,-0.347549763761252
11.40099999999912,-0.09506675630641616,-0.29959056095491676
11.60099999999901,-0.0647630533324765,-0.25695670852679975
11.800999999998899,-0.03665321460129692,-0.2409394736108493
12.000999999998788,-0.002824890058154727,-0.24037664108251608
12.200999999998677,0.024985302733364145,-0.25385564878049766
12.400999999998566,0.05200314731081791,-0.27820779864112816
12.600999999998455,0.05576250310131729,-0.314011583999502
12.800999999998345,0.04466616678632971,-0.3539479652780008
13.000999999998234,0.05133640581806151,-0.4016793309865693
13.200999999998123,0.058451845125189715,-0.45594371338682965
13.400999999998012,0.049073152012570107,-0.5044511023219628
13.600999999997901,0.038363231069718236,-0.5517053488030502
13.80099999999779,0.018432709424550095,-0.5865381648904172
14.00099999999768,-0.00841745874302073,-0.5903098445117865
14.200999999997569,-0.041613844577938756,-0.5853186306857722
14.400999999997458,-0.08132692913718736,-0.5722110817747725
14.600999999997347,-0.12807861572287224,-0.5536834157788997
14.800999999997236,-0.15606748328099707,-0.5249635892766746
15.000999999997125,-0.16690276160749024,-0.48615015900153624
15.200999999997014,-0.168064868043595,-0.4314971769669893
15.400999999996904,-0.16441029976736912,-0.39771590091790654
15.600999999996793,-0.14628637889319132,-0.3954203104549111
15.800999999996682,-0.11803667879396364,-0.402874419671123
16.000999999996573,-0.08348517427113682,-0.41177007310095187
16.200999999996817,-0.0521779963745135,-0.43079622226445174
16.40099999999706,-0.01223761945653384,-0.4542653831804136
16.600999999997306,0.016710932894845463,-0.48933225653522877
16.80099999999755,0.030286396314666324,-0.5367861644030826
17.000999999997795,0.024989995138278303,-0.5758024249348146
17.20099999999804,0.010266333339314924,-0.6287577538297469
17.400999999998284,-0.008477209392042415,-0.683029365601498
17.60099999999853,-0.0354125872204138,-0.7103051457925866
17.800999999998773,-0.06791992008770356,-0.7160177909151784
18.000999999999017,-0.09894391548436254,-0.7113275556497801
18.20099999999926,-0.12391520167137889,-0.6896837041201143
18.400999999999506,-0.12715245301416703,-0.6673306356866958
18.60099999999975,-0.11671150478255515,-0.659335016922483
18.799999999999994,-0.09014886145606876,-0.6560995089324518
19.000000000000238,-0.05837328077104187,-0.6576534466342152
19.200000000000482,-0.02368031223514959,-0.6643212978475966
19.400000000000727,-0.0067594261405240835,-0.6905499574240295
19.60000000000097,-0.0011069048134462855,-0.721205986453268
19.800000000001216,-0.008417962078979277,-0.746552921459139
20.00000000000146,-0.029545969576415577,-0.7639609015263487
