Time (s),X (m),Y (m)
0.001,0.0005129279282107199,-0.0010275501737767782
0.20000000000000015,0.0009318706529056366,0.0006225972024876305
0.4000000000000003,0.002108301287713217,0.0013562899161447557
0.6000000000000004,0.005899363304092588,0.0003071917365098538
0.8000000000000006,0.012711805732593047,-0.00722904675956216
1.0000000000000007,0.022867610506630335,-0.007439238839556367
1.2009999999999785,0.0344001737246716,-0.013693423529060935
1.4009999999999565,0.04200622820139811,-0.025603333811137337
1.6009999999999345,0.045843911741641395,-0.03298027001504721
1.8009999999999124,0.05283918059863133,-0.0361457968223338
2.0009999999998906,0.061638209374660594,-0.045893995133207376
2.2009999999998686,0.07123831517292047,-0.04830577348998359
2.4009999999998466,0.07801288147451611,-0.05014949589619379
2.6009999999998246,0.08695527980681488,-0.045361678897257895
2.8009999999998025,0.10137146109751406,-0.04186148920876698
3.0009999999997805,0.1123869612722168,-0.032641596041413014
3.2009999999997585,0.1291628483286579,-0.03462803352753155
3.4009999999997365,0.14453385404265912,-0.02040235093479521
3.6009999999997144,0.1633131139686347,-0.008515385002879827
3.8009999999996924,0.18438027097738513,0.012898005922726377
4.000999999999671,0.20546548994844918,0.024121817600988762
4.200999999999738,0.22417701259664424,0.017658019295740637
4.400999999999804,0.23961089227150476,0.0190669425110188
4.600999999999871,0.2584256535030828,0.026526955408292207
4.800999999999938,0.2750266629631913,0.026022267968296046
5.000000000000004,0.28754945061197085,0.011487123530748333
5.200000000000071,0.30229550981020437,-0.0026711190026558244
5.400000000000138,0.3134684729700778,-0.01427192870753966
5.600000000000205,0.3290515537424387,-0.00397784805264749
5.800000000000272,0.3429370182850915,-0.006310360492999319
6.000000000000338,0.3551201530150195,-0.008750535139754361
6.200000000000405,0.36721212899776323,-0.006439530165026319
6.400000000000472,0.3822620895064534,-0.0048587275544172874
6.600000000000539,0.3967861424326315,0.005199805577658886
6.800000000000606,0.40851366735490857,0.004019328694531679
7.000000000000672,0.4260093217372446,0.008295688445612534
7.200000000000739,0.4453562438497992,0.01005044830078213
7.400000000000806,0.46606134653866815,0.015195456975448588
7.600000000000873,0.4890725948722995,0.025604848405600428
7.8000000000009395,0.5171406940535311,0.038221043744609044
8.000000000001005,0.5373724484297712,0.031370308623478955
8.200000000000895,0.5532169735932277,0.033532556362818385
8.400000000000784,0.5665709196872906,0.03735789807769217
8.600000000000673,0.5802315237533835,0.031050938246474234
8.800000000000562,0.5973498415971944,0.024408478463878534
9.000000000000451,0.6185110508255778,0.028992245634726795
9.20000000000034,0.634996307200189,0.02932475372150721
9.40000000000023,0.653349196725764,0.02685335819596763
9.600000000000119,0.6697613636366341,0.015092429441290607
9.800000000000008,0.6847448158486892,0.005835477344335153
10.000999999999896,0.6978897261698508,0.002797204114400405
10.200999999999786,0.7135145465171987,0.0008501507048151827
10.400999999999675,0.7287549467818668,-0.015546758421123293
10.600999999999564,0.7412663177404888,-0.021982840420505155
10.800999999999453,0.7512782765351042,-0.03535371465409602
11.000999999999342,0.7629389708418035,-0.04786611964733567
11.200999999999231,0.7714956895902947,-0.06094120104520913
11.40099999999912,0.7884762114374211,-0.05772966311897612
11.60099999999901,0.8083949206456988,-0.056075138598268244
11.800999999998899,0.8253017424345814,-0.05997368888280716
12.000999999998788,0.8390449982438788,-0.05802376233238468
12.200999999998677,0.8572734986596235,-0.05159150397626076
12.400999999998566,0.8819498163346423,-0.04390761855311518
12.600999999998455,0.9032431359598146,-0.04570149945727812
12.800999999998345,0.9234856823454103,-0.04947692908380956
13.000999999998234,0.943019991166005,-0.04847337081211008
13.200999999998123,0.9593109710909815,-0.05978614778419804
13.400999999998012,0.9750629030403745,-0.061546076422914375
13.600999999997901,0.9925625045399934,-0.07172571185863981
13.80099999999779,1.0082524328707496,-0.08357352229928466
14.00099999999768,1.023791100527646,-0.09348468345299409
14.200999999997569,1.0400188736942366,-0.09722326781820209
14.400999999997458,1.054295084059651,-0.10300362534257107
14.600999999997347,1.064167151697138,-0.11065579365520622
14.800999999997236,1.0825548291390377,-0.10761372890264309
15.000999999997125,1.102369522387826,-0.10786452219258183
15.200999999997014,1.1184751815900285,-0.11212959002321421
15.400999999996904,1.1357560738165058,-0.11549336407965943
15.600999999996793,1.1522455202037307,-0.11965091628646969
15.800999999996682,1.1662965282159263,-0.1287713750572508
16.000999999996573,1.1838522003319556,-0.12551462728240173
16.200999999996817,1.2008923945051264,-0.12244895751212631
16.40099999999706,1.2185882886285195,-0.12168374360811189
16.600999999997306,1.2332257317826492,-0.12236386504015376
16.80099999999755,1.25229352181329,-0.12375195411785019
17.000999999997795,1.27075669704228,-0.12239680273021096
17.20099999999804,1.2908111125640758,-0.11681506339515103
17.400999999998284,1.3103982069290427,-0.1242931137685869
17.60099999999853,1.3288784682494406,-0.1368576742086876
17.800999999998773,1.3488434495303907,-0.12363173399911874
18.000999999999017,1.3709097257102725,-0.10843865736711865
18.20099999999926,1.3883222996976687,-0.11798018601997001
18.400999999999506,1.4041107112364273,-0.1283684964403617
18.60099999999975,1.4226248579555676,-0.13062634616996982
18.799999999999994,1.4401061143327518,-0.13143481310594507
19.000000000000238,1.4588874121686035,-0.1358369036760613
19.200000000000482,1.4727734336682914,-0.138082527449074
19.400000000000727,1.4893129972423103,-0.13739312201933004
19.60000000000097,1.504584978544595,-0.13732101649144643
19.800000000001216,1.5205992473414938,-0.14413846446050532
20.00000000000146,1.5332228308886473,-0.15463426485772386
