Time (s),X (m),Y (m)
0.001,-0.00060452123697562,-8.989899140956103e-05
0.20000000000000015,0.002529304886396507,0.0003919713786882911
0.4000000000000003,0.009161576318451634,0.0020850472754619805
0.6000000000000004,0.016208126485394447,0.003775765886845729
0.8000000000000006,0.040854402484675305,0.003216277096987868
1.0000000000000007,0.06308643940707476,-0.000903115267974182
1.2009999999999785,0.08303150463439284,-0.00911873947434426
1.4009999999999565,0.10270030221990206,-0.02237218548743504
1.6009999999999345,0.12186089613529252,-0.039690365092283686
1.8009999999999124,0.13568671946258234,-0.05803502712777548
2.0009999999998906,0.13733430860269294,-0.08206681169384412
2.2009999999998686,0.13384538342482305,-0.10127191905533021
2.4009999999998466,0.12415523281143727,-0.11521919117715515
2.6009999999998246,0.11381825019008661,-0.129298158847247
2.8009999999998025,0.09824041618712034,-0.15285783906451728
3.0009999999997805,0.07374731376566152,-0.18211153599124377
3.2009999999997585,0.045475953090124366,-0.21086169846559985
3.4009999999997365,0.01245956668888414,-0.23740201252489762
3.6009999999997144,-0.021169506675822392,-0.2619912638567561
3.8009999999996924,-0.057376782787182605,-0.2873552761851531
4.000999999999671,-0.09729936108813482,-0.3004383026131142
4.200999999999738,-0.13763479125650968,-0.3020889816305148
4.400999999999804,-0.1674473995901806,-0.29655990218432815
4.600999999999871,-0.20180176329737926,-0.2817419054314883
4.800999999999938,-0.23871565430034855,-0.2694154792618473
5.000000000000004,-0.27521588416957693,-0.2557318687151377
5.200000000000071,-0.3158235831878505,-0.23400206471515275
5.400000000000138,-0.3536263473671038,-0.20873442664259098
5.600000000000205,-0.39671961640986575,-0.18068450066390268
5.800000000000272,-0.43976895367956165,-0.15205367851753313
6.000000000000338,-0.48648633069252745,-0.11923116398590936
6.200000000000405,-0.532403548856815,-0.0870025611242558
6.400000000000472,-0.5750744809940264,-0.060324571025297584
6.600000000000539,-0.6166518327846167,-0.0299858646163006
6.800000000000606,-0.6541541898643277,-0.009286106805772203
7.000000000000672,-0.705448759234035,0.020353411344423318
7.200000000000739,-0.7758494143084105,0.05895473525616597
7.400000000000806,-0.8445412329664851,0.09947317722839111
7.600000000000873,-0.903532867446509,0.140474283316394
7.8000000000009395,-0.9600439498347662,0.18260549987498761
8.000000000001005,-1.0086919546082571,0.21756103120497886
8.200000000000895,-1.06037367676065,0.25474915341908067
8.400000000000784,-1.1099608113585535,0.290252635616925
8.600000000000673,-1.1555549293882417,0.3226988240159463
8.800000000000562,-1.2029844803361007,0.36078761811220933
9.000000000000451,-1.2511330644291863,0.40223432508832924
9.20000000000034,-1.3055539962282985,0.44362952917139603
9.40000000000023,-1.3631654867295913,0.48363095521203087
9.600000000000119,-1.4212626594958164,0.5269018841165788
9.800000000000008,-1.481390522418487,0.5742478525521061
10.000999999999896,-1.5439161935356687,0.6183129273787159
10.200999999999786,-1.6018637333069048,0.6800621591860729
10.400999999999675,-1.6509154162103183,0.7477037376521843
10.600999999999564,-1.6671725636750827,0.8136578338526236
10.800999999999453,-1.6489860565860335,0.8780825750789587
11.000999999999342,-1.615428955730159,0.9394562359217851
11.200999999999231,-1.5712986898793952,0.9976063514868758
11.40099999999912,-1.5208656247143948,1.0510499040536931
11.60099999999901,-1.4661694741643527,1.0779549605173593
11.800999999998899,-1.4078862418974578,1.0743383727544986
12.000999999998788,-1.3497709966969251,1.054545676622383
12.200999999998677,-1.293223930087188,1.0239180241669292
12.400999999998566,-1.2341229873350872,0.9791865456380534
12.600999999998455,-1.1756912721444355,0.9408964666254448
12.800999999998345,-1.1211326746464119,0.8975108845128948
13.000999999998234,-1.0717568474745656,0.8502724054843731
13.200999999998123,-1.0257094978498542,0.7993755572294587
13.400999999998012,-0.9918425980154458,0.7528294639792913
13.600999999997901,-0.986931869561017,0.7028470283108068
13.80099999999779,-1.0007016190481302,0.6578680955806916
14.00099999999768,-1.032373095903841,0.6062019113132678
14.200999999997569,-1.066718590906787,0.5579288823453191
14.400999999997458,-1.1030918384052866,0.5083299542261642
14.600999999997347,-1.1416422987093573,0.45567427499654806
14.800999999997236,-1.1796568827494391,0.40495543981245596
15.000999999997125,-1.2242533358606549,0.34576755642923085
15.200999999997014,-1.2739990135460417,0.2860934770679359
15.400999999996904,-1.3168190353908824,0.2335833248911885
15.600999999996793,-1.3646586544074064,0.17756793838465307
15.800999999996682,-1.3949842334561895,0.12358459522510805
16.000999999996573,-1.4198617767386301,0.07941900477163076
16.200999999996817,-1.4437685332648296,0.04034598837722452
16.40099999999706,-1.4720098904732069,-0.0025993245208089165
16.600999999997306,-1.5104208091948481,-0.05492141627111304
16.80099999999755,-1.557797372823665,-0.10994455779879186
17.000999999997795,-1.6081340207971275,-0.16260449912880717
17.20099999999804,-1.6659532867864804,-0.20266422908172194
17.400999999998284,-1.717767103179446,-0.2178258665113462
17.60099999999853,-1.7699674977654232,-0.2060264060739184
17.800999999998773,-1.8275577289931035,-0.17567075907842367
18.000999999999017,-1.882430036621486,-0.13660254398421012
18.20099999999926,-1.9380595646846053,-0.08790226182577471
18.400999999999506,-1.993031989407384,-0.02890048362018115
18.60099999999975,-2.035324849518833,0.04324001836128042
18.799999999999994,-2.0488333900669016,0.11327620663543428
19.000000000000238,-2.0325621413243273,0.18639415868135636
19.200000000000482,-2.0000224459932707,0.2542383685582548
19.400000000000727,-1.9610080800609968,0.314118639289762
19.60000000000097,-1.9185507082972117,0.36751454636217395
19.800000000001216,-1.87007199776265,0.427024268633626
20.00000000000146,-1.8208061940879703,0.486969327744727
