Time (s),X (m),Y (m)
0.001,0.001152392079647418,-0.000729363142846258
0.20000000000000015,-0.0009314487278906492,0.0009133176487338782
0.4000000000000003,-0.005641305259170948,0.012509619016596757
0.6000000000000004,-0.0035035596764377286,0.023978517874162403
0.8000000000000006,-0.00015210682112999012,0.03149881785832079
1.0000000000000007,0.003939759961439932,0.04381077671044894
1.2009999999999785,0.007995815855758964,0.05649275085192612
1.4009999999999565,0.027800648551962865,0.06665994819462354
1.6009999999999345,0.06049573576103363,0.07393967765934004
1.8009999999999124,0.10177128297622691,0.06749226132248137
2.0009999999998906,0.14126924528315943,0.0511817726900631
2.2009999999998686,0.17171509262293908,0.052344543353445246
2.4009999999998466,0.20132170243778988,0.05978678225097498
2.6009999999998246,0.24625848073026615,0.05400248005876207
2.8009999999998025,0.29326373858748567,0.04726030301617819
3.0009999999997805,0.3360246629215765,0.03568551603910085
3.2009999999997585,0.38033530499996415,0.005853898399387215
3.4009999999997365,0.4146768100599089,-0.03806053210455185
3.6009999999997144,0.4422525069638244,-0.07425011232274273
3.8009999999996924,0.4577822853393846,-0.12004216358437107
4.000999999999671,0.4623658043080222,-0.16898351966127517
4.200999999999738,0.4607966422996046,-0.21073605370242504
4.400999999999804,0.46061070496821654,-0.2553978013666361
4.600999999999871,0.4631140701388235,-0.30188374041915794
4.800999999999938,0.4611358772175639,-0.3687366910087876
5.000000000000004,0.4528191970812257,-0.4378067095505246
5.200000000000071,0.4386754400795325,-0.5077217524405963
5.400000000000138,0.42592595773355474,-0.5729381067871396
5.600000000000205,0.4153950136579877,-0.6422653325061439
5.800000000000272,0.3994070238547493,-0.7096637315321507
6.000000000000338,0.3700173905694435,-0.774556707010119
6.200000000000405,0.33495566466615917,-0.8483682396045485
6.400000000000472,0.3097309908692684,-0.9246921661074942
6.600000000000539,0.27806557617645156,-1.001153110957207
6.800000000000606,0.2423407767568005,-1.075279449374153
7.000000000000672,0.19772753932466428,-1.145186255981257
7.200000000000739,0.15134128319433912,-1.1864480237365005
7.400000000000806,0.09516869188493327,-1.205781645775508
7.600000000000873,0.034843531782258706,-1.2054849192448607
7.8000000000009395,-0.027173318056900084,-1.1984200990690712
8.000000000001005,-0.09520763626428119,-1.1783601808491047
8.200000000000895,-0.16181429975898842,-1.157300566910402
8.400000000000784,-0.21515975552233776,-1.1225766984735808
8.600000000000673,-0.25276346127779964,-1.077361091768828
8.800000000000562,-0.2824637990125624,-1.0297126217624508
9.000000000000451,-0.2937724036249252,-0.9724546092620465
9.20000000000034,-0.2786966864126902,-0.9116953145041183
9.40000000000023,-0.2623919803808883,-0.8529239896293577
9.600000000000119,-0.23845664652203175,-0.8026386005085893
9.800000000000008,-0.20445428277343053,-0.7723577624130148
10.000999999999896,-0.15658351846113316,-0.7593099731414177
10.200999999999786,-0.09674223532857419,-0.7612362561311762
10.400999999999675,-0.03664502410658177,-0.7744988224758637
10.600999999999564,0.028727373365033566,-0.8156937312774288
10.800999999999453,0.09607751640388255,-0.8533380290963366
11.000999999999342,0.1666099812707226,-0.8923754798813903
11.200999999999231,0.23717233121947168,-0.9265553300924735
11.40099999999912,0.2779684977586523,-0.9661186730709622
11.60099999999901,0.29988361345182263,-1.0176389533582428
11.800999999998899,0.3142849799027077,-1.0720462467231875
12.000999999998788,0.3015255723624857,-1.1319182099683187
12.200999999998677,0.2780688760229094,-1.1877233647823984
12.400999999998566,0.2398583771062325,-1.2294851915193599
12.600999999998455,0.1991831850174853,-1.2634157499994545
12.800999999998345,0.143998057660065,-1.2841766358394417
13.000999999998234,0.07829907176942899,-1.2860522891314587
13.200999999998123,0.006269863526006899,-1.281445353789424
13.400999999998012,-0.07395847819196757,-1.2744282956094397
13.600999999997901,-0.15998749791196396,-1.2653213900941795
13.80099999999779,-0.24903091406981626,-1.2489516858932292
14.00099999999768,-0.3326928765535481,-1.22704109364125
14.200999999997569,-0.4202242223392909,-1.1887627750330494
14.400999999997458,-0.50123049020076,-1.1347212837922835
14.600999999997347,-0.5579457298618421,-1.074376706229183
14.800999999997236,-0.585007107351746,-1.0142771999457623
15.000999999997125,-0.5964624232862784,-0.9528940132135828
15.200999999997014,-0.6035531785858479,-0.88795262736606
15.400999999996904,-0.5853087699027603,-0.8118403291380087
15.600999999996793,-0.5626699695579076,-0.7350694107886698
15.800999999996682,-0.5229050461816884,-0.6630956317137737
16.000999999996573,-0.4699063943928184,-0.6087930563737485
16.200999999996817,-0.413139485126318,-0.5746455552755532
16.40099999999706,-0.3545441065144772,-0.5651412591183896
16.600999999997306,-0.2885452398995523,-0.5727383375600965
16.80099999999755,-0.2280677043915894,-0.5813801415261746
17.000999999997795,-0.162280250406994,-0.5934607973164551
17.20099999999804,-0.10489480229105459,-0.6187373205336577
17.400999999998284,-0.07235460325482128,-0.6609678474219046
17.60099999999853,-0.0686786581695367,-0.7235376243823578
17.800999999998773,-0.07643849023908506,-0.7990294536428202
18.000999999999017,-0.08768030263351047,-0.8810960888574781
18.20099999999926,-0.10630498365422322,-0.9653226296135512
18.400999999999506,-0.13663487216302422,-1.0468403399343338
18.60099999999975,-0.18641663604130823,-1.1090177322556871
18.799999999999994,-0.2396430733224638,-1.136116293197766
19.000000000000238,-0.2859902371701241,-1.1293926626295119
19.200000000000482,-0.3112267788536408,-1.0964854368175634
19.400000000000727,-0.30443649455077854,-1.0509601887971027
19.60000000000097,-0.27855318342294155,-1.0192962193576456
19.800000000001216,-0.2381204791221852,-1.0115824888314222
20.00000000000146,-0.18907103807658393,-1.0123894794203965
