Time (s),X (m),Y (m)
0.001,-0.00060452123697562,8.989899140956135e-05
0.20000000000000015,0.0012570369186516782,-0.0001530515368610913
0.4000000000000003,0.002298498533932761,-0.00018554505119420614
0.6000000000000004,6.644609995306742e-05,0.0015200380484476843
0.8000000000000006,0.0031907506767421237,0.0061451717255733805
1.0000000000000007,0.007047505316045935,0.00783663490473248
1.2009999999999785,0.01102685646007229,0.005125899513512915
1.4009999999999565,0.027361591383613326,0.00048791609035320107
1.6009999999999345,0.03619376301279155,0.00016223836392346836
1.8009999999999124,0.046662009281364776,-0.0051419201479063386
2.0009999999998906,0.05322027113000926,-0.009181063738658726
2.2009999999998686,0.06755019519634653,-0.012591959431181162
2.4009999999998466,0.08400121049704153,-0.013474911972643982
2.6009999999998246,0.09243145894498203,-0.010922380378376874
2.8009999999998025,0.10685330433237472,-0.015398689615135316
3.0009999999997805,0.12037945915817454,-0.01801665748322833
3.2009999999997585,0.13182752678860699,-0.022044304334145927
3.4009999999997365,0.15001698327066249,-0.02506941047037157
3.6009999999997144,0.16813551787259548,-0.030475809505727775
3.8009999999996924,0.18763589168553396,-0.04148279265794475
4.000999999999671,0.2077076858655779,-0.05692361409654973
4.200999999999738,0.2250202083360497,-0.06938326367603713
4.400999999999804,0.24160896188860698,-0.07792127634147139
4.600999999999871,0.2579357505312521,-0.0850092877712605
4.800999999999938,0.2749445177994701,-0.08863020917302043
5.000000000000004,0.300406135401368,-0.09826475399627764
5.200000000000071,0.3188217470091423,-0.1036969384679019
5.400000000000138,0.33727156483508813,-0.11457763009780446
5.600000000000205,0.36588147088228073,-0.13369660041433534
5.800000000000272,0.39355807674495635,-0.15704593877652093
6.000000000000338,0.4189578560184114,-0.1742793796238962
6.200000000000405,0.4407555502848139,-0.18907819648732388
6.400000000000472,0.4591444053599108,-0.19473909677791165
6.600000000000539,0.4797792151482298,-0.20483459831296968
6.800000000000606,0.5016640268787436,-0.21866899199975673
7.000000000000672,0.5250293597807294,-0.23596635132141308
7.200000000000739,0.5505665158665226,-0.2542039388493564
7.400000000000806,0.5735041897461832,-0.2691206575290295
7.600000000000873,0.5969175257291872,-0.283114263826463
7.8000000000009395,0.6171368915094289,-0.29291956990351226
8.000000000001005,0.6358076813932085,-0.3096729569525014
8.200000000000895,0.653814615317914,-0.3307318914539038
8.400000000000784,0.6695410572272718,-0.3643353414948491
8.600000000000673,0.6783568449039621,-0.383204846700925
8.800000000000562,0.679879317699001,-0.4009437603892835
9.000000000000451,0.6797567200902548,-0.41634708019813454
9.20000000000034,0.6792176750746602,-0.4456907766917981
9.40000000000023,0.678368327540816,-0.46535214455163076
9.600000000000119,0.6792395541100766,-0.4808283529006572
9.800000000000008,0.6763416564527759,-0.5073887658454881
10.000999999999896,0.6692063838176863,-0.5330893722697861
10.200999999999786,0.6650791692359865,-0.5535812593489251
10.400999999999675,0.6582423275978427,-0.5754635174735864
10.600999999999564,0.6497762563106568,-0.600970623208973
10.800999999999453,0.6390390983726607,-0.6222503970524234
11.000999999999342,0.6337854867176013,-0.6402224504613566
11.200999999999231,0.6263742832378008,-0.659391080975331
11.40099999999912,0.6171157475466024,-0.6848668077376906
11.60099999999901,0.6029903263150393,-0.7107505127095685
11.800999999998899,0.5884212738563028,-0.7388586961968224
12.000999999998788,0.5783110996632532,-0.7568308004264286
12.200999999998677,0.5695360685636152,-0.7804639529888528
12.400999999998566,0.5608093244004606,-0.8051563820068519
12.600999999998455,0.5586173677774237,-0.8226475728668422
12.800999999998345,0.5518544215713498,-0.8449900909988762
13.000999999998234,0.5366206760023672,-0.8757678970944032
13.200999999998123,0.5247326371185773,-0.9045486506199142
13.400999999998012,0.5139866591188379,-0.9267597025004456
13.600999999997901,0.500430555562471,-0.9496729461949023
13.80099999999779,0.4832825072104714,-0.9769435301174224
14.00099999999768,0.47104542925279486,-0.9987485902890736
14.200999999997569,0.4626955277185777,-1.019399932241815
14.400999999997458,0.4502685908153762,-1.0414324999528621
14.600999999997347,0.4339073243044272,-1.0710012016293458
14.800999999997236,0.4179728172600279,-1.1024565818204402
15.000999999997125,0.40451907229601763,-1.1284482522534334
15.200999999997014,0.3962467819438628,-1.1519772198907006
15.400999999996904,0.3855295997939671,-1.179131439596406
15.600999999996793,0.3723289637994354,-1.2085336396763005
15.800999999996682,0.36007549180894194,-1.2358381211365626
16.000999999996573,0.3455429366238653,-1.262877743248672
16.200999999996817,0.33185988530269256,-1.287683866752689
16.40099999999706,0.313372422221318,-1.3210362645401983
16.600999999997306,0.2949313420728332,-1.3521302533620512
16.80099999999755,0.26625994834047817,-1.3902538046848818
17.000999999997795,0.25070983720088946,-1.418565804884495
17.20099999999804,0.23680574051101316,-1.4421249998400876
17.400999999998284,0.22579886886401063,-1.4634966414729231
17.60099999999853,0.20458683353277526,-1.4932608098218298
17.800999999998773,0.18939915077113767,-1.5175729516674261
18.000999999999017,0.17083422395723954,-1.5486764441166663
18.20099999999926,0.15206189882050808,-1.5767504991428807
18.400999999999506,0.13533225259849035,-1.5979000127885388
18.60099999999975,0.1211934620667795,-1.6250934752580912
18.799999999999994,0.10458944439618147,-1.6562370506645707
19.000000000000238,0.09092672389493402,-1.6815407926368047
19.200000000000482,0.07505934968528973,-1.710499123540859
19.400000000000727,0.059625418894996465,-1.739880927843741
19.60000000000097,0.04023974145538087,-1.776273460575395
19.800000000001216,0.02115362492496748,-1.8086466874424392
20.00000000000146,0.0025224674467783166,-1.8446501017935544
