Time (s),X (m),Y (m)
0.001,-0.00036712694553334884,-0.000663019509439443
0.20000000000000015,0.0008397815972991539,-1.1671391579393768e-05
0.4000000000000003,0.0019508954839395406,0.0003884266621982331
0.6000000000000004,0.002853674357968464,-0.00038967168213906677
0.8000000000000006,0.006663346978691817,0.0012515383630159445
1.0000000000000007,0.010509008709130158,0.003867741925066382
1.2009999999999785,0.014664976589543858,0.004544562397915661
1.4009999999999565,0.019559674185692752,0.0062928607591865825
1.6009999999999345,0.02517292458634577,0.009193726486003487
1.8009999999999124,0.031613368659785236,0.01227290524670225
2.0009999999998906,0.0385572676091175,0.016754621168257256
2.2009999999998686,0.04360447293470156,0.019544959914984845
2.4009999999998466,0.048793845200799504,0.02242858069455744
2.6009999999998246,0.05386729117852932,0.02504477295477865
2.8009999999998025,0.06024542677403461,0.02857075651819101
3.0009999999997805,0.06535565960224801,0.034711940270023216
3.2009999999997585,0.07082951983300738,0.03953123106409655
3.4009999999997365,0.0754683699724152,0.04517435107116026
3.6009999999997144,0.07976998035703027,0.05155672632023398
3.8009999999996924,0.0841251087595983,0.05518507821936354
4.000999999999671,0.08780408370318114,0.060237769876292556
4.200999999999738,0.09097710959068844,0.0682459730275895
4.400999999999804,0.09135542284954697,0.07409379983646629
4.600999999999871,0.09340682377107411,0.07944784255293785
4.800999999999938,0.09672089930083011,0.08422388446111799
5.000000000000004,0.10105175697135477,0.08819147636885459
5.200000000000071,0.10366591913680591,0.09376761768832512
5.400000000000138,0.10511374022472486,0.09815523675883155
5.600000000000205,0.10498319826223693,0.10197202941062664
5.800000000000272,0.10848093498470392,0.10577633744473448
6.000000000000338,0.11184483002128748,0.10756272434014463
6.200000000000405,0.11180416662909333,0.11277111028861207
6.400000000000472,0.11510847899944945,0.11643425993495073
6.600000000000539,0.11625043506796287,0.11938543252472057
6.800000000000606,0.11321657823865942,0.12712297028109476
7.000000000000672,0.11266039768176077,0.13448184878710714
7.200000000000739,0.1100909346116814,0.14364273938807995
7.400000000000806,0.11053958116503697,0.1502611804258022
7.600000000000873,0.108730455584563,0.15653914951974138
7.8000000000009395,0.10713537382674801,0.16476309047630475
8.000000000001005,0.10691586405527664,0.1707799461443825
8.200000000000895,0.10063832949994474,0.17795293194223666
8.400000000000784,0.09534694979436452,0.18618703241263668
8.600000000000673,0.0891778420215481,0.19431924274404652
8.800000000000562,0.08457944486239825,0.20204392844552052
9.000000000000451,0.07880194963915123,0.2107220223788276
9.20000000000034,0.0687823733421341,0.2214963135133761
9.40000000000023,0.05990884666926619,0.23051968614280285
9.600000000000119,0.05732595439620883,0.23921480321586086
9.800000000000008,0.05302543010387277,0.2466648725581395
10.000999999999896,0.04819278815322338,0.25209656998686736
10.200999999999786,0.0396537032922688,0.2597450622771733
10.400999999999675,0.036225462214665924,0.2679381658226147
10.600999999999564,0.03325196433262966,0.27646227107992094
10.800999999999453,0.02227261013524154,0.28049606965040025
11.000999999999342,0.015768824598904992,0.28274551000368875
11.200999999999231,0.010681929072238834,0.28599925174283275
11.40099999999912,0.005072139621279226,0.28913720866312276
11.60099999999901,-0.000633511966583083,0.2916122222529231
11.800999999998899,-0.007933114619162287,0.2932756415998428
12.000999999998788,-0.015334795987989383,0.294298930501643
12.200999999998677,-0.02303480749106442,0.29565475760063414
12.400999999998566,-0.03109743481660823,0.29666143251058086
12.600999999998455,-0.04262000680831459,0.29698731588610505
12.800999999998345,-0.05053044486168777,0.2970520148442023
13.000999999998234,-0.05986894220194737,0.29538160024327365
13.200999999998123,-0.06725368540774303,0.2940653334411087
13.400999999998012,-0.07329636154575381,0.29332587203943883
13.600999999997901,-0.08286035126593808,0.2907997392272546
13.80099999999779,-0.09456240485530515,0.28677299856112615
14.00099999999768,-0.10393987189740213,0.2844504266358242
14.200999999997569,-0.11093650109652223,0.28175947166656456
14.400999999997458,-0.11854010905836997,0.27802174674337354
14.600999999997347,-0.12649998192783068,0.2756002622991894
14.800999999997236,-0.13424233889996398,0.27470346231909926
15.000999999997125,-0.14373628871515795,0.2707645751367838
15.200999999997014,-0.15339688777880897,0.2638428711764951
15.400999999996904,-0.16356210814661423,0.25789763894703127
15.600999999996793,-0.17448379010004528,0.2527409677946141
15.800999999996682,-0.18298953186196112,0.2426793825857796
16.000999999996573,-0.19135102415387317,0.23726043806534786
16.200999999996817,-0.19908029067205196,0.22930677269391386
16.40099999999706,-0.20645733648517323,0.2245838435057504
16.600999999997306,-0.21257147200880694,0.21535610611212028
16.80099999999755,-0.21797002775209368,0.20927369250999228
17.000999999997795,-0.22312545450381874,0.20185953327251813
17.20099999999804,-0.22801297150503158,0.19552309880523083
17.400999999998284,-0.23145704437620684,0.18628949874588838
17.60099999999853,-0.23451841076574576,0.17813460740318646
17.800999999998773,-0.23739994044368537,0.171798361892378
18.000999999999017,-0.2392943877585356,0.16503647301427626
18.20099999999926,-0.23950111029460924,0.15310955717820016
18.400999999999506,-0.24098737507389403,0.14786500037936495
18.60099999999975,-0.2413695019997869,0.13892671924207947
18.799999999999994,-0.2419850219775443,0.13108833685790713
19.000000000000238,-0.2419983998788743,0.12341679425883074
19.200000000000482,-0.24530249680534688,0.11551643181042516
19.400000000000727,-0.24456571706523308,0.10808632646986151
19.60000000000097,-0.24220195262588937,0.09868678829088115
19.800000000001216,-0.2381166447612764,0.08983380329968126
20.00000000000146,-0.233448534507502,0.08091042929177837
