Time (s),X (m),Y (m)
0.001,0.0010146588340248276,0.000844935058449024
0.20000000000000015,0.0005483819489316512,-0.0005721355449200563
0.4000000000000003,0.0032513160957280433,-0.0021163097850352905
0.6000000000000004,0.013428303939830492,0.0033938798544265554
0.8000000000000006,0.02145994897360108,0.005178061588512122
1.0000000000000007,0.025892091460165346,0.0024829355999560136
1.2009999999999785,0.030993644803551445,-0.0022174740404477867
1.4009999999999565,0.044240465107422466,-0.00506198220959256
1.6009999999999345,0.05437481803274289,0.004265862059754018
1.8009999999999124,0.06582496823847242,0.004494922476217371
2.0009999999998906,0.07694669605950734,0.011989259645412302
2.2009999999998686,0.0859549296789374,0.018476383690623013
2.4009999999998466,0.09394740602282041,0.023547354729303315
2.6009999999998246,0.10367104806955647,0.028521614064073737
2.8009999999998025,0.11704687619812511,0.04124252830403301
3.0009999999997805,0.12962252780562272,0.06418607375585804
3.2009999999997585,0.14364748943758102,0.07786856789760119
3.4009999999997365,0.15975121358400118,0.09619094373773411
3.6009999999997144,0.17749325563888474,0.1143632691693741
3.8009999999996924,0.1963642804516888,0.12397525740326358
4.000999999999671,0.2150361830381979,0.13187974247437376
4.200999999999738,0.2360567978689562,0.1409837935921752
4.400999999999804,0.2572730412277065,0.15105433994981174
4.600999999999871,0.270861303499935,0.15956869766904022
4.800999999999938,0.2869663011863043,0.16989178683156503
5.000000000000004,0.3023989851425926,0.17739916925587088
5.200000000000071,0.32210335278145885,0.18319174492820647
5.400000000000138,0.3418766254845688,0.1900888416664793
5.600000000000205,0.366366499231527,0.20647567195358438
5.800000000000272,0.38638296440734193,0.22033535880358013
6.000000000000338,0.40819810923306094,0.22717040595060922
6.200000000000405,0.43176116299888095,0.23752618565935743
6.400000000000472,0.4571318751475166,0.2435004987515052
6.600000000000539,0.48341897377730897,0.26401434994754625
6.800000000000606,0.5099549051104321,0.28381320489798667
7.000000000000672,0.5327275355422354,0.295650552100784
7.200000000000739,0.5541364309062108,0.32026977486590696
7.400000000000806,0.5740388140736742,0.3402508019662585
7.600000000000873,0.5942388344053416,0.3659766551929338
7.8000000000009395,0.6109946545884084,0.3927379969027335
8.000000000001005,0.6291537389329273,0.4028219667333186
8.200000000000895,0.6540437967941178,0.423435171037487
8.400000000000784,0.6751317459891316,0.44797886659285524
8.600000000000673,0.6929188182759695,0.47270084462786244
8.800000000000562,0.7065774261902596,0.5003242367618038
9.000000000000451,0.7114343259810477,0.5384085762460539
9.20000000000034,0.7104304936175602,0.5738298559844922
9.40000000000023,0.7184060668639016,0.5845461121253448
9.600000000000119,0.7241886508490898,0.6074410109276652
9.800000000000008,0.7306002907555669,0.6439779078759599
10.000999999999896,0.7397094898281782,0.6706434271950569
10.200999999999786,0.7481675382879424,0.6874133988686649
10.400999999999675,0.7564802235829271,0.7111655364102589
10.600999999999564,0.7608131177699409,0.7325511536107546
10.800999999999453,0.7686468322884671,0.7577867815578422
11.000999999999342,0.7760763652707935,0.7897795678348646
11.200999999999231,0.7818330435259551,0.8253337012229116
11.40099999999912,0.7856862204117593,0.8541021820182841
11.60099999999901,0.7888512811013109,0.886944642813649
11.800999999998899,0.7939671076797467,0.92892779381814
12.000999999998788,0.8015788438731826,0.9591394827961185
12.200999999998677,0.8165650379938444,0.9712966126074845
12.400999999998566,0.8456188596688962,0.9845181922710604
12.600999999998455,0.8816981150691109,1.0002141985437194
12.800999999998345,0.919316922573256,1.0212044288606108
13.000999999998234,0.9533210266200947,1.0363113399337576
13.200999999998123,0.9841006504331271,1.049259020802432
13.400999999998012,1.012739014731014,1.0632551948600728
13.600999999997901,1.0403243033900773,1.0742038535358094
13.80099999999779,1.063967949734572,1.0936006210108613
14.00099999999768,1.0851111888075209,1.111594316038076
14.200999999997569,1.0955107093729313,1.1460441816026992
14.400999999997458,1.1035684935900454,1.1755902261664348
14.600999999997347,1.1054749858939765,1.2146059949055061
14.800999999997236,1.1011131844553868,1.2628838865977576
15.000999999997125,1.0964793869213767,1.3064179404990504
15.200999999997014,1.0960944069573217,1.3354677839937232
15.400999999996904,1.0929121998714058,1.3768988596811658
15.600999999996793,1.083851957669257,1.4383140378415193
15.800999999996682,1.0717014396483642,1.4953793683350025
16.000999999996573,1.064414698009606,1.5407968456519414
16.200999999996817,1.0638374012977443,1.583199624395092
16.40099999999706,1.0599306626458191,1.6186442144549864
16.600999999997306,1.0542481424668366,1.654877259401639
16.80099999999755,1.038404026866197,1.707932343661644
17.000999999997795,1.0244263665057738,1.7533227238168425
17.20099999999804,1.0054092380639525,1.8036629644886943
17.400999999998284,0.9854717793396232,1.8533975384439978
17.60099999999853,0.9719800431327024,1.8968433240613272
17.800999999998773,0.9593313778356384,1.9357309045241557
18.000999999999017,0.935881744576277,1.9710382528557049
18.20099999999926,0.9043302799046935,2.0002348456406036
18.400999999999506,0.8713364556551361,2.030290789639909
18.60099999999975,0.8398414906635412,2.0595090450725126
18.799999999999994,0.8059782349458547,2.0775675684536905
19.000000000000238,0.7652067069896934,2.084669944941928
19.200000000000482,0.7229242900761849,2.0853403071635186
19.400000000000727,0.6746692124816578,2.079838833952257
19.60000000000097,0.6245674570319836,2.073229092370147
19.800000000001216,0.5784767952021937,2.0705813503964947
20.00000000000146,0.5377903252493308,2.0738116819007346
