Time (s),X (m),Y (m)
0.001,0.0012131848191356664,0.000663019509439443
0.20000000000000015,0.0009409727327634502,8.455731405074312e-05
0.4000000000000003,0.006203546042113434,0.001150071534267625
0.6000000000000004,0.017343886881212103,0.0030170582337018252
0.8000000000000006,0.022509048099484324,0.0038547334401556354
1.0000000000000007,0.03294565895433369,0.009404531335721764
1.2009999999999785,0.05161421714575462,0.014395262508043384
1.4009999999999565,0.06628537163634801,0.01745170750793089
1.6009999999999345,0.0837912357459439,0.017123794508993782
1.8009999999999124,0.09311467187236516,0.012365403535244679
2.0009999999998906,0.0932104535323793,0.0034024227464983996
2.2009999999998686,0.09712036603801417,-0.011874272368994859
2.4009999999998466,0.10568388118259252,-0.03065096159072237
2.6009999999998246,0.11727692951339737,-0.056943981473824616
2.8009999999998025,0.14028501806753146,-0.08326346116698552
3.0009999999997805,0.16101129917912138,-0.10818019741026391
3.2009999999997585,0.18499004247992237,-0.1360523272081531
3.4009999999997365,0.2036140872097723,-0.1624306097657794
3.6009999999997144,0.21958818406347883,-0.18937230266029928
3.8009999999996924,0.24019199364767216,-0.22113767799605322
4.000999999999671,0.2537951762184223,-0.24983565521835982
4.200999999999738,0.27459123992594725,-0.2782543228713694
4.400999999999804,0.29954022746748143,-0.3093934962491177
4.600999999999871,0.33467944394219634,-0.35168156740428014
4.800999999999938,0.36662584913204865,-0.40181685291294056
5.000000000000004,0.39591576128047434,-0.44887087187994357
5.200000000000071,0.4278737981800312,-0.49626981572468787
5.400000000000138,0.4632537505423573,-0.5441792317978994
5.600000000000205,0.5004963950935167,-0.596544874090559
5.800000000000272,0.5421479025024983,-0.6520224999844335
6.000000000000338,0.5820249192121967,-0.7051168552024722
6.200000000000405,0.6300509529628258,-0.7558329792210138
6.400000000000472,0.6745828047151243,-0.8019729736457031
6.600000000000539,0.719244165008998,-0.8521220705644261
6.800000000000606,0.778683775426551,-0.896439554377571
7.000000000000672,0.8375314812342689,-0.9350536016291812
7.200000000000739,0.8925886366223625,-0.9759208639029806
7.400000000000806,0.9567829017753169,-1.0192542956921264
7.600000000000873,1.0010846753080564,-1.0668479768456522
7.8000000000009395,1.0511421451134917,-1.105199524524306
8.000000000001005,1.0953566981548928,-1.1346616207685711
8.200000000000895,1.1374029461193453,-1.160858010993867
8.400000000000784,1.186879036876708,-1.193297485392791
8.600000000000673,1.242881228413007,-1.2410022319395793
8.800000000000562,1.2995248760389322,-1.297118811318836
9.000000000000451,1.354287707037208,-1.3529226797885125
9.20000000000034,1.402941631986269,-1.4084117552732967
9.40000000000023,1.4433964564360127,-1.4653994713331218
9.600000000000119,1.4971051121878605,-1.522905968552871
9.800000000000008,1.5569518255760912,-1.5812753075634332
10.000999999999896,1.6105638379493479,-1.6385148099172522
10.200999999999786,1.6644193524655144,-1.6940022184217107
10.400999999999675,1.7205653798512792,-1.7465864024142643
10.600999999999564,1.7799194569312062,-1.8008300270824613
10.800999999999453,1.8394908901983134,-1.8633075507137498
11.000999999999342,1.8960353582960396,-1.9302248992264779
11.200999999999231,1.9491550940740983,-2.001145394062227
11.40099999999912,2.010422697997955,-2.074451601062516
11.60099999999901,2.0600294841622926,-2.1426271690164524
11.800999999998899,2.104060671565175,-2.2010074282732512
12.000999999998788,2.1610139441739054,-2.2435873352211457
12.200999999998677,2.2197131833966584,-2.2761743332019426
12.400999999998566,2.2637268381726448,-2.3030940577545262
12.600999999998455,2.3285383487695652,-2.3266181469566245
12.800999999998345,2.404321507122747,-2.353775185170962
13.000999999998234,2.476875868442388,-2.392306542812554
13.200999999998123,2.5445398379523607,-2.4394294083526695
13.400999999998012,2.595873348491712,-2.4922086325684787
13.600999999997901,2.652604153082231,-2.55534519071354
13.80099999999779,2.7126520840730146,-2.6259467928449247
14.00099999999768,2.761354405608976,-2.6986746257905407
14.200999999997569,2.8097633590002675,-2.7687763944839343
14.400999999997458,2.8675759993615517,-2.840810979379184
14.600999999997347,2.9291705985739305,-2.91259092128078
14.800999999997236,2.984326547668355,-2.9868201918612725
15.000999999997125,3.037243838158248,-3.063163819091943
15.200999999997014,3.0852756867360047,-3.1413660909990995
15.400999999996904,3.1429387480028526,-3.2215938893801965
15.600999999996793,3.20758328502004,-3.304431062214161
15.800999999996682,3.2586109065542366,-3.383569890244095
16.000999999996573,3.3165314305361586,-3.4620400746660773
16.200999999996817,3.3743408599635845,-3.538767026153754
16.40099999999706,3.4437244171265666,-3.6192490167993423
16.600999999997306,3.502711795719624,-3.696030359051193
16.80099999999755,3.5555127011986722,-3.7691077659714862
17.000999999997795,3.6020623744715765,-3.837362890200348
17.20099999999804,3.6604361841911235,-3.9057252529761315
17.400999999998284,3.7220937023808913,-3.9758344944112736
17.60099999999853,3.7795728488346088,-4.049278996749879
17.800999999998773,3.828804075213181,-4.126113710532338
18.000999999999017,3.8811587530918383,-4.205961723487792
18.20099999999926,3.936579227465383,-4.292884133540391
18.400999999999506,3.991869551152176,-4.382531401382726
18.60099999999975,4.038224883421606,-4.468778903329383
18.799999999999994,4.079629944797352,-4.561041710433488
19.000000000000238,4.122113459365943,-4.655727834016832
19.200000000000482,4.161392236268692,-4.7454217439641075
19.400000000000727,4.184165507473596,-4.83848187706054
19.60000000000097,4.177305172413453,-4.91363527612663
19.800000000001216,4.1411134289886276,-4.97286284509084
20.00000000000146,4.087310003566512,-5.026914678684404
