Time (s),X (m),Y (m)
0.001,0.0005129279282107199,0.0010275501737767782
0.20000000000000015,0.0009739272008507594,-0.0006254036147638158
0.4000000000000003,0.004949473255901724,0.0052908393547144265
0.6000000000000004,0.014257523060759869,0.01619104295115468
0.8000000000000006,0.020868014669509608,0.013520245437570457
1.0000000000000007,0.0262476560377335,0.006039719816725172
1.2009999999999785,0.025759596878686467,-0.005761097805089865
1.4009999999999565,0.03916414873418884,-0.036237072086598515
1.6009999999999345,0.0452650657319213,-0.05921495040052581
1.8009999999999124,0.04105870707318234,-0.08055739118546977
2.0009999999998906,0.02726715035423229,-0.09688733806997432
2.2009999999998686,0.007399250052714383,-0.0995758325365334
2.4009999999998466,-0.0022360922170031666,-0.09027007823516392
2.6009999999998246,-0.007096525815970693,-0.07501743123156004
2.8009999999998025,-0.008329550794336458,-0.053031900522899876
3.0009999999997805,-0.0020701451844368705,-0.0340271828810142
3.2009999999997585,0.009595988572859504,-0.0070085856451809585
3.4009999999997365,0.025170277934899184,0.016889673351619866
3.6009999999997144,0.05339545685181779,0.040194352937830725
3.8009999999996924,0.08493574708028434,0.05233584517256429
4.000999999999671,0.12394493624445743,0.059157687953706614
4.200999999999738,0.15753288615533234,0.060535861926799925
4.400999999999804,0.1813998322952877,0.05307596414762121
4.600999999999871,0.18682309762914673,0.038312231970129694
4.800999999999938,0.18839501909021922,0.013603578381368806
5.000000000000004,0.1822371346509588,-0.011870601843494812
5.200000000000071,0.1697756480553564,-0.024270481584791444
5.400000000000138,0.1554581810931939,-0.045551212985288844
5.600000000000205,0.1300581176129742,-0.04953706479144689
5.800000000000272,0.10399831500546379,-0.04687698790438235
6.000000000000338,0.06817070890259365,-0.041559934752059005
6.200000000000405,0.03751942249466669,-0.026672193222015927
6.400000000000472,0.006571206756033483,-0.002636099242712648
6.600000000000539,-0.015582671946036835,0.03528049870121979
6.800000000000606,-0.02461849467812419,0.07809603691368293
7.000000000000672,-0.018720561051648443,0.11430667748991291
7.200000000000739,-0.0023461955810175346,0.13117673545034783
7.400000000000806,0.02314769927449743,0.14910428138024057
7.600000000000873,0.05778964946147079,0.17642040502566705
7.8000000000009395,0.10279341319244663,0.21099349710578
8.000000000001005,0.15092694000652526,0.23504475674193484
8.200000000000895,0.1949810601150883,0.24656955258050847
8.400000000000784,0.2382255587058334,0.246606323106301
8.600000000000673,0.2746904477439319,0.22890380327923543
8.800000000000562,0.29978187930291034,0.195972362443619
9.000000000000451,0.3155585788501608,0.15904637149995465
9.20000000000034,0.3288715637675369,0.11597349684238806
9.40000000000023,0.3343517246348674,0.07033168876109916
9.600000000000119,0.3341916547290943,0.01273572265580337
9.800000000000008,0.329323918598983,-0.035177745680119506
10.000999999999896,0.316355912794866,-0.07530948255943623
10.200999999999786,0.29634883046418237,-0.1092443448899399
10.400999999999675,0.2630888277424221,-0.13570261036937628
10.600999999999564,0.2269830581315858,-0.15250008067131526
10.800999999999453,0.18803198733753052,-0.15918564355409556
11.000999999999342,0.1453389594494777,-0.16131736449882933
11.200999999999231,0.11209076393540723,-0.15715733024971631
11.40099999999912,0.09268636526481519,-0.13633982931043354
11.60099999999901,0.07457961693829489,-0.10145000612486191
11.800999999998899,0.05797960900567078,-0.060400223113356216
12.000999999998788,0.05587760959828588,-0.025222505793134658
12.200999999998677,0.052106847073781104,0.022027649514695324
12.400999999998566,0.048593601917449214,0.07166379459537005
12.600999999998455,0.04969036346697332,0.12522007599116391
12.800999999998345,0.05955572776138937,0.1678324808993133
13.000999999998234,0.08255960127219338,0.1822299556133973
13.200999999998123,0.11808479638963083,0.1965792335466303
13.400999999998012,0.15455734909603194,0.1962421324693108
13.600999999997901,0.1884562219238419,0.1859288849445615
13.80099999999779,0.2027712033756835,0.1633258150771777
14.00099999999768,0.20096738951821125,0.1347019856964465
14.200999999997569,0.18950692684297027,0.10239698613074076
14.400999999997458,0.1741514959125784,0.07380587299647902
14.600999999997347,0.15053641882962857,0.06198944224283946
14.800999999997236,0.11783459727411828,0.0605762521766421
15.000999999997125,0.09161098506712007,0.069108984704267
15.200999999997014,0.07015176784543291,0.09492636323924132
15.400999999996904,0.056743239427701646,0.1298265918828702
15.600999999996793,0.052244617223707476,0.17275957592072477
15.800999999996682,0.05240016192587316,0.21293468531040377
16.000999999996573,0.07276997492105404,0.2284519920064932
16.200999999996817,0.10549862738354754,0.2330641075987923
16.40099999999706,0.1448551097294208,0.22569905199624288
16.600999999997306,0.1917998593987989,0.20681293601832365
16.80099999999755,0.2316055140010843,0.1769436754024733
17.000999999997795,0.24931288294593468,0.14032886380517443
17.20099999999804,0.2570229944035178,0.10016119888919825
17.400999999998284,0.262286313594229,0.056035051731393164
17.60099999999853,0.2601357601316574,0.009532278978040503
17.800999999998773,0.2589568996998248,-0.039066039672401624
18.000999999999017,0.2538199992002081,-0.08774863047535059
18.20099999999926,0.23432920464354168,-0.10903813015525537
18.400999999999506,0.19898716528441113,-0.11212757512310878
18.60099999999975,0.1571847328857583,-0.11373736627678656
18.799999999999994,0.1199843581325044,-0.11225346747698371
19.000000000000238,0.09674611600527858,-0.10406565136401749
19.200000000000482,0.097563641681417,-0.08658665626628899
19.400000000000727,0.10999602736454954,-0.06431857946707667
19.60000000000097,0.12825722267338505,-0.03547892743901616
19.800000000001216,0.1500191232436357,-0.0017430454682858135
20.00000000000146,0.18204628852020438,0.028078988003982484
