Time (s),X (m),Y (m)
0.001,0.00015606349793537,-0.0009963285817120471
0.20000000000000015,0.0007213212842544656,-0.0003942906059693581
0.4000000000000003,0.0014933085954727848,-7.698290160596331e-05
0.6000000000000004,0.0026557439860617022,-0.0003719749734003538
0.8000000000000006,0.003578612587016663,-0.001641938959729608
1.0000000000000007,0.005868058304583242,-0.0025859898535164783
1.2009999999999785,0.008620044972629488,0.00029312428199552174
1.4009999999999565,0.012045740472822059,0.0020652214501248388
1.6009999999999345,0.015674004345261096,0.006209701511462368
1.8009999999999124,0.01941250276210966,0.00796628056482697
2.0009999999998906,0.021490785000454024,0.008083709198369966
2.2009999999998686,0.024530047202709144,0.007037284626713416
2.4009999999998466,0.026744543344770375,0.005841897540601321
2.6009999999998246,0.030530703290117516,0.008963659965644731
2.8009999999998025,0.033625383223899234,0.012824749619952886
3.0009999999997805,0.0358629641805531,0.011289313070524306
3.2009999999997585,0.03894292818935408,0.013196064123568994
3.4009999999997365,0.041010212624354864,0.013603376561175114
3.6009999999997144,0.04476081992067152,0.013493155189944279
3.8009999999996924,0.047420228411757935,0.014201987922143621
4.000999999999671,0.052179710815962795,0.017849971171261546
4.200999999999738,0.0552182216502711,0.019831329118592707
4.400999999999804,0.06006536661514061,0.02164092590656457
4.600999999999871,0.06380686225622133,0.021265538869048275
4.800999999999938,0.06765835085739834,0.019935794728523394
5.000000000000004,0.07070634625274426,0.020614074278745273
5.200000000000071,0.07486119584548707,0.020408483805775285
5.400000000000138,0.07833384947739512,0.020027375547514967
5.600000000000205,0.08312443903386095,0.02091601523980384
5.800000000000272,0.08729220173560541,0.02173115947001693
6.000000000000338,0.09047633097041866,0.020258373774112062
6.200000000000405,0.09462373347275062,0.022355537510473405
6.400000000000472,0.09880549177764693,0.02159788352294792
6.600000000000539,0.10211350170089063,0.02130665804419291
6.800000000000606,0.1065656314544908,0.020759691950835553
7.000000000000672,0.10995275624303946,0.0199037587324625
7.200000000000739,0.11398001621997199,0.019886797850460117
7.400000000000806,0.11746602582391041,0.01807607528083039
7.600000000000873,0.12239726987810537,0.019387911958700224
7.8000000000009395,0.12711001566375973,0.022512895687064497
8.000000000001005,0.13062796532585272,0.021828254173111784
8.200000000000895,0.13502865070330075,0.021649692822400615
8.400000000000784,0.13848117438693117,0.020677066095410396
8.600000000000673,0.14255382949177767,0.01963840328284292
8.800000000000562,0.14646755803915285,0.020237484885386247
9.000000000000451,0.15065449348449705,0.019020927708841735
9.20000000000034,0.15465499673487876,0.01960582187222239
9.40000000000023,0.15859791119098973,0.01803032982799354
9.600000000000119,0.16275439646522977,0.017605701681543403
9.800000000000008,0.16690505980922735,0.018416633942735666
10.000999999999896,0.17244333657390928,0.019071011146238447
10.200999999999786,0.17673941852813077,0.018728633726404872
10.400999999999675,0.18130844451745087,0.02212778321205345
10.600999999999564,0.18729374124177758,0.024818455395509992
10.800999999999453,0.19292791706592463,0.024611521190593157
11.000999999999342,0.19677010709894652,0.02342782447200162
11.200999999999231,0.20195898574291712,0.022243267097172673
11.40099999999912,0.20698229814237082,0.025814082635583067
11.60099999999901,0.2111862655715209,0.02505708641916427
11.800999999998899,0.21531956355275475,0.024939317508140334
12.000999999998788,0.22069828759329013,0.023980163934651282
12.200999999998677,0.22548688162652752,0.023570337458015837
12.400999999998566,0.22975978979475736,0.022331745348295424
12.600999999998455,0.2342223842704901,0.021108771175104388
12.800999999998345,0.23861787119846173,0.021084745525641404
13.000999999998234,0.2434256197055235,0.022811138692000327
13.200999999998123,0.24831083763000703,0.02378342673604855
13.400999999998012,0.25366853887454804,0.025807623529899838
13.600999999997901,0.25831439341278106,0.02309929276838886
13.80099999999779,0.26309170544734606,0.02149250183902229
14.00099999999768,0.2682409055427514,0.021929441519641223
14.200999999997569,0.27361340170785986,0.02352329950095601
14.400999999997458,0.2789193263413727,0.025277522959797204
14.600999999997347,0.28410934504820956,0.025767039092273382
14.800999999997236,0.2887555350283807,0.024487700751771226
15.000999999997125,0.2939237207967796,0.02414357044136249
15.200999999997014,0.2990994380180962,0.0273593937141851
15.400999999996904,0.30434458966587447,0.026284827168122686
15.600999999996793,0.3109148749635381,0.027732376557954797
15.800999999996682,0.31585326915353684,0.029095904441499516
16.000999999996573,0.32188396745181136,0.027577350916577533
16.200999999996817,0.32714989011668805,0.027538156802233888
16.40099999999706,0.3331427248664187,0.027446638635677093
16.600999999997306,0.3384903591521681,0.0260701501692939
16.80099999999755,0.3441460569358629,0.025850525445469896
17.000999999997795,0.3492937436086806,0.024019813646878243
17.20099999999804,0.3543441993995648,0.025170565172407254
17.400999999998284,0.36021699063037915,0.026095036299202134
17.60099999999853,0.36540249376635564,0.02780692769904833
17.800999999998773,0.37132752229358623,0.031053318919734552
18.000999999999017,0.3765355715592689,0.030802676957689446
18.20099999999926,0.3813562328532944,0.03112664113450787
18.400999999999506,0.38697649204214013,0.030008856110649434
18.60099999999975,0.3925141488200935,0.029370447598991416
18.799999999999994,0.3980691387688517,0.03027307631515753
19.000000000000238,0.40305431027192246,0.031203960675164316
19.200000000000482,0.408811529579595,0.03237190278390355
19.400000000000727,0.41425853897412707,0.03428326956110009
19.60000000000097,0.4196739569720744,0.03419273739578699
19.800000000001216,0.4252873358702042,0.034607163748495255
20.00000000000146,0.43090605289525485,0.03509650070123212
