Time (s),X (m),Y (m)
0.001,-0.00036712694553334884,-0.000663019509439443
0.20000000000000015,0.0006413046586376187,-0.00019640172980735376
0.4000000000000003,0.001236147949397458,-3.9996537813935586e-05
0.6000000000000004,0.002192515931726843,0.0005264670867858915
0.8000000000000006,0.00309870437793555,0.0010001757369594586
1.0000000000000007,0.004320871106376492,0.001784694677687193
1.2009999999999785,0.005419557437565739,0.002469181833201119
1.4009999999999565,0.006529086548113736,0.0031897985385039925
1.6009999999999345,0.0076674182949900554,0.003959115311150037
1.8009999999999124,0.008814676862669728,0.004748918443490488
2.0009999999998906,0.010028348158525682,0.005612472186559053
2.2009999999998686,0.011298326605271327,0.006541422727261385
2.4009999999998466,0.012602207337048149,0.00751306739695355
2.6009999999998246,0.013920764084501427,0.008509617471461875
2.8009999999998025,0.015251167837930157,0.009530700453616758
3.0009999999997805,0.016598000904242276,0.010580446942636459
3.2009999999997585,0.017964719085313347,0.01166266758174446
3.4009999999997365,0.019350438201233697,0.012775946819671062
3.6009999999997144,0.020752921888587277,0.013919293785038705
3.8009999999996924,0.022168059479269527,0.015089499544191413
4.000999999999671,0.02359332852569742,0.016286014396402503
4.200999999999738,0.02502769345817841,0.017508730268911123
4.400999999999804,0.026470998252124827,0.018757379548409284
4.600999999999871,0.027922856656763296,0.020031744361569792
4.800999999999938,0.029382486601257224,0.02133147317395758
5.000000000000004,0.030838247001362375,0.02264218440509373
5.200000000000071,0.03231199817118177,0.02399196800990592
5.400000000000138,0.03379141591899104,0.025365929934669556
5.600000000000205,0.03527618573268188,0.026763441686639834
5.800000000000272,0.03676618416375694,0.028183949701024346
6.000000000000338,0.03826057715902071,0.02962662112278757
6.200000000000405,0.03975886729281788,0.031090897404585142
6.400000000000472,0.04126014191305886,0.03257610174905556
6.600000000000539,0.04276424022453594,0.03408193854508533
6.800000000000606,0.0442706837508532,0.03560823293579252
7.000000000000672,0.0457782683810896,0.037154177351342216
7.200000000000739,0.04728624484481251,0.03871927001462897
7.400000000000806,0.04879371573252643,0.04030293607921785
7.600000000000873,0.05029874732594727,0.04190372910587473
7.8000000000009395,0.05179627405431643,0.043518239199102936
8.000000000001005,0.053282324547861026,0.045144489178636366
8.200000000000895,0.05475605999508125,0.0467822608175717
8.400000000000784,0.05621675317032588,0.0484312932072156
8.600000000000673,0.05766391136614605,0.05009156502788657
8.800000000000562,0.05909695079495667,0.05176275782019481
9.000000000000451,0.060515000886085024,0.05344442716678166
9.20000000000034,0.06191721452214813,0.05513611822086026
9.40000000000023,0.06330292429972216,0.056837488328387746
9.600000000000119,0.06467158503347593,0.058548269753341674
9.800000000000008,0.06602260562997955,0.060268184718668745
10.000999999999896,0.06736202853451045,0.06201149425996166
10.200999999999786,0.0686752039221986,0.06374841543792024
10.400999999999675,0.06996868607724148,0.0654932896878346
10.600999999999564,0.07124179565356244,0.06724562269265871
10.800999999999453,0.07249387414501239,0.06900495845920622
11.000999999999342,0.07372428453337937,0.0707708081886436
11.200999999999231,0.07493272550171956,0.07254289296852982
11.40099999999912,0.07611868464670327,0.07432072136888902
11.60099999999901,0.0772815352629592,0.07610379971569764
11.800999999998899,0.07842068230879726,0.07789166574400343
12.000999999998788,0.07953556612556008,0.07968380805809455
12.200999999998677,0.0806256985592103,0.08147963825443597
12.400999999998566,0.08169085951991437,0.08327871666845424
12.600999999998455,0.08273069152588526,0.08508066912286802
12.800999999998345,0.08374485376620402,0.08688498817198395
13.000999999998234,0.08473269386910214,0.0886910961458471
13.200999999998123,0.08566429203418069,0.09050164626111357
13.400999999998012,0.08651947739814761,0.09231701542385701
13.600999999997901,0.0872989839967935,0.09413675973376501
13.80099999999779,0.08800346814318022,0.095960299471586
14.00099999999768,0.08863471350528326,0.09778724050990814
14.200999999997569,0.08919409665681804,0.09961728547704353
14.400999999997458,0.08968402843219689,0.10145051686283164
14.600999999997347,0.09010687846159461,0.10328676731364562
14.800999999997236,0.0904646184544816,0.10512591309803136
15.000999999997125,0.09075937599244553,0.10696787987327828
15.200999999997014,0.09099303579919625,0.10881252014973107
15.400999999996904,0.09116760563442766,0.11065972096701619
15.600999999996793,0.09128492020688188,0.11250951715406568
15.800999999996682,0.09134670610781091,0.11436190318558648
16.000999999996573,0.0913546856941177,0.11621681835598276
16.200999999996817,0.09131059757714464,0.11807431218739803
16.40099999999706,0.09121629653956485,0.11993447982692773
16.600999999997306,0.09107331515103245,0.1217973322818183
16.80099999999755,0.09088319881843397,0.12366289003525556
17.000999999997795,0.09064764127441394,0.125531220254837
17.20099999999804,0.0903682416028253,0.12740243337319074
17.400999999998284,0.09004727919499332,0.12927680390225582
17.60099999999853,0.0896936197764828,0.1311559941010587
17.800999999998773,0.08931376721046637,0.1330415563606107
18.000999999999017,0.08890812257830354,0.13493336404221692
18.20099999999926,0.088477094460172,0.13683120338899837
18.400999999999506,0.08802111049309598,0.1387348565927058
18.60099999999975,0.08754054503877128,0.14064412971599807
18.799999999999994,0.08704061175166244,0.14254420720229505
19.000000000000238,0.08651207638314694,0.14446413192192037
19.200000000000482,0.08595999308769141,0.1463890726878882
19.400000000000727,0.08538464263609541,0.14831881207064154
19.60000000000097,0.08478627372307695,0.1502530644481602
19.800000000001216,0.08416515140057802,0.1521915616027561
20.00000000000146,0.083521461046418,0.1541341024984777
