Time (s),X (m),Y (m)
0.001,0.0008589492133542695,0.0009348340498585851
0.20000000000000015,0.0007476359510230048,-0.0003814784788984076
0.4000000000000003,0.001323019115250017,0.000220065035968963
0.6000000000000004,0.001894038648214405,0.00034659346409394244
0.8000000000000006,0.00254113514516447,0.000512765431140256
1.0000000000000007,0.003210785231009993,0.0006644431935561267
1.2009999999999785,0.00395293085019104,0.0010964550709910302
1.4009999999999565,0.004578808512720992,0.0013390968193246668
1.6009999999999345,0.005170034858164031,0.0015431641359667108
1.8009999999999124,0.005803317503125742,0.001840270064612864
2.0009999999998906,0.006472381174017908,0.0021986777112319076
2.2009999999998686,0.007156961949207581,0.00258578006920548
2.4009999999998466,0.007840654610544145,0.0029912025094574863
2.6009999999998246,0.008515399181863824,0.0034019558462248076
2.8009999999998025,0.009183331684788128,0.0038171356654658015
3.0009999999997805,0.009849915113880519,0.004244806714212585
3.2009999999997585,0.010517772820906216,0.004688450756344061
3.4009999999997365,0.01118686443471641,0.005147198322280212
3.6009999999997144,0.011855351413926875,0.005618579373550168
3.8009999999996924,0.012522273815097023,0.0061006961745076055
4.000999999999671,0.013187081981961715,0.006592099349757337
4.200999999999738,0.01384953166914109,0.007092836263409167
4.400999999999804,0.014509917105862769,0.007602581017807146
4.600999999999871,0.015168142447626407,0.00812105591074259
4.800999999999938,0.01582409074260638,0.008647692657117253
5.000000000000004,0.016471715492651567,0.009169207783357643
5.200000000000071,0.01712234220641854,0.009710877915963947
5.400000000000138,0.01776967476023483,0.010259620522085802
5.600000000000205,0.018413590360249033,0.010814960191312289
5.800000000000272,0.019054215532942176,0.0113764943678112
6.000000000000338,0.01969135114827193,0.011944049745653164
6.200000000000405,0.020324822323048747,0.012517274957046446
6.400000000000472,0.020954550116446827,0.013095926657572398
6.600000000000539,0.0215802762243388,0.01367973169035159
6.800000000000606,0.022201715394966112,0.014268363542476268
7.000000000000672,0.022818833540901765,0.014861574901621462
7.200000000000739,0.023432036175219814,0.015459134928949037
7.400000000000806,0.02404815670926662,0.016060954777722063
7.600000000000873,0.02466905690505033,0.016666663812148142
7.8000000000009395,0.02529381694420546,0.017275866600580968
8.000000000001005,0.02591755697175945,0.017887350764522334
8.200000000000895,0.026534596806276827,0.0184998550259017
8.400000000000784,0.02714516608236609,0.01911346951182364
8.600000000000673,0.027749226225328133,0.01972818331401837
8.800000000000562,0.028346641341950016,0.020343937512401836
9.000000000000451,0.02893746785392203,0.020960609473062466
9.20000000000034,0.029522015112863058,0.021578029620608438
9.40000000000023,0.030100095887625432,0.02219605903132119
9.600000000000119,0.03067152250452427,0.02281457930608209
9.800000000000008,0.031236110184310804,0.023433498716294434
10.000999999999896,0.031797260445736636,0.02406439418284162
10.200999999999786,0.03234756816302008,0.024683915850296535
10.400999999999675,0.032890673908035795,0.025303762060095235
10.600999999999564,0.03342652898343987,0.025923802998781224
10.800999999999453,0.033955246160609465,0.02654389790043348
11.000999999999342,0.03447675811793353,0.027164067100131806
11.200999999999231,0.03499091006459291,0.027784300893053067
11.40099999999912,0.03549759319281795,0.02840453414973801
11.60099999999901,0.03599667811016405,0.02902470506300434
11.800999999998899,0.03648656297890618,0.02964490916680724
12.000999999998788,0.036958657786457336,0.03026586235564959
12.200999999998677,0.037411502478767594,0.030887664427618575
12.400999999998566,0.03784514308000768,0.031510324310411376
12.600999999998455,0.038259673871237326,0.03213383399989899
12.800999999998345,0.03865533555559586,0.03275819452014184
13.000999999998234,0.039032659929979695,0.03338335618420944
13.200999999998123,0.03939234167164229,0.03400929215016266
13.400999999998012,0.03973440856778502,0.034636050214015536
13.600999999997901,0.04005244755160335,0.03526432149756986
13.80099999999779,0.04033475061749656,0.035894441506367496
14.00099999999768,0.040580982027099685,0.036525958217960244
14.200999999997569,0.040791040597382394,0.03715865849177792
14.400999999997458,0.04096530405697439,0.037792425703878994
14.600999999997347,0.0411056174218376,0.03842719278880037
14.800999999997236,0.04121319147367561,0.03906288891980295
15.000999999997125,0.041288742787601765,0.03969937899735507
15.200999999997014,0.04133368573602343,0.040336646221618
15.400999999996904,0.04134977684277771,0.04097467155466771
15.600999999996793,0.04133781935800816,0.04161341361802327
15.800999999996682,0.04129951996333431,0.04225293383034116
16.000999999996573,0.04123868181167285,0.042893477112958996
16.200999999996817,0.04116283672398739,0.043535254518669075
16.40099999999706,0.04107443708393805,0.044178278229547535
16.600999999997306,0.040974129016099155,0.04482248900968697
16.80099999999755,0.040862295954663105,0.04546790157164142
17.000999999997795,0.0407404960839803,0.046114538347571586
17.20099999999804,0.04060831880040571,0.046762302000664634
17.400999999998284,0.04046522528604482,0.04741116160611451
17.60099999999853,0.040311369540218155,0.048061073654569984
17.800999999998773,0.04014798265095944,0.04871209719742143
18.000999999999017,0.03997628284411789,0.04936423214714722
18.20099999999926,0.039797891624291315,0.05001742168185995
18.400999999999506,0.039613892748901376,0.05067180395237754
18.60099999999975,0.0394249446603808,0.05132728544783174
18.799999999999994,0.039233632126796474,0.05197254195690139
19.000000000000238,0.0390362792946694,0.05263024919529445
19.200000000000482,0.03883465518944945,0.05328918198733883
19.400000000000727,0.03862879672334643,0.0539493303665215
19.60000000000097,0.03841874186822599,0.05461068915971561
19.800000000001216,0.038204525902528756,0.05527325352759067
20.00000000000146,0.037986176889275323,0.05593708177439397
