Time (s),X (m),Y (m)
0.001,0.0014193575185132074,-0.0002669654388657889
0.20000000000000015,0.0008531819458788715,-8.570246303590549e-05
0.4000000000000003,0.0015792866969579396,-0.0003234207513621623
0.6000000000000004,0.002555024375032246,-0.0008130980767635362
0.8000000000000006,0.003778764616941109,-0.0013523372604226282
1.0000000000000007,0.003751475349791089,-0.0010578702689373757
1.2009999999999785,0.003800328709929364,-0.0008096257576621415
1.4009999999999565,0.00366770549421334,-0.0004910142399036044
1.6009999999999345,0.004728548734884828,-0.0005467636639509727
1.8009999999999124,0.007096039577237995,-0.001243876626436953
2.0009999999998906,0.008928843585016976,-0.0016341982584630467
2.2009999999998686,0.011344465327888898,-0.002349085414657254
2.4009999999998466,0.013941840208347085,-0.0032720203874720367
2.6009999999998246,0.01698108507799953,-0.004059133362508979
2.8009999999998025,0.019874529586010728,-0.004843297713533164
3.0009999999997805,0.02280479992237416,-0.005520181050211848
3.2009999999997585,0.026012043981392608,-0.005978060519089836
3.4009999999997365,0.029427436366047673,-0.006325489423011334
3.6009999999997144,0.032940692560446225,-0.0065779696834772725
3.8009999999996924,0.036629072397484565,-0.006736263200566646
4.000999999999671,0.04035809744635446,-0.006791846318376961
4.200999999999738,0.04392750022649807,-0.006820978512748576
4.400999999999804,0.04802537310488699,-0.0065783406816059785
4.600999999999871,0.05181268814662623,-0.006352861920233627
4.800999999999938,0.05575141500957368,-0.0059900926011101545
5.000000000000004,0.05958047715885542,-0.005509646148853191
5.200000000000071,0.06345665323799311,-0.00471046185573457
5.400000000000138,0.06731534657751057,-0.003802126556930166
5.600000000000205,0.07144695871109664,-0.0025836030469770497
5.800000000000272,0.0757580339238331,-0.0011515135896087302
6.000000000000338,0.07941762244618425,0.0004522754108483892
6.200000000000405,0.08342198582885423,0.002391863302477709
6.400000000000472,0.08727430694848896,0.004263450169050982
6.600000000000539,0.09126120359152591,0.0063674197846928255
6.800000000000606,0.09602534656945198,0.00926222571605897
7.000000000000672,0.10108270579688552,0.012306551514454374
7.200000000000739,0.10591314460008136,0.015641576401831586
7.400000000000806,0.11048376016154009,0.018892407043372195
7.600000000000873,0.1149840870079127,0.022450159526254367
7.8000000000009395,0.11948998084252833,0.02577731443111122
8.000000000001005,0.12398926813805891,0.02947106207252108
8.200000000000895,0.12830924153897533,0.03310297821213318
8.400000000000784,0.13298070950708876,0.03695782384182291
8.600000000000673,0.13741494900636944,0.0405746774395548
8.800000000000562,0.14236321318377795,0.04451464362529889
9.000000000000451,0.14774517189356376,0.048844096793379796
9.20000000000034,0.1532291448780542,0.05355207493907696
9.40000000000023,0.15747662246616229,0.057497069597017766
9.600000000000119,0.16222504054196651,0.062279992676999754
9.800000000000008,0.16695595470789273,0.06680490453873145
10.000999999999896,0.17131144060844394,0.07130410034436391
10.200999999999786,0.17590819456170878,0.0761891795859158
10.400999999999675,0.1799385167267851,0.08075962435888405
10.600999999999564,0.18386438576188038,0.0851074592907646
10.800999999999453,0.18803462742902047,0.08969393999218729
11.000999999999342,0.1925473652803703,0.09524899126603975
11.200999999999231,0.1976742715597194,0.1005024961930698
11.40099999999912,0.20215478284220167,0.10637830243311334
11.60099999999901,0.20603522971469423,0.1106307330793675
11.800999999998899,0.210497396847359,0.11648054774811388
12.000999999998788,0.21501496475061774,0.12272963714065233
12.200999999998677,0.2200171018532813,0.12874870834018123
12.400999999998566,0.22442493765434948,0.13572260230897
12.600999999998455,0.22868091116546008,0.1426189753576175
12.800999999998345,0.23276123025156414,0.150418406806897
13.000999999998234,0.23776142384919557,0.15727379439614367
13.200999999998123,0.242216704017142,0.1640927361965003
13.400999999998012,0.24634314136618815,0.17222688405673817
13.600999999997901,0.25054448165124427,0.18049517468176446
13.80099999999779,0.2547101209002945,0.1886186352842888
14.00099999999768,0.25912478110102577,0.1972016419001244
14.200999999997569,0.2632054666020928,0.2050995020190393
14.400999999997458,0.26748187752495983,0.2136569393182998
14.600999999997347,0.27159692940691227,0.2223049684881109
14.800999999997236,0.27565458338416493,0.23037979367592595
15.000999999997125,0.2801019623610705,0.23944414490464805
15.200999999997014,0.28395026366339127,0.24733156530399056
15.400999999996904,0.2879174747124858,0.25678043313909815
15.600999999996793,0.29245067658448737,0.2663346501533768
15.800999999996682,0.2960171602806915,0.2754305848592099
16.000999999996573,0.29932249838552616,0.28424310199448716
16.200999999996817,0.30228577939863294,0.29320371003031953
16.40099999999706,0.3044955868861762,0.30183710135190217
16.600999999997306,0.30640765083986476,0.310571705899078
16.80099999999755,0.3084234789626736,0.3193866097189237
17.000999999997795,0.30994779779253206,0.3279720694571658
17.20099999999804,0.31099981497725926,0.33623178662352754
17.400999999998284,0.3123657129967261,0.3457036181538606
17.60099999999853,0.313306016176614,0.35483331034402626
17.800999999998773,0.3139905159245476,0.36423216325387403
18.000999999999017,0.3141201819835574,0.372694513879709
18.20099999999926,0.3139017988465165,0.3805306080370167
18.400999999999506,0.3132432521781593,0.38868471788593556
18.60099999999975,0.31250139287211487,0.39606937295203143
18.799999999999994,0.31270884714021907,0.4036797812708224
19.000000000000238,0.3114200781694785,0.41128061256258797
19.200000000000482,0.3102030791766564,0.41954395773282743
19.400000000000727,0.307539329464093,0.4275869133091278
19.60000000000097,0.30370660137606786,0.4358855452705579
19.800000000001216,0.3002362275596715,0.4431811327102352
20.00000000000146,0.2967801407673788,0.45088861724837587
