Time (s),X (m),Y (m)
0.001,-0.0005462407427453492,-0.00035278531233166996
0.20000000000000015,0.0019864540438453153,0.0005484278155953922
0.4000000000000003,-0.00048496316701780967,0.0011602043604914858
0.6000000000000004,-0.003990802004373557,0.003202630606955451
0.8000000000000006,0.0012738066367867953,0.010241292400223801
1.0000000000000007,0.005594791325643733,0.020394152887243628
1.2009999999999785,0.021570314737241213,0.026463294495807678
1.4009999999999565,0.03868583170570871,0.030014801496692174
1.6009999999999345,0.059743689991024015,0.02904468454608435
1.8009999999999124,0.08165623229099318,0.02050797952806896
2.0009999999998906,0.0984833384381992,0.007139592209468693
2.2009999999998686,0.12084001940407839,-0.00830200543629471
2.4009999999998466,0.1326482859329757,-0.022225661385043772
2.6009999999998246,0.14784044539464927,-0.04010039828688454
2.8009999999998025,0.17748230413653757,-0.061840217052818135
3.0009999999997805,0.206464070406611,-0.0858402006726887
3.2009999999997585,0.2265735201854643,-0.10953940313275473
3.4009999999997365,0.2492050530353468,-0.1414700162806
3.6009999999997144,0.2791011961340314,-0.17785899300974123
3.8009999999996924,0.3097716681815818,-0.211648437219124
4.000999999999671,0.3452498482350767,-0.2461287589168907
4.200999999999738,0.37872791649138937,-0.28143330729446814
4.400999999999804,0.423033134894927,-0.31535708059607237
4.600999999999871,0.47361036292450176,-0.35172786451935156
4.800999999999938,0.5219977274386552,-0.3949952635649761
5.000000000000004,0.5668241372827816,-0.438903941877549
5.200000000000071,0.6128102214715099,-0.48162236142922754
5.400000000000138,0.6566842465374079,-0.5245577042818419
5.600000000000205,0.6917442128674901,-0.5593600930964562
5.800000000000272,0.7249222681741058,-0.6019070561959744
6.000000000000338,0.755524859718169,-0.6445364139844352
6.200000000000405,0.7742876482373068,-0.6934548644145812
6.400000000000472,0.7798002603268362,-0.7467262257576476
6.600000000000539,0.7663021524469508,-0.7940991967471875
6.800000000000606,0.739773037423777,-0.834827079280077
7.000000000000672,0.7063170591243849,-0.8836263553122322
7.200000000000739,0.6686290895760375,-0.9473551811498024
7.400000000000806,0.6252162598819544,-1.011988678760786
7.600000000000873,0.578340512075619,-1.0705654668687534
7.8000000000009395,0.527548293013106,-1.1280513200238091
8.000000000001005,0.4742257171587336,-1.1859540950303016
8.200000000000895,0.4235053155423761,-1.2425270692258585
8.400000000000784,0.3767370042590911,-1.2975988167979164
8.600000000000673,0.32977844993095184,-1.3636996002800184
8.800000000000562,0.2860930499067128,-1.4441165411396146
9.000000000000451,0.2423058220464728,-1.522929370922434
9.20000000000034,0.19826750632866896,-1.588519236909744
9.40000000000023,0.14920056427846012,-1.6475782725238688
9.600000000000119,0.09800132015878359,-1.702215881134815
9.800000000000008,0.04328848300868123,-1.7607931490690474
10.000999999999896,-0.013310708701562432,-1.815022354015497
10.200999999999786,-0.07124770858120326,-1.8679059070841755
10.400999999999675,-0.1322886452858974,-1.9313979063990143
10.600999999999564,-0.19097911769453482,-1.9958663736430602
10.800999999999453,-0.24782132140215654,-2.0606884169859514
11.000999999999342,-0.30224902054128294,-2.1224975851536696
11.200999999999231,-0.3564998509342336,-2.1812810720344316
11.40099999999912,-0.4113770352865135,-2.241645123452802
11.60099999999901,-0.4650264024737936,-2.297039677230365
11.800999999998899,-0.5175469146115977,-2.3515705364243584
12.000999999998788,-0.5759831482434294,-2.4121648058164995
12.200999999998677,-0.639952635221394,-2.478676898309347
12.400999999998566,-0.7042818250779675,-2.547290852703975
12.600999999998455,-0.7721232494004425,-2.624712443724946
12.800999999998345,-0.8371002978086812,-2.694626437750877
13.000999999998234,-0.9034938287425073,-2.762493875509101
13.200999999998123,-0.9749470219521108,-2.8273833697176802
13.400999999998012,-1.0464928013791264,-2.8867575674237975
13.600999999997901,-1.109313634517528,-2.913057669421582
13.80099999999779,-1.1710817261075688,-2.9012156321896234
14.00099999999768,-1.2342434272047025,-2.8616862230280287
14.200999999997569,-1.2839024881260825,-2.8183575208877754
14.400999999997458,-1.3323130960929093,-2.7724125906256956
14.600999999997347,-1.3875716291904232,-2.719737981040818
14.800999999997236,-1.4412971811820723,-2.659849234908004
15.000999999997125,-1.4895546518901854,-2.592422155228865
15.200999999997014,-1.54116281947156,-2.5209113675725865
15.400999999996904,-1.59280629320117,-2.4504171402105657
15.600999999996793,-1.6377655462383327,-2.3778267813023315
15.800999999996682,-1.6631608909044566,-2.307329709832587
16.000999999996573,-1.6725831760794332,-2.2354384611592066
16.200999999996817,-1.6620880698589438,-2.1767591578639873
16.40099999999706,-1.624757591352455,-2.101222508375245
16.600999999997306,-1.5749265794927696,-2.0316647189530883
16.80099999999755,-1.5174421138710659,-1.9630438829386843
17.000999999997795,-1.4543255833475013,-1.8888051523059877
17.20099999999804,-1.3893260892333161,-1.8204628803328071
17.400999999998284,-1.3267148110016165,-1.7609047565750717
17.60099999999853,-1.2667276249129638,-1.7025741866586508
17.800999999998773,-1.2060859323556679,-1.645400458975249
18.000999999999017,-1.1436272082052743,-1.5894235924657116
18.20099999999926,-1.077643693028084,-1.5270639761972353
18.400999999999506,-1.0138358378208467,-1.4680709940869836
18.60099999999975,-0.9512473053681743,-1.4135662725339357
18.799999999999994,-0.8905332805828106,-1.3599630506761244
19.000000000000238,-0.829107642503044,-1.3008689351852643
19.200000000000482,-0.765203577275362,-1.2366114313941992
19.400000000000727,-0.7010462626081624,-1.1749052187966165
19.60000000000097,-0.6422538169799844,-1.1079525395942817
19.800000000001216,-0.5850588472328055,-1.03775556975311
20.00000000000146,-0.5218703464221578,-0.9689010188761409
