Time (s),X (m),Y (m)
0.001,0.0014388337585722719,0.00017911379721200063
0.20000000000000015,0.0008365029555869553,-8.299496839146791e-05
0.4000000000000003,0.0015570525590277765,6.889206844717224e-05
0.6000000000000004,0.002663424672496513,0.0006870917262851406
0.8000000000000006,0.004557049473272064,0.0018828466783664321
1.0000000000000007,0.006502783618630842,0.0030994129195023403
1.2009999999999785,0.008161327142649602,0.0045220975416185825
1.4009999999999565,0.009708391121485757,0.005976799303160594
1.6009999999999345,0.012390680916215807,0.007867144018730548
1.8009999999999124,0.014953791399163533,0.009696623872739413
2.0009999999998906,0.017620439677624097,0.011610880300841628
2.2009999999998686,0.020577728956775277,0.013762901812487743
2.4009999999998466,0.023593880088053062,0.015980666007432767
2.6009999999998246,0.02643929743558876,0.01827747026706042
2.8009999999998025,0.02952327836374651,0.020737784094818922
3.0009999999997805,0.03288636850290606,0.02342866496741901
3.2009999999997585,0.03581331804419792,0.026043634153711682
3.4009999999997365,0.039032488021697835,0.028789727781431206
3.6009999999997144,0.04233748104545216,0.03196377710990811
3.8009999999996924,0.045950280505169666,0.03535959578983466
4.000999999999671,0.049365885489194954,0.03931310624882111
4.200999999999738,0.05236649971875916,0.04311494708307
4.400999999999804,0.05563339725620973,0.047389136074040224
4.600999999999871,0.05872157860273974,0.05174303995776154
4.800999999999938,0.06200560845008972,0.05642603903826601
5.000000000000004,0.06506166449350262,0.060958695171017256
5.200000000000071,0.06876972595601012,0.06544330845684598
5.400000000000138,0.0720687457511191,0.069916780649555
5.600000000000205,0.07524415412192013,0.07475565579699199
5.800000000000272,0.07810961654207006,0.07860483651274124
6.000000000000338,0.08114816741970622,0.08246989666253447
6.200000000000405,0.0841307953933741,0.08687271089978947
6.400000000000472,0.08716741963262013,0.09151958045012147
6.600000000000539,0.090037009840181,0.09565021762410321
6.800000000000606,0.09276879520788657,0.09975966928593083
7.000000000000672,0.09579482605315892,0.10434840399367871
7.200000000000739,0.09885426591350652,0.1085488710401948
7.400000000000806,0.10178154439289722,0.1128942832866714
7.600000000000873,0.10496101015559843,0.11749205991726637
7.8000000000009395,0.10810166234616334,0.12214618572109279
8.000000000001005,0.11081382411374732,0.12620464182502916
8.200000000000895,0.11344274967014044,0.13029700595150406
8.400000000000784,0.11595147863615164,0.1348444457957585
8.600000000000673,0.11811915594999771,0.13835828689241886
8.800000000000562,0.11977829318644959,0.14170474833239147
9.000000000000451,0.12138693970308413,0.1450950503669701
9.20000000000034,0.12334694259456068,0.14927446718418932
9.40000000000023,0.12540885292209206,0.15342035837127763
9.600000000000119,0.12675998694744417,0.15685195535340704
9.800000000000008,0.12843566769949827,0.16250348049158517
10.000999999999896,0.12996988216534083,0.16662300517012438
10.200999999999786,0.131158940032813,0.1704062195557434
10.400999999999675,0.13224806754249777,0.17516073145681632
10.600999999999564,0.1332747720913157,0.17923045686757233
10.800999999999453,0.13389598409388082,0.18321936686752335
11.000999999999342,0.13434498853755605,0.1880264010015877
11.200999999999231,0.1346274838755209,0.1925865447552123
11.40099999999912,0.1347587538523113,0.19742096685971625
11.60099999999901,0.13463159909139155,0.20255885314594224
11.800999999998899,0.13428094448993552,0.2078207748554005
12.000999999998788,0.1336049195990614,0.21280722247302417
12.200999999998677,0.13255539186091106,0.21787640030182034
12.400999999998566,0.13094825762747192,0.22313484828619015
12.600999999998455,0.1290136530272285,0.2283652868883298
12.800999999998345,0.1272676376794368,0.23305948919373537
13.000999999998234,0.12514204973808124,0.2387090443226329
13.200999999998123,0.12262920035582033,0.24372175256208775
13.400999999998012,0.11996605530307829,0.2484857753399415
13.600999999997901,0.11738479919196669,0.2529232209477254
13.80099999999779,0.11452476818272683,0.2579131713648111
14.00099999999768,0.11113059540154141,0.2631320059696078
14.200999999997569,0.10762574341758235,0.2681225681390242
14.400999999997458,0.10433222274074828,0.27318919772072053
14.600999999997347,0.10094631031720408,0.2778674459554084
14.800999999997236,0.09800064531940594,0.28210997023700274
15.000999999997125,0.09450617065906677,0.28696590245556597
15.200999999997014,0.09026202517600768,0.29205313381218834
15.400999999996904,0.0861612149156946,0.2971273080415911
15.600999999996793,0.08197804861451533,0.3022307190649573
15.800999999996682,0.07752310451598711,0.3072098522582818
16.000999999996573,0.07280557935789478,0.3126666637490853
16.200999999996817,0.06819667228586478,0.31766949512447784
16.40099999999706,0.06371298387856437,0.3224077794816889
16.600999999997306,0.05891018413031003,0.32686776446758187
16.80099999999755,0.05508094237145175,0.3311048964944266
17.000999999997795,0.051259155154280096,0.3349027923074777
17.20099999999804,0.04555487775565199,0.339402411399963
17.400999999998284,0.03975676857483547,0.3445298096260333
17.60099999999853,0.034328717509985014,0.35012032081717587
17.800999999998773,0.029205838595201233,0.35553316676157226
18.000999999999017,0.02463793929287148,0.35980695963966797
18.20099999999926,0.02109783376045324,0.3630212153225179
18.400999999999506,0.017709390738242195,0.3658501414150489
18.60099999999975,0.01495653735340877,0.36752955256974973
18.799999999999994,0.01210429798359183,0.36917871191040624
19.000000000000238,0.009063378303480935,0.3710089818619241
19.200000000000482,0.006063666869533969,0.3727128245680396
19.400000000000727,0.003121037209982937,0.37424280506446345
19.60000000000097,8.311708456938854e-05,0.3758560234578429
19.800000000001216,-0.002921361963989988,0.37734110129137993
20.00000000000146,-0.006404213788660327,0.37909825926384944
