Time (s),X (m),Y (m)
0.001,0.0012131848191356664,-0.000663019509439443
0.20000000000000015,0.0003320176487306682,0.00021135236125619555
0.4000000000000003,0.005166548003507835,0.0021263473279093843
0.6000000000000004,0.013020427787713541,0.0023550283872487763
0.8000000000000006,0.029801121554485877,-0.0026121557389138816
1.0000000000000007,0.06135450963560463,-0.01219578280760094
1.2009999999999785,0.089269174248452,-0.030465534137844735
1.4009999999999565,0.11068449082880225,-0.04878869473529394
1.6009999999999345,0.12249536345666928,-0.06958716169336182
1.8009999999999124,0.13503243056591402,-0.09418528221193026
2.0009999999998906,0.14356447263190014,-0.11738252758840775
2.2009999999998686,0.14234806691210583,-0.14816366449370513
2.4009999999998466,0.1347420975567907,-0.17659558690543864
2.6009999999998246,0.12369009125625866,-0.2149029471270334
2.8009999999998025,0.11113820001146643,-0.2554341914712622
3.0009999999997805,0.09764589339500153,-0.2949014242646519
3.2009999999997585,0.08045468268338654,-0.3389764691967989
3.4009999999997365,0.052045919218309776,-0.39719498884689275
3.6009999999997144,0.03382955744479332,-0.4479668307333519
3.8009999999996924,0.021536307788445574,-0.49221032960389377
4.000999999999671,0.00990773214118041,-0.5343055537317237
4.200999999999738,-0.0032373805592849562,-0.5802957695980661
4.400999999999804,-0.014286533753844134,-0.6271519393442119
4.600999999999871,-0.031858579051600895,-0.686081276473692
4.800999999999938,-0.05393296604575565,-0.7477925336063819
5.000000000000004,-0.07493389907181187,-0.8102913631838456
5.200000000000071,-0.09541158439671359,-0.8687245051648976
5.400000000000138,-0.12007001770477224,-0.9192893194888555
5.600000000000205,-0.14733618669952792,-0.9716858724081949
5.800000000000272,-0.16619695294388134,-1.017530421938871
6.000000000000338,-0.20906100922169504,-1.0444778643623966
6.200000000000405,-0.26419121366903203,-1.0548184326734493
6.400000000000472,-0.32212200084043086,-1.0570070817437334
6.600000000000539,-0.3860728041638195,-1.047852362521857
6.800000000000606,-0.4514995569120276,-1.0362292979538776
7.000000000000672,-0.5256711277106968,-1.0133691305340506
7.200000000000739,-0.6048574648876311,-0.9832828360710716
7.400000000000806,-0.6725924874596544,-0.9446873407392566
7.600000000000873,-0.7210957597291305,-0.9065054117314909
7.8000000000009395,-0.7370724599854224,-0.8580146890309718
8.000000000001005,-0.720064206507396,-0.8041460017626589
8.200000000000895,-0.6710196377827927,-0.7599144111527735
8.400000000000784,-0.6033828035983466,-0.7448170141829706
8.600000000000673,-0.5257275337329298,-0.7566006202358363
8.800000000000562,-0.4485831958725437,-0.7816281004333177
9.000000000000451,-0.37488229699158043,-0.8036287306890696
9.20000000000034,-0.3074936540841349,-0.8210063692047077
9.40000000000023,-0.2475090983612127,-0.8314582662636134
9.600000000000119,-0.17235720104326,-0.8452904681419227
9.800000000000008,-0.08908255526758145,-0.8720899199983041
10.000999999999896,-0.01739469991837187,-0.92086971620351
10.200999999999786,0.02941294938672234,-0.9812373009951216
10.400999999999675,0.05624975743114643,-1.0450697594100007
10.600999999999564,0.06680663796948347,-1.1233093629836994
10.800999999999453,0.06283323093707209,-1.1979871503024027
11.000999999999342,0.03681597770200943,-1.2668925242536788
11.200999999999231,-0.012546926053298005,-1.3169244797264876
11.40099999999912,-0.052476035705535065,-1.355053308252122
11.60099999999901,-0.090951660872981,-1.3845740407914733
11.800999999998899,-0.13255334512979763,-1.4039471337207903
12.000999999998788,-0.18932315782195344,-1.4096867105844193
12.200999999998677,-0.2509221574457103,-1.4064602956196754
12.400999999998566,-0.3165026581250568,-1.3914546995824053
12.600999999998455,-0.37724661113001184,-1.3575783312916452
12.800999999998345,-0.40758300668143765,-1.312878957533195
13.000999999998234,-0.4064967513009405,-1.2550126142531683
13.200999999998123,-0.40087799146193975,-1.197026046300053
13.400999999998012,-0.38666751544775924,-1.1311524215212672
13.600999999997901,-0.3728902032357982,-1.0696921777259627
13.80099999999779,-0.35470054847787286,-1.007393999202434
14.00099999999768,-0.331501997397423,-0.930507304241582
14.200999999997569,-0.3184454336742326,-0.8549814016562195
14.400999999997458,-0.2988690885464746,-0.7809205220391532
14.600999999997347,-0.2687967073621141,-0.7057241607946525
14.800999999997236,-0.22788781560928523,-0.6306913919850624
15.000999999997125,-0.17306234409133506,-0.5661697827953537
15.200999999997014,-0.1174845334564664,-0.5188739008686288
15.400999999996904,-0.0560234542905439,-0.48699033165239153
15.600999999996793,0.0021750436897474417,-0.47376459681363525
15.800999999996682,0.06526999465702422,-0.4793559116101817
16.000999999996573,0.1307487523297458,-0.5002668470816528
16.200999999996817,0.18957974393319268,-0.5392117419742206
16.40099999999706,0.22584392594324626,-0.5933045873141974
16.600999999997306,0.24719370565832285,-0.6431605894428355
16.80099999999755,0.24946240169765618,-0.7016019085174258
17.000999999997795,0.24499046879370867,-0.7644491891649139
17.20099999999804,0.23091319058492202,-0.8351265012698532
17.400999999998284,0.21139400053402593,-0.9076393482283033
17.60099999999853,0.1867869509414243,-0.9829980338352552
17.800999999998773,0.1582356279253881,-1.0623371312209469
18.000999999999017,0.11416757072963127,-1.1506724185189579
18.20099999999926,0.07353365993917597,-1.234519833447435
18.400999999999506,0.03607939936931446,-1.3186278832106038
18.60099999999975,0.0059099176878919515,-1.4043498915036254
18.799999999999994,-0.024559571301572006,-1.4965648262112319
19.000000000000238,-0.05169038800083715,-1.5846556726072376
19.200000000000482,-0.09066583535621345,-1.654903772653017
19.400000000000727,-0.13850797002408646,-1.7040839365465477
19.60000000000097,-0.18479347559856896,-1.7347771905777298
19.800000000001216,-0.24702027793216386,-1.741456675536656
20.00000000000146,-0.31249250497445835,-1.730304357477563
