Time (s),X (m),Y (m)
0.001,0.0006021427340131596,0.0010158048217711127
0.20000000000000015,0.0008957153191790755,0.0001464213275906433
0.4000000000000003,0.0016349341000671295,0.00013277091322878677
0.6000000000000004,0.002488693758095167,-0.0010493757710863924
0.8000000000000006,0.004419003587155301,-0.0002835666809864945
1.0000000000000007,0.007666125673682255,-0.0020046557507717275
1.2009999999999785,0.010873758112745047,-0.00011108840216721586
1.4009999999999565,0.013499067934077465,0.0019110144642068387
1.6009999999999345,0.016817794532027256,0.005360380492099947
1.8009999999999124,0.019941810326513924,0.004583334249477611
2.0009999999998906,0.023666734864115583,0.008496154866174388
2.2009999999998686,0.02711398999461389,0.011040719110667447
2.4009999999998466,0.030056793381897127,0.011224044609338622
2.6009999999998246,0.0333742050352493,0.01492774635448263
2.8009999999998025,0.0382213233430749,0.01759370102270726
3.0009999999997805,0.03956537862896838,0.014854835187002728
3.2009999999997585,0.042154967440445106,0.01355098250599084
3.4009999999997365,0.04576489719939702,0.014253865332269229
3.6009999999997144,0.0495064616227049,0.015759658378397524
3.8009999999996924,0.053164003095055444,0.016622310711724837
4.000999999999671,0.05843995273094205,0.018161900516073828
4.200999999999738,0.06493624862645184,0.022596743699731057
4.400999999999804,0.06996020553514276,0.022972554207599902
4.600999999999871,0.07222945439029695,0.019941354303598592
4.800999999999938,0.07513712131514118,0.022534781912912697
5.000000000000004,0.08060342821097272,0.02413919104141674
5.200000000000071,0.08552205158697312,0.02411869066662915
5.400000000000138,0.08967389626414636,0.02642405854334289
5.600000000000205,0.09408800067043148,0.025909147512809243
5.800000000000272,0.09706790669902104,0.02492770753758031
6.000000000000338,0.10100151056948271,0.0243754531500631
6.200000000000405,0.10626984114881144,0.023398818454547127
6.400000000000472,0.1106249785344413,0.02277541033713426
6.600000000000539,0.11576179813815125,0.024172034912230952
6.800000000000606,0.12138150131587472,0.02422551444550387
7.000000000000672,0.12657049514975266,0.02341764978831089
7.200000000000739,0.130891461295957,0.021189621294450105
7.400000000000806,0.1351866902225379,0.02022605329199372
7.600000000000873,0.14126726806295423,0.018308937239090575
7.8000000000009395,0.1454611384429693,0.017578482195536572
8.000000000001005,0.15062860632940753,0.018093255698493467
8.200000000000895,0.1575666137069459,0.017551395473392756
8.400000000000784,0.16197594725406658,0.015579861400861586
8.600000000000673,0.16719423575772116,0.014287205095999197
8.800000000000562,0.1727956382953215,0.016646934708946532
9.000000000000451,0.17631309157319383,0.015271091152121257
9.20000000000034,0.18066836284581067,0.01626200827822935
9.40000000000023,0.18589665430454846,0.015622904232547002
9.600000000000119,0.19024966742348481,0.015762131347282275
9.800000000000008,0.19538849458540644,0.017917419075363813
10.000999999999896,0.20312281923755313,0.018622058763198203
10.200999999999786,0.20660720685282288,0.017599760729182855
10.400999999999675,0.21050530786408034,0.01849587108916876
10.600999999999564,0.2148917776630796,0.01238300278781468
10.800999999999453,0.2185936733836695,0.013192854670180413
11.000999999999342,0.22354629597866965,0.012384423052493076
11.200999999999231,0.22740464554665074,0.012244736890104564
11.40099999999912,0.2320063064573755,0.009888859115056919
11.60099999999901,0.23624828436643663,0.009614945821408594
11.800999999998899,0.2393964023071267,0.00799169997989278
12.000999999998788,0.24203491870846722,0.005718892498100129
12.200999999998677,0.24493336350091657,0.0026746295974461013
12.400999999998566,0.2509371235948354,0.0036606572129508877
12.600999999998455,0.2550006394217165,0.0031464843692327465
12.800999999998345,0.25836919026300764,0.0006772841102628656
13.000999999998234,0.2642924151790073,-0.0011329810265756995
13.200999999998123,0.27027043987584914,-0.0006361276402202015
13.400999999998012,0.2756296573777429,-0.0010915925805770076
13.600999999997901,0.2804896860722613,0.0011472263714683375
13.80099999999779,0.28636916443920074,0.0019226458640744318
14.00099999999768,0.29037485140327246,-0.001136227560969578
14.200999999997569,0.2951966229730539,0.0004948393497799495
14.400999999997458,0.3014681264671467,-0.00020882433576820434
14.600999999997347,0.30412253594650135,-0.003956026523826335
14.800999999997236,0.31019450087240036,-0.004757312949888974
15.000999999997125,0.3171859301395588,-0.0033678721992877656
15.200999999997014,0.3228182581062304,-0.0029356291013733896
15.400999999996904,0.32936595143891706,-0.003106835171388735
15.600999999996793,0.3346800533946034,-0.0023918405063956486
15.800999999996682,0.3388280857317613,-0.006037753345523295
16.000999999996573,0.34415568438665245,-0.003873542385729808
16.200999999996817,0.3468577140123594,-0.006307390448141677
16.40099999999706,0.35003864848497823,-0.008239071803270638
16.600999999997306,0.35342567425077737,-0.008327494927929481
16.80099999999755,0.3606427114656195,-0.0059213396067753
17.000999999997795,0.3662010658854132,-0.007996852778065375
17.20099999999804,0.37325223340139096,-0.0065008867500923745
17.400999999998284,0.3795215235099185,-0.0086582116418862
17.60099999999853,0.38448573689050264,-0.008315680722016322
17.800999999998773,0.38916648845349094,-0.010552610268114486
18.000999999999017,0.3935957531805786,-0.009247583167115232
18.20099999999926,0.3980447029786155,-0.010611657546570034
18.400999999999506,0.40344523629814255,-0.011473586626076894
18.60099999999975,0.4088092071610144,-0.010760491487659646
18.799999999999994,0.4137799164325038,-0.012335743560980677
19.000000000000238,0.41817484910448355,-0.015864075824940226
19.200000000000482,0.42408550421375785,-0.017647605145193368
19.400000000000727,0.42964465955613834,-0.020394067786671806
19.60000000000097,0.4358864658989854,-0.018835802690108
19.800000000001216,0.44229401711740135,-0.01782575497800962
20.00000000000146,0.446551908284636,-0.019624952429730523
