Time (s),X (m),Y (m)
0.001,-9.270868745296317e-05,-0.0008932837685830058
0.20000000000000015,0.0020313476491687203,0.0005735818775564406
0.4000000000000003,0.005736509819838029,0.003520640598054885
0.6000000000000004,0.016876298735523654,-0.002185970906489898
0.8000000000000006,0.027071688291073537,-0.009707472668276174
1.0000000000000007,0.04026738389809656,-0.006638200713421845
1.2009999999999785,0.0499660412657139,-0.010569059139039544
1.4009999999999565,0.06679513335483997,-0.013266059468561825
1.6009999999999345,0.08648755553849821,-0.017416094413613702
1.8009999999999124,0.10727720152156356,-0.017304282653529075
2.0009999999998906,0.12953136052870556,-0.012854824889265478
2.2009999999998686,0.14825031670556119,-0.009591198442363506
2.4009999999998466,0.1737692270373957,-0.0024811368474496266
2.6009999999998246,0.20123788844383053,7.400455659059e-05
2.8009999999998025,0.22505617379426418,-0.004271491317145495
3.0009999999997805,0.23844294442593986,-0.012054300409206645
3.2009999999997585,0.23938962652284299,-0.022295002179377996
3.4009999999997365,0.24855696235085442,-0.03701014091472683
3.6009999999997144,0.2689001112934529,-0.05297856305670217
3.8009999999996924,0.27732464289927977,-0.07460178887719729
4.000999999999671,0.30155782268831216,-0.10498126130820834
4.200999999999738,0.3287222644361827,-0.14546127079862625
4.400999999999804,0.3553979387341518,-0.18214784415608443
4.600999999999871,0.37206575100004824,-0.2249788511911626
4.800999999999938,0.3826321980264104,-0.26744210635804666
5.000000000000004,0.40208162586155194,-0.311313520999545
5.200000000000071,0.43045179664772243,-0.3584395722920285
5.400000000000138,0.4587838129768031,-0.40629715239669945
5.600000000000205,0.4886095898976957,-0.4613331392734547
5.800000000000272,0.5282944173678886,-0.5242754024801883
6.000000000000338,0.5794845126539856,-0.5781290733825086
6.200000000000405,0.6372697075331563,-0.6287590018163269
6.400000000000472,0.6910353254232454,-0.6795647061726064
6.600000000000539,0.7445455734028037,-0.7358781042636863
6.800000000000606,0.7942896299428459,-0.7884720560481112
7.000000000000672,0.8582486856002365,-0.8280176251882871
7.200000000000739,0.9216058418359593,-0.8493259255352109
7.400000000000806,0.9903772855233915,-0.8668784729594774
7.600000000000873,1.0417953499728498,-0.8924350874748997
7.8000000000009395,1.0740631426867537,-0.9258162004201439
8.000000000001005,1.0923644694514953,-0.9640661692795967
8.200000000000895,1.120991819840137,-1.017959991767661
8.400000000000784,1.1521961405092827,-1.0719205686993403
8.600000000000673,1.1795225604988486,-1.128959597586333
8.800000000000562,1.200938671150859,-1.188862744203627
9.000000000000451,1.2108816102738293,-1.2449546176159711
9.20000000000034,1.2114812930761165,-1.2941091215542004
9.40000000000023,1.2019790207880594,-1.3347136027699544
9.600000000000119,1.1817424198853401,-1.3741544233599714
9.800000000000008,1.1472400328296937,-1.4189039797716632
10.000999999999896,1.1015864677223646,-1.4648445958778493
10.200999999999786,1.0481525195973953,-1.506163278735551
10.400999999999675,0.991846242293392,-1.5397126672171386
10.600999999999564,0.9278297205297807,-1.5645467714251187
10.800999999999453,0.8657385740640918,-1.581239341035375
11.000999999999342,0.8071934286490213,-1.5921859760745607
11.200999999999231,0.73364437345007,-1.6108095974199113
11.40099999999912,0.648904524750497,-1.6269242052835635
11.60099999999901,0.569960735437715,-1.6395198805214943
11.800999999998899,0.500038257790433,-1.6416590666738706
12.000999999998788,0.4518803504720065,-1.6241887964656916
12.200999999998677,0.3967252571790112,-1.580130203252376
12.400999999998566,0.35996936022275344,-1.5288149357498
12.600999999998455,0.3356098331190924,-1.476033538376386
12.800999999998345,0.3033688810445278,-1.4086112679217186
13.000999999998234,0.2716319754450538,-1.3355774666896247
13.200999999998123,0.23334941236161097,-1.2542496143089032
13.400999999998012,0.20817805500676084,-1.1808238172086427
13.600999999997901,0.21157939984841248,-1.1244585994543776
13.80099999999779,0.22829877823743508,-1.0743427556425726
14.00099999999768,0.258991974353434,-1.0449490627654947
14.200999999997569,0.3078119541252872,-1.0156734782801828
14.400999999997458,0.365540057852566,-0.9858836561450909
14.600999999997347,0.4272059772666321,-0.9608663848989145
14.800999999997236,0.5025188781763663,-0.9404000697802088
15.000999999997125,0.560566926891354,-0.938693757690676
15.200999999997014,0.5996608690125194,-0.9600299734354404
15.400999999996904,0.6395514224633589,-0.9927698854876722
15.600999999996793,0.6908496760979693,-1.0360857149202218
15.800999999996682,0.7376612022750517,-1.0908488046240477
16.000999999996573,0.776699475527247,-1.1529781384838875
16.200999999996817,0.8095684087327936,-1.2134483032751162
16.40099999999706,0.8483191397668703,-1.2771399657409603
16.600999999997306,0.8943619833253839,-1.342477103601754
16.80099999999755,0.9373720681936398,-1.4090813420330393
17.000999999997795,0.9685081692820448,-1.4699545633264828
17.20099999999804,0.9933026384949538,-1.5320150636142167
17.400999999998284,1.0122808435813069,-1.5958200809119116
17.60099999999853,1.0385157816600812,-1.660807511963588
17.800999999998773,1.0584567694718596,-1.7214460534388845
18.000999999999017,1.0763080193928136,-1.7850733754618033
18.20099999999926,1.1049227087171616,-1.8516276619471017
18.400999999999506,1.1391400994099958,-1.916616899013296
18.60099999999975,1.172310249118215,-1.9834496492452465
18.799999999999994,1.201275559065972,-2.0504360421056758
19.000000000000238,1.2312842559956485,-2.1226166674360596
19.200000000000482,1.2713154526623458,-2.191518470756109
19.400000000000727,1.3204634440508782,-2.2480791890806526
19.60000000000097,1.370255444238416,-2.307771246471761
19.800000000001216,1.421398481350944,-2.375050175961824
20.00000000000146,1.4591240512106813,-2.4404119705649183
