Time (s),X (m),Y (m)
0.001,0.0013163127053841656,0.0005157376242541218
0.20000000000000015,0.0007132330156761987,9.234424474399866e-05
0.4000000000000003,0.002460905196721935,-0.0006782833773217659
0.6000000000000004,0.00463117787213989,0.0008476923075693938
0.8000000000000006,0.016817335173861955,0.004546172348797856
1.0000000000000007,0.044344028111650696,0.01463919829612734
1.2009999999999785,0.07090239235139141,0.02503739038765654
1.4009999999999565,0.0947508206882133,0.03279967188186817
1.6009999999999345,0.12381648760021552,0.04026689868926447
1.8009999999999124,0.15286132413603387,0.042419891050756574
2.0009999999998906,0.18049817264681386,0.03759280205153842
2.2009999999998686,0.20291907217130936,0.02513983719737444
2.4009999999998466,0.22179272151417997,0.008456852578885057
2.6009999999998246,0.25324535332734105,-0.011230927519021104
2.8009999999998025,0.28125944013934756,-0.03435677750590351
3.0009999999997805,0.3055093961617985,-0.05851962192165693
3.2009999999997585,0.3271774045225999,-0.08511567731829701
3.4009999999997365,0.3491791357589907,-0.10934804600578463
3.6009999999997144,0.3792222528136272,-0.1407728329209905
3.8009999999996924,0.4062481153543359,-0.16975315175766456
4.000999999999671,0.43326479135971113,-0.19713735270985355
4.200999999999738,0.4675269793192442,-0.22659476525156552
4.400999999999804,0.5038694227699033,-0.2603182908118817
4.600999999999871,0.5470184943870537,-0.2926448548742548
4.800999999999938,0.6031930016199061,-0.3288998707935889
5.000000000000004,0.6598220821194112,-0.36935140417484263
5.200000000000071,0.7022898599241333,-0.40874222039461156
5.400000000000138,0.7419881232380042,-0.4558388551451074
5.600000000000205,0.7703537139754961,-0.5015984457944964
5.800000000000272,0.7805514157786743,-0.5395810519242762
6.000000000000338,0.7668022585231679,-0.574895216150176
6.200000000000405,0.7384008949632352,-0.6139028218882795
6.400000000000472,0.7077422750901894,-0.6557039288947296
6.600000000000539,0.6782003672148081,-0.699423061196909
6.800000000000606,0.6468217300107367,-0.7444121492806897
7.000000000000672,0.6058882705190666,-0.7885254668852812
7.200000000000739,0.5600366428718031,-0.8306471993088105
7.400000000000806,0.5129002333477882,-0.8691066715402519
7.600000000000873,0.4682033691450534,-0.9052781479631141
7.8000000000009395,0.4307769808841234,-0.9524167244143391
8.000000000001005,0.4030465731613526,-0.9973523294959654
8.200000000000895,0.3908426816887351,-1.045949918571447
8.400000000000784,0.38649845220955614,-1.096442989619615
8.600000000000673,0.3686574136053533,-1.150534760654273
8.800000000000562,0.3362344650894846,-1.2001781993376885
9.000000000000451,0.29620362034314895,-1.241989787478328
9.20000000000034,0.2553051126113977,-1.2801791051428622
9.40000000000023,0.20767989489828123,-1.3289009851834588
9.600000000000119,0.15136554396127808,-1.3865782457868372
9.800000000000008,0.09181383583968174,-1.4425445424996217
10.000999999999896,0.03816364937707768,-1.4882681211329678
10.200999999999786,-0.013740054645463727,-1.5314691256741049
10.400999999999675,-0.06632381295085779,-1.5800899360282448
10.600999999999564,-0.12081298428448055,-1.6239558161398637
10.800999999999453,-0.1702384467248454,-1.6579528495539526
11.000999999999342,-0.2142766923767295,-1.6938216919938531
11.200999999999231,-0.26582190106265613,-1.749315533913947
11.40099999999912,-0.3222417924344311,-1.807961791172597
11.60099999999901,-0.3833237558020411,-1.8679549254172727
11.800999999998899,-0.4454844851055051,-1.9333068003937464
12.000999999998788,-0.509604957233664,-1.9967961021037344
12.200999999998677,-0.5671863928188408,-2.062442943146524
12.400999999998566,-0.6058360397980069,-2.127897732834262
12.600999999998455,-0.6397993581848042,-2.1828317569553914
12.800999999998345,-0.683954885904882,-2.228513304112166
13.000999999998234,-0.73161169015945,-2.2682857170309703
13.200999999998123,-0.7854808472356934,-2.3153127411209593
13.400999999998012,-0.8457487358880484,-2.380494630082411
13.600999999997901,-0.9112057949531277,-2.4504016552507695
13.80099999999779,-0.9765967718638124,-2.51244834943879
14.00099999999768,-1.0450869359104757,-2.5768629009962214
14.200999999997569,-1.1141981950631228,-2.6360521504587133
14.400999999997458,-1.184703841262817,-2.701147268876119
14.600999999997347,-1.2506851621612667,-2.7663768284784993
14.800999999997236,-1.314323673791088,-2.8355360809690158
15.000999999997125,-1.377633488643973,-2.894749518907921
15.200999999997014,-1.4457136034032478,-2.9485103772789363
15.400999999996904,-1.5153427065182001,-3.000205830331662
15.600999999996793,-1.5778273947441563,-3.044628826285862
15.800999999996682,-1.6443815458650235,-3.0831515077368263
16.000999999996573,-1.7103358750443625,-3.096680612504309
16.200999999996817,-1.7691511685200305,-3.078514645736978
16.40099999999706,-1.8237737599548771,-3.0405557917495196
16.600999999997306,-1.870726057604077,-2.9954021865449185
16.80099999999755,-1.9303754050076394,-2.948658031570713
17.000999999997795,-1.9922546757879713,-2.8982521537408052
17.20099999999804,-2.0559104383941995,-2.837963113000914
17.400999999998284,-2.111359522814856,-2.7761819123950544
17.60099999999853,-2.1656183580495885,-2.7115958674353333
17.800999999998773,-2.2296363654840308,-2.6455707212408806
18.000999999999017,-2.29622254545084,-2.5738946238601703
18.20099999999926,-2.360859696555961,-2.501774625982923
18.400999999999506,-2.421525810684955,-2.4328075483707488
18.60099999999975,-2.4825108886863774,-2.3667971161305386
18.799999999999994,-2.528658288253601,-2.303681256267727
19.000000000000238,-2.5648627081737816,-2.2432994979289274
19.200000000000482,-2.615096525798557,-2.1921471305495572
19.400000000000727,-2.690945860634275,-2.1408601409025096
19.60000000000097,-2.7680438368191838,-2.0896465108809528
19.800000000001216,-2.8448309317259173,-2.031963219714632
20.00000000000146,-2.919129323316622,-1.9704168801855129
