Time (s),X (m),Y (m)
0.001,0.00033312994539159724,0.0010275501737767782
0.20000000000000015,0.0008104814119952634,5.0130354752349664e-05
0.4000000000000003,0.0013160078483701492,-0.00011634928495220175
0.6000000000000004,0.0019235881502765778,-0.0001235279699019205
0.8000000000000006,0.002643087741977101,-0.00019602055531850403
1.0000000000000007,0.003491336497885896,-0.0003974889869887517
1.2009999999999785,0.004373034875889516,-0.0006087298717053925
1.4009999999999565,0.005254744435706818,-0.0007260237440715661
1.6009999999999345,0.006150258472346563,-0.0008706035483020956
1.8009999999999124,0.007088681993032464,-0.0010169611616061818
2.0009999999998906,0.008079127433204634,-0.0011660257116633149
2.2009999999998686,0.009097444631733736,-0.0013237750686787288
2.4009999999998466,0.010181988750113174,-0.0015044388432048292
2.6009999999998246,0.011318877571516058,-0.0017067920544048705
2.8009999999998025,0.01246884447507328,-0.0019137648474297027
3.0009999999997805,0.013664393452922438,-0.0021315808925146487
3.2009999999997585,0.014917963524671106,-0.0023627955820048935
3.4009999999997365,0.01623159228339606,-0.0026073982002879953
3.6009999999997144,0.017589119202419155,-0.002863341702451638
3.8009999999996924,0.01897485405533666,-0.003129059503098358
4.000999999999671,0.020383238417913833,-0.0034057022044653505
4.200999999999738,0.02179098250807604,-0.0036937838209111706
4.400999999999804,0.023169966330120396,-0.003993679494500295
4.600999999999871,0.02452209845928766,-0.0043086527431244505
4.800999999999938,0.025846128450147103,-0.0046395809142001695
5.000000000000004,0.02712925295409534,-0.004973834043873441
5.200000000000071,0.028391148453248544,-0.005335678279218384
5.400000000000138,0.029617965557317247,-0.005710153782158285
5.600000000000205,0.03080679931866537,-0.006097212248815633
5.800000000000272,0.031953713018445254,-0.006495378088043509
6.000000000000338,0.03306757861026611,-0.006904870094181975
6.200000000000405,0.0341124408998002,-0.00754778972480421
6.400000000000472,0.03514965513912485,-0.008292008521729488
6.600000000000539,0.03624002731537326,-0.009027549729982086
6.800000000000606,0.03735539399272885,-0.009834869270435951
7.000000000000672,0.03865551197135979,-0.01055309175807154
7.200000000000739,0.0405523345957521,-0.011031897660432647
7.400000000000806,0.04166082898127702,-0.01182425666814879
7.600000000000873,0.042833394229784015,-0.012659498044579838
7.8000000000009395,0.04396438140003754,-0.013439783121760996
8.000000000001005,0.0449252088658042,-0.014141140231843765
8.200000000000895,0.04583372427160016,-0.014808639493679039
8.400000000000784,0.047319947985466355,-0.015533593515543063
8.600000000000673,0.04966108808052284,-0.01573448700805456
8.800000000000562,0.05098667628116097,-0.016164916199191217
9.000000000000451,0.05205835701409355,-0.016846666933632688
9.20000000000034,0.053143977881060685,-0.017551974278068188
9.40000000000023,0.054192741754658116,-0.018143249865813234
9.600000000000119,0.0552596385529333,-0.018749309387155848
9.800000000000008,0.05632451507734579,-0.019317504006973935
10.000999999999896,0.05744102319070755,-0.01984295550191117
10.200999999999786,0.0584891956112548,-0.02031892907114331
10.400999999999675,0.059615448526537065,-0.020714281430517255
10.600999999999564,0.06072127517166392,-0.021068876184027103
10.800999999999453,0.061747319526060995,-0.021296702377802745
11.000999999999342,0.0627304944139129,-0.021447242303522466
11.200999999999231,0.06356152532129268,-0.021478828170182727
11.40099999999912,0.06436823042150734,-0.021397971494472843
11.60099999999901,0.06516172889231983,-0.021192579674449253
11.800999999998899,0.06595028925015178,-0.020836499549035277
12.000999999998788,0.0667344453431701,-0.020322774400008552
12.200999999998677,0.06753135313121582,-0.01961341420930432
12.400999999998566,0.06836307499253355,-0.018765682043181926
12.600999999998455,0.06923755253971949,-0.01779763200912801
12.800999999998345,0.07016073658826233,-0.016716814032344648
13.000999999998234,0.07113507496626678,-0.015529230302675024
13.200999999998123,0.07216127577405794,-0.014234695061745864
13.400999999998012,0.07323944988701958,-0.012833994531480201
13.600999999997901,0.0742193995780332,-0.01134586694307669
13.80099999999779,0.07495863933601517,-0.009753644268534232
14.00099999999768,0.07578944453213984,-0.008054532962560087
14.200999999997569,0.07663534290936586,-0.006308852833798116
14.400999999997458,0.07749577739404963,-0.004464102408961088
14.600999999997347,0.07845011075602684,-0.0025886756790940747
14.800999999997236,0.07939035037046437,-0.0005901023399177365
15.000999999997125,0.08038802759270879,0.0014434377021278423
15.200999999997014,0.0814378363262403,0.00357572022097121
15.400999999996904,0.08253837167395149,0.005810776661706387
15.600999999996793,0.08368045782006997,0.008102084745894881
15.800999999996682,0.08484205563398492,0.010376236669663873
16.000999999996573,0.0859805841130054,0.012669232648131615
16.200999999996817,0.08706054233851204,0.014865036659940087
16.40099999999706,0.08808778173144644,0.016943885956365073
16.600999999997306,0.0889209690960042,0.01883453891498827
16.80099999999755,0.08979053341051534,0.020664733597201987
17.000999999997795,0.090986583510014,0.022607973535738946
17.20099999999804,0.09220683591366646,0.024499124136537632
17.400999999998284,0.09344832676969653,0.026327908676151618
17.60099999999853,0.09450526006281633,0.028174174882881382
17.800999999998773,0.09536168495220437,0.03080968770677211
18.000999999999017,0.09637069709718306,0.0335958837713351
18.20099999999926,0.0974540749020493,0.036037446412584835
18.400999999999506,0.0985301636187889,0.037499626914734914
18.60099999999975,0.09962932309305951,0.038965549110379624
18.799999999999994,0.10067064387116814,0.04049416115353198
19.000000000000238,0.10171660555254926,0.04202482323627547
19.200000000000482,0.10272419269459053,0.04351257192673421
19.400000000000727,0.10367093725020984,0.04493247245320805
19.60000000000097,0.10455451299677224,0.04631294211018465
19.800000000001216,0.10538991656017765,0.047666771134521405
20.00000000000146,0.10618337327189323,0.04899240913608508
