Time (s),X (m),Y (m)
0.001,-0.0004702548317818469,-0.0005157376242541218
0.20000000000000015,0.0018984816026627225,0.0005956567921783959
0.4000000000000003,0.0056053765339738985,0.00438252000353657
0.6000000000000004,0.016108538376550748,0.009952245698665645
0.8000000000000006,0.021672479848225106,0.019228572166089846
1.0000000000000007,0.038117453804805336,0.036541330115938096
1.2009999999999785,0.05840114390194011,0.0526582757461066
1.4009999999999565,0.0659304155892772,0.06660803355930695
1.6009999999999345,0.0755911652974503,0.07229429638166544
1.8009999999999124,0.09019687894354109,0.07200955013585862
2.0009999999998906,0.12344284235623482,0.06595297417878598
2.2009999999998686,0.15347464817060272,0.054888473610602194
2.4009999999998466,0.1858520345408728,0.03469102350260712
2.6009999999998246,0.2125546110276788,0.015104638670525014
2.8009999999998025,0.2323049647425644,-0.0029714171842327264
3.0009999999997805,0.24383103539051,-0.028609752658235225
3.2009999999997585,0.25177030268699374,-0.05535050532758313
3.4009999999997365,0.25174841109330776,-0.08292538058630033
3.6009999999997144,0.24178797570181454,-0.11104115793748319
3.8009999999996924,0.23284407499445614,-0.12599441126065092
4.000999999999671,0.22670995820702858,-0.140440287186335
4.200999999999738,0.21946275325145706,-0.1615473066150326
4.400999999999804,0.21081886852999893,-0.18997490498590028
4.600999999999871,0.19540969991425616,-0.21194488838862183
4.800999999999938,0.17144431046889447,-0.2384608078219874
5.000000000000004,0.13682175535129992,-0.2735848150100028
5.200000000000071,0.0994835653992273,-0.3036777123657648
5.400000000000138,0.05775488957500151,-0.3330394998612998
5.600000000000205,0.004238635850041871,-0.3603828637484808
5.800000000000272,-0.05544415927352877,-0.3721267217947178
6.000000000000338,-0.10814428903388328,-0.36764661072427424
6.200000000000405,-0.1545806324008345,-0.34034419256226517
6.400000000000472,-0.20369001288478844,-0.2986104378959735
6.600000000000539,-0.2556224678239623,-0.25056827383804126
6.800000000000606,-0.3031257332703201,-0.20175912013636454
7.000000000000672,-0.3498086237840306,-0.15047706586972484
7.200000000000739,-0.3934654290708195,-0.09884001132606916
7.400000000000806,-0.44690332214266704,-0.04504105374296103
7.600000000000873,-0.4872102388620088,0.009726180835341701
7.8000000000009395,-0.5345136259648458,0.06747288913006426
8.000000000001005,-0.5782196197111871,0.12328753449544622
8.200000000000895,-0.6236279886886651,0.18203546499544915
8.400000000000784,-0.6681600126640408,0.24955329177931318
8.600000000000673,-0.7061540626505369,0.3099916504836968
8.800000000000562,-0.7337178662084052,0.3568208291660224
9.000000000000451,-0.7427479862527253,0.3861688263629462
9.20000000000034,-0.7211043565852512,0.4141079430345381
9.40000000000023,-0.6748618065076517,0.4520796647478308
9.600000000000119,-0.6163247568113845,0.4950511110535564
9.800000000000008,-0.5519687282579724,0.5362278464996976
10.000999999999896,-0.48439841963076286,0.5755695189614165
10.200999999999786,-0.41541992009512024,0.6102042737322
10.400999999999675,-0.34362772436851,0.6408209156073729
10.600999999999564,-0.27707092347856893,0.6685600746211899
10.800999999999453,-0.21203357984159246,0.6943940378900841
11.000999999999342,-0.13284038216315885,0.7206402989301711
11.200999999999231,-0.06944561760813715,0.7299258379507066
11.40099999999912,-0.002697876179693604,0.7188131246896908
11.60099999999901,0.06774409705965928,0.6853368917645636
11.800999999998899,0.13049783911140697,0.6386734165437324
12.000999999998788,0.19376530055933075,0.5809981926125214
12.200999999998677,0.26125390754647737,0.5152803729508988
12.400999999998566,0.3170045805344984,0.45034891533830934
12.600999999998455,0.3672066705063677,0.3871627161139737
12.800999999998345,0.41369264285129503,0.3262476407894965
13.000999999998234,0.46087895792219286,0.25895607807256144
13.200999999998123,0.5086503437928815,0.18956451379767705
13.400999999998012,0.5392676109536585,0.11931408048830397
13.600999999997901,0.5475362461346587,0.0570574141875708
13.80099999999779,0.5315584896151727,-0.0018692323837473032
14.00099999999768,0.4913894217517623,-0.0630835820485519
14.200999999997569,0.43537772208423225,-0.1275142629177364
14.400999999997458,0.37389586210394926,-0.1924876597528959
14.600999999997347,0.3120176104665527,-0.25899837780648843
14.800999999997236,0.24370633829299218,-0.32131492413193163
15.000999999997125,0.17506893003659846,-0.37885815742772283
15.200999999997014,0.10940111751662186,-0.42488565161492403
15.400999999996904,0.04689168760107573,-0.45016779536469836
15.600999999996793,-0.01403724334418676,-0.45619636297659993
15.800999999996682,-0.07441188235680665,-0.44577996677632725
16.000999999996573,-0.12672082790835704,-0.42846768832691423
16.200999999996817,-0.17383332939906565,-0.4025957719361095
16.40099999999706,-0.22823694193972446,-0.36666636643137407
16.600999999997306,-0.29190668912486833,-0.32161616515301167
16.80099999999755,-0.34571415672485656,-0.26816797605127807
17.000999999997795,-0.3879878488888988,-0.21315280586980964
17.20099999999804,-0.44426398885297635,-0.15317051783046395
17.400999999998284,-0.500904745364103,-0.09267225066222683
17.60099999999853,-0.5626882860586895,-0.030496662946103047
17.800999999998773,-0.6215143409046026,0.030758653862962504
18.000999999999017,-0.6728636959021073,0.09401093824685067
18.20099999999926,-0.7258736637743045,0.16100575141263876
18.400999999999506,-0.7875255508252688,0.23212367711953716
18.60099999999975,-0.8502063477323311,0.30405175467059664
18.799999999999994,-0.9163971425297819,0.38094564222922567
19.000000000000238,-0.9938383465174903,0.47100375303562503
19.200000000000482,-1.0757055548722452,0.5681061646447884
19.400000000000727,-1.1471930851757377,0.6813751638618906
19.60000000000097,-1.1977657175671828,0.7844102432406155
19.800000000001216,-1.2099961954118195,0.8574183378264839
20.00000000000146,-1.190394723180538,0.9212187193414036
