Time (s),X (m),Y (m)
0.001,0.0013578629866597446,-0.0004359202765531099
0.20000000000000015,0.0009625298628583054,-0.0001870787952994716
0.4000000000000003,0.0023544993240139705,-0.0008964986521269876
0.6000000000000004,0.0073007833824605736,-0.003656188083745697
0.8000000000000006,0.012537778196981372,-0.00544905642789965
1.0000000000000007,0.01825962811947762,-0.008251876880521352
1.2009999999999785,0.02737012182608443,-0.010466789454561035
1.4009999999999565,0.035905575009159155,-0.012575875711993681
1.6009999999999345,0.042843628040301875,-0.01451562262253533
1.8009999999999124,0.05424232520121744,-0.018833363534200648
2.0009999999998906,0.06619775842976383,-0.0236746197818709
2.2009999999998686,0.07690767019909896,-0.028626751553519725
2.4009999999998466,0.0794412118709123,-0.0272011895365658
2.6009999999998246,0.08745583173612113,-0.027622379524903148
2.8009999999998025,0.0979766615948561,-0.029970424161043126
3.0009999999997805,0.11185831344367733,-0.03554929364254437
3.2009999999997585,0.1197284462452802,-0.03713880288902796
3.4009999999997365,0.127948930265245,-0.04086939729652734
3.6009999999997144,0.13343360879316848,-0.043938055325286544
3.8009999999996924,0.14518139294895183,-0.05005027810894435
4.000999999999671,0.15172909941336268,-0.05332134449798714
4.200999999999738,0.16527605926341538,-0.056872090310446544
4.400999999999804,0.16921532850059212,-0.055698805564434024
4.600999999999871,0.18085898591829244,-0.06026998787057145
4.800999999999938,0.19056073353656158,-0.0635860483211948
5.000000000000004,0.20377688922734677,-0.0680885431767014
5.200000000000071,0.21994758251782853,-0.07334263336004285
5.400000000000138,0.23438482776051384,-0.08196663075650046
5.600000000000205,0.2449933040864296,-0.08561982473289881
5.800000000000272,0.2615962744900351,-0.08942251336400321
6.000000000000338,0.2742593337417786,-0.09166093108404785
6.200000000000405,0.2855120741644109,-0.09405611329206318
6.400000000000472,0.29491689027215495,-0.09824945779264321
6.600000000000539,0.30384989683799024,-0.10180702855542383
6.800000000000606,0.31595729157380537,-0.10532744906417299
7.000000000000672,0.32607628495001145,-0.10802763535264036
7.200000000000739,0.3366890576448968,-0.10982620511879074
7.400000000000806,0.3476859718908691,-0.11063156359431749
7.600000000000873,0.3576420170344605,-0.11163759961458244
7.8000000000009395,0.3721868789003846,-0.1158098904822441
8.000000000001005,0.3858321035878284,-0.12007944980131503
8.200000000000895,0.4028636974735916,-0.12812402006241255
8.400000000000784,0.41873263181429243,-0.13455233982514142
8.600000000000673,0.43559610483840416,-0.1396607411502372
8.800000000000562,0.45360584873832055,-0.14802246467530603
9.000000000000451,0.46929117881207716,-0.15077358521378448
9.20000000000034,0.4823298686850918,-0.1554687689774689
9.40000000000023,0.5016257509054384,-0.1638703405362228
9.600000000000119,0.5175014233867572,-0.16951552181372623
9.800000000000008,0.5303188018714555,-0.16944116563386372
10.000999999999896,0.5424537118486497,-0.17398760394696988
10.200999999999786,0.5566118363859531,-0.17643304402585955
10.400999999999675,0.5720364620741936,-0.17966187510643716
10.600999999999564,0.5856195728229213,-0.18628596935440356
10.800999999999453,0.60241671680631,-0.19515795111745068
11.000999999999342,0.6196091078261715,-0.19972842762531096
11.200999999999231,0.6333966497148565,-0.20382059847613382
11.40099999999912,0.6450408037059207,-0.20871020548631278
11.60099999999901,0.6579794817595115,-0.21566531005995337
11.800999999998899,0.6692032622055883,-0.22229025979200126
12.000999999998788,0.6818480139774971,-0.23027677375773914
12.200999999998677,0.6929278962999095,-0.24164451167506362
12.400999999998566,0.7010187473206436,-0.2502079849697355
12.600999999998455,0.7050276429765625,-0.2595662184099362
12.800999999998345,0.7075638935935974,-0.2693896415442553
13.000999999998234,0.7103527440708984,-0.2846458056771105
13.200999999998123,0.7122663109631834,-0.3000949038677282
13.400999999998012,0.7137843027241917,-0.3110123979226596
13.600999999997901,0.7145670656929265,-0.3209684187745421
13.80099999999779,0.7143335681505092,-0.3310378119855537
14.00099999999768,0.713205906597458,-0.3412486548805634
14.200999999997569,0.7113636677769298,-0.3589388216647916
14.400999999997458,0.7090401027389912,-0.37314620416477345
14.600999999997347,0.7095362512829608,-0.38553056916790696
14.800999999997236,0.7084925849233924,-0.39814461456035116
15.000999999997125,0.7074768646446795,-0.4074590848438756
15.200999999997014,0.7032887721699937,-0.42411220229438434
15.400999999996904,0.698685292070347,-0.44336747713037894
15.600999999996793,0.6975251753621395,-0.4569604582979908
15.800999999996682,0.6965424962111322,-0.4703377836687904
16.000999999996573,0.6934658862734142,-0.48345297672351517
16.200999999996817,0.688402821090503,-0.5042543428536334
16.40099999999706,0.6878143516074136,-0.5179059525103341
16.600999999997306,0.6837406195116998,-0.5366850086543913
16.80099999999755,0.6776681971461395,-0.5576400517072763
17.000999999997795,0.6745903604894204,-0.5734116632007318
17.20099999999804,0.6703345511698465,-0.5894723129795183
17.400999999998284,0.6672877326627765,-0.6073718552631029
17.60099999999853,0.6629974353880845,-0.622492917173125
17.800999999998773,0.6599654249712844,-0.637089711869295
18.000999999999017,0.6567935775483149,-0.6516322827993182
18.20099999999926,0.6513547015071088,-0.6677097091344184
18.400999999999506,0.6499879728192628,-0.6797477445902673
18.60099999999975,0.6460558052213764,-0.6926487761416579
18.799999999999994,0.6412724949285579,-0.7097022152545174
19.000000000000238,0.6351450925716913,-0.7295008093675249
19.200000000000482,0.6320721573108635,-0.7475443462594685
19.400000000000727,0.6279983606631374,-0.7637266301671204
19.60000000000097,0.621436269888304,-0.7851343538030278
19.800000000001216,0.6167583765861385,-0.804431898197379
20.00000000000146,0.6162372867826384,-0.8204552958038976
