Time (s),X (m),Y (m)
0.001,0.0009387665610552813,0.0008932837685830061
0.20000000000000015,0.0008335216076520317,-0.00029785426237877903
0.4000000000000003,0.004094328884755563,0.0020651374211271686
0.6000000000000004,0.010196905724128635,0.005646019124722696
0.8000000000000006,0.02270276536486972,0.0190630149227979
1.0000000000000007,0.03673959637795339,0.03091898573533995
1.2009999999999785,0.04818746599744043,0.024621951612415482
1.4009999999999565,0.06342454907480016,0.028675499446115842
1.6009999999999345,0.08019013681305232,0.0450633041130499
1.8009999999999124,0.10027976117955971,0.059625186461644074
2.0009999999998906,0.1226831132331352,0.07577972109508249
2.2009999999998686,0.14385999595897658,0.08799315986853778
2.4009999999998466,0.1670216709167169,0.09169753070882732
2.6009999999998246,0.18829761011118024,0.10690565853823196
2.8009999999998025,0.21201605884312794,0.13383289776338272
3.0009999999997805,0.23385800821829583,0.14308956643830223
3.2009999999997585,0.2560707616332804,0.14410321947459934
3.4009999999997365,0.2788898971877207,0.146987248876405
3.6009999999997144,0.3035669994693796,0.15352167267918
3.8009999999996924,0.32706600758709525,0.16139630907722494
4.000999999999671,0.35183840277217654,0.17380683394205987
4.200999999999738,0.3869030164074957,0.19920341859162907
4.400999999999804,0.4245835710473401,0.2171625038464104
4.600999999999871,0.46015412291997004,0.23138958858613562
4.800999999999938,0.49806175399214875,0.2568774357310579
5.000000000000004,0.5391307294738693,0.2917350495704239
5.200000000000071,0.5783402540661327,0.308646451636107
5.400000000000138,0.6197057468174211,0.3241461411164209
5.600000000000205,0.6592643111129607,0.34524104572980907
5.800000000000272,0.6878158434110029,0.37133022373580726
6.000000000000338,0.7036049686245023,0.38482155716722993
6.200000000000405,0.7308302434431501,0.4048439675259297
6.400000000000472,0.7616143197348628,0.4291896815537223
6.600000000000539,0.7985897816838278,0.4467157517658297
6.800000000000606,0.8441735906183262,0.4640571043841112
7.000000000000672,0.8847556612790795,0.48093101644498226
7.200000000000739,0.9209755482769374,0.49350892524553164
7.400000000000806,0.9653069732820565,0.5026561590426395
7.600000000000873,1.0107527011470026,0.5020760030806132
7.8000000000009395,1.0613204647932095,0.482345281905794
8.000000000001005,1.0954476310960355,0.4475762984817881
8.200000000000895,1.120439537431736,0.40767358399360726
8.400000000000784,1.1490145116326234,0.3606580584744282
8.600000000000673,1.180064673923842,0.31091593012460883
8.800000000000562,1.2057881156751462,0.26195873321688956
9.000000000000451,1.2350357177437836,0.2114846267739469
9.20000000000034,1.2751745923967444,0.1580748560203832
9.40000000000023,1.3043301332644905,0.10352815791828997
9.600000000000119,1.3303788620980865,0.04452682138880767
9.800000000000008,1.3576788894357763,-0.013495492064069694
10.000999999999896,1.372290664053992,-0.06983770765604054
10.200999999999786,1.3865300140344272,-0.1283629401186423
10.400999999999675,1.4280830678734036,-0.1827511610407291
10.600999999999564,1.4604070733518475,-0.2355198159477953
10.800999999999453,1.501473707405554,-0.2990145935312231
11.000999999999342,1.5375425014575825,-0.3637295516871937
11.200999999999231,1.5731458473740958,-0.4317263569039764
11.40099999999912,1.6111952085019763,-0.5006440884951091
11.60099999999901,1.6635618588991874,-0.5548762138125823
11.800999999998899,1.716994166337962,-0.58679299530873
12.000999999998788,1.7653204140414556,-0.6058496297419412
12.200999999998677,1.8231163896187819,-0.6286893219539665
12.400999999998566,1.8782880961615203,-0.6523056045349535
12.600999999998455,1.92766569609646,-0.6829941828138085
12.800999999998345,1.9676163911590476,-0.7172728707920949
13.000999999998234,2.0043465611744846,-0.7653979842365878
13.200999999998123,2.0452903154461017,-0.8215563012380075
13.400999999998012,2.0817860951916245,-0.8828972104735805
13.600999999997901,2.119918847963271,-0.9488943080821503
13.80099999999779,2.1440630568787693,-1.0081759019647227
14.00099999999768,2.175905425916639,-1.066084540503342
14.200999999997569,2.222981569284193,-1.1247875352946324
14.400999999997458,2.2793550914619933,-1.1874375776237964
14.600999999997347,2.340610216362135,-1.2496343630279168
14.800999999997236,2.400755401810957,-1.3094063999090666
15.000999999997125,2.4592428287414543,-1.3777495467930183
15.200999999997014,2.5067855712985985,-1.4456517375263183
15.400999999996904,2.556857274727839,-1.51393713594863
15.600999999996793,2.607049075855074,-1.5704811444028373
15.800999999996682,2.6600306878985696,-1.6273391623871207
16.000999999996573,2.7230523815595125,-1.6924305799095183
16.200999999996817,2.7624242404343144,-1.763376421183614
16.40099999999706,2.8056581095956385,-1.8343847314419721
16.600999999997306,2.836773250610997,-1.8999527469056023
16.80099999999755,2.866863577312571,-1.9714396255524287
17.000999999997795,2.9010540003193803,-2.0600236007828308
17.20099999999804,2.9300089099612827,-2.153067887042082
17.400999999998284,2.9594921619462764,-2.2410994129753985
17.60099999999853,2.9808391631633735,-2.31544765829073
17.800999999998773,3.0047290658790864,-2.3996374335585444
18.000999999999017,3.0317475213429006,-2.482602693932376
18.20099999999926,3.0423963335252084,-2.5516576142899656
18.400999999999506,3.0302872412444937,-2.608700309057627
18.60099999999975,2.9987170589453145,-2.6518496425173965
18.799999999999994,2.957189635752439,-2.685846892732848
19.000000000000238,2.9130265421442596,-2.7388682848007315
19.200000000000482,2.887006198277116,-2.8011106238719505
19.400000000000727,2.877226723325644,-2.8711898400795453
19.60000000000097,2.879320731466557,-2.940929407561065
19.800000000001216,2.8875043882461244,-3.0165538169161557
20.00000000000146,2.8936704900535797,-3.087328024440374
