Time (s),X (m),Y (m)
0.001,0.0014505791105779379,8.989899140956135e-05
0.20000000000000015,8.268461239560873e-05,0.0002486709358452201
0.4000000000000003,0.005822745430264233,0.001830678281752832
0.6000000000000004,0.018334754409072933,0.003012141517128001
0.8000000000000006,0.020229295823793573,0.0038753484987800574
1.0000000000000007,0.01538010376773784,0.009312698849976585
1.2009999999999785,0.015960643656791895,0.013639409678275588
1.4009999999999565,0.021308980985784248,0.014735763142221301
1.6009999999999345,0.035737107795834784,0.005462664139229556
1.8009999999999124,0.05735776446824139,-0.011456408921124345
2.0009999999998906,0.0793922195991273,-0.028354894715924558
2.2009999999998686,0.10399433070094997,-0.0526298162716657
2.4009999999998466,0.12949679476268333,-0.0748815663901006
2.6009999999998246,0.14123741429740275,-0.09358118243025881
2.8009999999998025,0.1406601981234829,-0.10543978703101367
3.0009999999997805,0.13420756274354498,-0.12403797387448791
3.2009999999997585,0.12159711932199317,-0.14891292325233632
3.4009999999997365,0.10746246139526076,-0.17173820459863842
3.6009999999997144,0.09246966389362839,-0.20187617087456913
3.8009999999996924,0.08069055384415916,-0.23321398255581005
4.000999999999671,0.07096641162478955,-0.27245808679325284
4.200999999999738,0.060814815029881994,-0.306389428369203
4.400999999999804,0.042421603833721164,-0.34289434789307266
4.600999999999871,0.018278040171600396,-0.3767054017776499
4.800999999999938,-0.005891254168336055,-0.4124061159351037
5.000000000000004,-0.02369018659407635,-0.4455650325278977
5.200000000000071,-0.04643160462055858,-0.48714255733077094
5.400000000000138,-0.07563972730287025,-0.5305093475947293
5.600000000000205,-0.10365770401290716,-0.5706414007289655
5.800000000000272,-0.13287735961284194,-0.6128588637006203
6.000000000000338,-0.16480199714346672,-0.6590920357796567
6.200000000000405,-0.1989331982381813,-0.702669999391073
6.400000000000472,-0.2327114309286968,-0.7434232391477749
6.600000000000539,-0.27340295873078535,-0.7874262325788942
6.800000000000606,-0.31753423269814074,-0.8266963134805912
7.000000000000672,-0.36619880525427767,-0.8423340329907102
7.200000000000739,-0.4178632013123956,-0.834054778380315
7.400000000000806,-0.4662810196674996,-0.8158303388183903
7.600000000000873,-0.5198237646387077,-0.7890742600185847
7.8000000000009395,-0.5714964280954022,-0.7596102216619981
8.000000000001005,-0.6233708028296308,-0.721598289164238
8.200000000000895,-0.677440574096601,-0.6775504379312749
8.400000000000784,-0.7308910502434428,-0.6353544682541499
8.600000000000673,-0.7749658200682563,-0.597728758224078
8.800000000000562,-0.8193122464515779,-0.5601229809683276
9.000000000000451,-0.8699810607991667,-0.5215823627450199
9.20000000000034,-0.9219831457575136,-0.48300910120336715
9.40000000000023,-0.9787638733112071,-0.4377679567372609
9.600000000000119,-1.035820481216799,-0.3821570212217814
9.800000000000008,-1.089670027289563,-0.3290391207215814
10.000999999999896,-1.1407944883885979,-0.2804767116421696
10.200999999999786,-1.188170566460653,-0.23219671870157638
10.400999999999675,-1.2177827133553927,-0.1761105246426826
10.600999999999564,-1.219476422911177,-0.12003711467947353
10.800999999999453,-1.1997297373479126,-0.060936669100929805
11.000999999999342,-1.1677362109432468,-0.009161305193245577
11.200999999999231,-1.1352194465828407,0.04254963559530981
11.40099999999912,-1.1026556943344643,0.09006508305554374
11.60099999999901,-1.0667712918131407,0.14649987632017367
11.800999999998899,-1.0239288597785348,0.2061957390474442
12.000999999998788,-0.9845941640027208,0.2622054996567967
12.200999999998677,-0.9484225741769353,0.32119144119789594
12.400999999998566,-0.9123185152246618,0.37742054849476114
12.600999999998455,-0.8679933663528033,0.44270328478662463
12.800999999998345,-0.819446655363108,0.5065011946079891
13.000999999998234,-0.7729412503684704,0.5677226223258287
13.200999999998123,-0.7243914966254182,0.6224620600232688
13.400999999998012,-0.6733803120496694,0.6780382645074466
13.600999999997901,-0.6120885076630159,0.729535502798593
13.80099999999779,-0.5466489108534579,0.7578157026695798
14.00099999999768,-0.4804496325366771,0.7536340726699395
14.200999999997569,-0.41928372147712706,0.7279825513834756
14.400999999997458,-0.35078137968678375,0.6861639785678886
14.600999999997347,-0.28766278854119726,0.6403668339593257
14.800999999997236,-0.2305447113044157,0.5949997162721868
15.000999999997125,-0.1708523834726175,0.5487138203192774
15.200999999997014,-0.11463970946183571,0.5007480094834007
15.400999999996904,-0.054479148306157035,0.4527939912754406
15.600999999996793,-0.0006057372875019259,0.4082254090420411
15.800999999996682,0.06491960525143406,0.35441957004979474
16.000999999996573,0.12948067755357093,0.2998301866104383
16.200999999996817,0.19251131968239849,0.24731865840119455
16.40099999999706,0.24601429123618468,0.20380756166980768
16.600999999997306,0.3010202191223773,0.15105013327400896
16.80099999999755,0.3614566641366345,0.09458862558385608
17.000999999997795,0.4244622869543211,0.03575560836782365
17.20099999999804,0.4855212176534315,-0.02687827669563632
17.400999999998284,0.5400173157332385,-0.08879886277191691
17.60099999999853,0.5717207073169079,-0.14817040391644493
17.800999999998773,0.5717701320340881,-0.20640301670833824
18.000999999999017,0.5530314084584284,-0.259741277444515
18.20099999999926,0.517133800505987,-0.3201204472422529
18.400999999999506,0.4759103180754512,-0.3890260538028845
18.60099999999975,0.4295450477461691,-0.463348331625227
18.799999999999994,0.38600623233510706,-0.5356307357860142
19.000000000000238,0.34781381277436524,-0.6037391772886661
19.200000000000482,0.30675379908695216,-0.6691420594014501
19.400000000000727,0.26044724643740436,-0.7321357879191771
19.60000000000097,0.21077990890883672,-0.7973277765781681
19.800000000001216,0.1635058287168303,-0.8603016505238484
20.00000000000146,0.10393040480856053,-0.9217376343622622
