Time (s),X (m),Y (m)
0.001,0.0006021427340131596,0.0010158048217711127
0.20000000000000015,0.0008307330219036959,-0.0010654742920586393
0.4000000000000003,0.004150945395734929,-0.007001011413404685
0.6000000000000004,0.007525729983813157,-0.018493248299831292
0.8000000000000006,0.012019286179376662,-0.0381012338732522
1.0000000000000007,0.019668521358518664,-0.056517239272387006
1.2009999999999785,0.01958295932862898,-0.07701961408221247
1.4009999999999565,0.027803194368762683,-0.09203548474540858
1.6009999999999345,0.03784600641424794,-0.10700960476823476
1.8009999999999124,0.04722998678229148,-0.12079425444643642
2.0009999999998906,0.0647630667228721,-0.13492860413523763
2.2009999999998686,0.06704268177615677,-0.15482443781785715
2.4009999999998466,0.06738923771087982,-0.18179734565415873
2.6009999999998246,0.06277278201360921,-0.20950749331991847
2.8009999999998025,0.06205999396845767,-0.23211174775301535
3.0009999999997805,0.06015958796433211,-0.2620740846795461
3.2009999999997585,0.049971792333200586,-0.3011729784574054
3.4009999999997365,0.023374029443530234,-0.33714999903405113
3.6009999999997144,-0.004862848488302577,-0.3529596238798596
3.8009999999996924,-0.03419952666984157,-0.3581540996090027
4.000999999999671,-0.07630797545517791,-0.3659110875614744
4.200999999999738,-0.11037376021127898,-0.3730285381087529
4.400999999999804,-0.1410363504346407,-0.3764598066842524
4.600999999999871,-0.16405115032172846,-0.36875978829080003
4.800999999999938,-0.17872558497007474,-0.34960341832435876
5.000000000000004,-0.1814245044880347,-0.3268871087931555
5.200000000000071,-0.17639664449253664,-0.3067649122968775
5.400000000000138,-0.16714532478369112,-0.27495191693203974
5.600000000000205,-0.1533152690603069,-0.24728213064796659
5.800000000000272,-0.13669572163407587,-0.22381722990575653
6.000000000000338,-0.10985757774131526,-0.2058959964489245
6.200000000000405,-0.07893885975478908,-0.1992224252632067
6.400000000000472,-0.04995444324751147,-0.1983693133291059
6.600000000000539,-0.016367440800755865,-0.20138052335185197
6.800000000000606,0.02002887659032454,-0.20691115614123715
7.000000000000672,0.05204217098735679,-0.22365200164694865
7.200000000000739,0.07850012130490672,-0.2493687407562368
7.400000000000806,0.09815474364706175,-0.2773903932515884
7.600000000000873,0.12130341170169107,-0.30766206395694273
7.8000000000009395,0.15701353860473474,-0.34443921285602164
8.000000000001005,0.18001222818487572,-0.3876932391999618
8.200000000000895,0.2018293672535793,-0.4364233953661611
8.400000000000784,0.21630455631249018,-0.4850421425275707
8.600000000000673,0.2193405416475195,-0.5206759406263418
8.800000000000562,0.21388625147280552,-0.5462455022507628
9.000000000000451,0.1954279034972343,-0.5571647457468349
9.20000000000034,0.1630730039563392,-0.5566350634443488
9.40000000000023,0.1266551444107565,-0.5516697223142968
9.600000000000119,0.09948585860577662,-0.539642432131345
9.800000000000008,0.07829853487232365,-0.5162913581108608
10.000999999999896,0.06597369225141873,-0.48089827953098685
10.200999999999786,0.05728018793040328,-0.4405099148193238
10.400999999999675,0.05579305711854344,-0.39346774319256317
10.600999999999564,0.05597556677271271,-0.34653056574146673
10.800999999999453,0.05716077084183657,-0.29505138768957634
11.000999999999342,0.07254401691699384,-0.26519177531248833
11.200999999999231,0.09399185200263231,-0.2588162625237462
11.40099999999912,0.12615783061815158,-0.2561911795732709
11.60099999999901,0.15982341568883557,-0.26218885080878224
11.800999999998899,0.17950713060987222,-0.288673196825979
12.000999999998788,0.1904771999968769,-0.3279292820805986
12.200999999998677,0.1980434598150775,-0.3674971233551517
12.400999999998566,0.1980967679292228,-0.3875235026066126
12.600999999998455,0.17910161978846695,-0.39866142546637606
12.800999999998345,0.1463838517820419,-0.4109920956835252
13.000999999998234,0.10587848839105285,-0.41243701049735715
13.200999999998123,0.06581038485327795,-0.4089949506871514
13.400999999998012,0.04729766721645343,-0.3969957072267108
13.600999999997901,0.03589619429399249,-0.37217094723068667
13.80099999999779,0.03701465233143891,-0.3449362724900955
14.00099999999768,0.040822977474342124,-0.31809045964554217
14.200999999997569,0.05498558898460264,-0.3154864885506951
14.400999999997458,0.07956772655187332,-0.31820364686960395
14.600999999997347,0.11732853122995432,-0.29989354387080425
14.800999999997236,0.15197813267684013,-0.29285424746034405
15.000999999997125,0.18693845427441205,-0.2981590947770112
15.200999999997014,0.22213127896305251,-0.30672991142004097
15.400999999996904,0.25759061598939936,-0.3115228234636344
15.600999999996793,0.28391608199910595,-0.32226225020062466
15.800999999996682,0.30715520282811415,-0.3442174221657996
16.000999999996573,0.3348987431679035,-0.3848899017017944
16.200999999996817,0.3588385327328538,-0.43118350729208205
16.40099999999706,0.3668838616826278,-0.47428557470978866
16.600999999997306,0.366021731697026,-0.5227017516989172
16.80099999999755,0.3587419477231501,-0.5622800966258794
17.000999999997795,0.34230770049860126,-0.5748610870658979
17.20099999999804,0.31369104846838447,-0.5908874022860648
17.400999999998284,0.27942260655807194,-0.5950556186210082
17.60099999999853,0.2417608394726039,-0.5908120379377525
17.800999999998773,0.19415227687125977,-0.5938078111044455
18.000999999999017,0.15252575025390497,-0.5926657440639117
18.20099999999926,0.11985857673592797,-0.5827339818664193
18.400999999999506,0.08461352699880696,-0.5717591489894488
18.60099999999975,0.06317247830079463,-0.552947229064576
18.799999999999994,0.05004590344132886,-0.5219050292903399
19.000000000000238,0.044922767663889564,-0.480921731886307
19.200000000000482,0.03157776740098104,-0.43746966971013224
19.400000000000727,0.0031960964608328843,-0.38490519958826036
19.60000000000097,-0.012818793533752195,-0.33650840276562777
19.800000000001216,-0.021461680460627557,-0.2901542192883135
20.00000000000146,-0.024020838394893326,-0.24738823255655665
