Time (s),X (m),Y (m)
0.001,-0.0005118051130574255,-0.0004359202765531099
0.20000000000000015,0.0014310173004014944,0.00034789578984995094
0.4000000000000003,0.002146102872311635,0.0005913925507736484
0.6000000000000004,0.0011720515013070231,0.0016439719924503612
0.8000000000000006,0.004721845284355105,0.007962434736573244
1.0000000000000007,0.012525882035393133,0.014469483998239316
1.2009999999999785,0.02166628563002004,0.020691625574930105
1.4009999999999565,0.030558114864959584,0.02907185700666568
1.6009999999999345,0.03843271748709277,0.03733064130953695
1.8009999999999124,0.039327595291784506,0.039472740431667735
2.0009999999998906,0.046182127705956554,0.04923041808233152
2.2009999999998686,0.0493561928812478,0.053903818556382925
2.4009999999998466,0.05873397314660515,0.06451655872891006
2.6009999999998246,0.06988172935074821,0.07344443097759135
2.8009999999998025,0.08077070841273408,0.08817562679707949
3.0009999999997805,0.08930528389968474,0.1012407251300227
3.2009999999997585,0.09771402282105672,0.1047500162059371
3.4009999999997365,0.10695324433636669,0.11491937566269343
3.6009999999997144,0.12218273247830273,0.12465632877247287
3.8009999999996924,0.13255533474059486,0.12825109720633515
4.000999999999671,0.13885300115979518,0.13353149000193212
4.200999999999738,0.14605603467442216,0.1485728402797965
4.400999999999804,0.14811238379138597,0.16782433827968726
4.600999999999871,0.14537259559599733,0.18208891045642647
4.800999999999938,0.14583565019644734,0.19812099969392155
5.000000000000004,0.1483925175215828,0.22060159752360736
5.200000000000071,0.15434771077696408,0.23739921252883897
5.400000000000138,0.1584379352104673,0.25279637405996463
5.600000000000205,0.1618038401914066,0.265560370435065
5.800000000000272,0.16965455813421107,0.2774046740071727
6.000000000000338,0.17795720214052957,0.28138333359524403
6.200000000000405,0.18656696230613265,0.28244695641394113
6.400000000000472,0.1935638168321963,0.287774591635929
6.600000000000539,0.19607842134608164,0.30308171976403353
6.800000000000606,0.19612579046354103,0.32936737457719434
7.000000000000672,0.19461439873247435,0.34931595504940954
7.200000000000739,0.1934156759446074,0.37362457843149116
7.400000000000806,0.19410524713832553,0.3907806592321827
7.600000000000873,0.19534550894948605,0.4077237181307995
7.8000000000009395,0.2011341349460438,0.4192880192214518
8.000000000001005,0.20587148225130866,0.4346042163164931
8.200000000000895,0.21290615191465243,0.44895655288003966
8.400000000000784,0.22129131026940965,0.4677210698351228
8.600000000000673,0.2332869572390033,0.49606792874217753
8.800000000000562,0.24768385629292886,0.515032172040015
9.000000000000451,0.2596029380200464,0.5358445027878593
9.20000000000034,0.26902553508738375,0.5591225929141949
9.40000000000023,0.28384365947419454,0.5877707208697344
9.600000000000119,0.3079886165112521,0.6230631280793999
9.800000000000008,0.3310223912823974,0.6476281065201718
10.000999999999896,0.34733796573934705,0.6712641722992425
10.200999999999786,0.3609248020625922,0.6887146454898644
10.400999999999675,0.3752716164280264,0.70206197331039
10.600999999999564,0.39303021913693104,0.713182223189956
10.800999999999453,0.412253971106789,0.731128915783377
11.000999999999342,0.4304831670414752,0.7493035189147476
11.200999999999231,0.4457738096068782,0.7705713275804791
11.40099999999912,0.4560861076568737,0.793794464878762
11.60099999999901,0.4634320356508668,0.8251054528210687
11.800999999998899,0.47206769898075696,0.8412748131804045
12.000999999998788,0.4799806957102388,0.8609985613649632
12.200999999998677,0.4818090439939948,0.886354946926648
12.400999999998566,0.47623900635025346,0.9070513120028494
12.600999999998455,0.4691396090948003,0.9236377090115555
12.800999999998345,0.4642671875543397,0.9474945490411524
13.000999999998234,0.46514356416824015,0.9724327473020182
13.200999999998123,0.4705762998914709,1.0052594473946745
13.400999999998012,0.47631194572956326,1.0307768073520343
13.600999999997901,0.48363518183731957,1.0587615470201788
13.80099999999779,0.4929449173214938,1.0905592150075838
14.00099999999768,0.5017465743730098,1.1109035450515856
14.200999999997569,0.50876287292996,1.1290481705247697
14.400999999997458,0.509845242487571,1.1550194776923186
14.600999999997347,0.5091529820715741,1.1746250189247738
14.800999999997236,0.5121930159605843,1.1971950686911705
15.000999999997125,0.5168667857207649,1.2267461695759203
15.200999999997014,0.5268828441879618,1.250006848721071
15.400999999996904,0.5413400228792119,1.2739050798790064
15.600999999996793,0.556846926874396,1.2929714769520408
15.800999999996682,0.5705452065317297,1.3161449175670255
16.000999999996573,0.5815397112762533,1.3339617780992046
16.200999999996817,0.5928091797069198,1.3498011957151863
16.40099999999706,0.5973905329447202,1.376778492081438
16.600999999997306,0.6020681095979923,1.4053659099751887
16.80099999999755,0.6097306239412152,1.4219347148392143
17.000999999997795,0.6229068069514395,1.44115715924312
17.20099999999804,0.6388933681906319,1.4554809593066222
17.400999999998284,0.6552129209260826,1.479219350028384
17.60099999999853,0.6728839716126637,1.5007580890687169
17.800999999998773,0.6870364703956501,1.5198816966045325
18.000999999999017,0.6947826141933044,1.5404399723180113
18.20099999999926,0.7007310314888241,1.561859867924649
18.400999999999506,0.7049432073953894,1.5915005291176663
18.60099999999975,0.7044534100486742,1.6210061643625164
18.799999999999994,0.7115563300098987,1.652279398001817
19.000000000000238,0.7271635434819604,1.6769850851084902
19.200000000000482,0.7435930506009243,1.6926105507682818
19.400000000000727,0.7644304349125924,1.7128255678768667
19.60000000000097,0.781478037901593,1.7275485444776613
19.800000000001216,0.7945391877316453,1.749309176189846
20.00000000000146,0.8052567634360929,1.770636307408206
