Time (s),X (m),Y (m)
0.001,-0.00060452123697562,8.989899140956135e-05
0.20000000000000015,0.002344336772684726,-0.0004950608060008872
0.4000000000000003,0.009403304199229749,-0.0024773044756060346
0.6000000000000004,0.02166839468216705,-0.0072025908666813535
0.8000000000000006,0.03464043787815397,-0.01016170427344844
1.0000000000000007,0.04916894132579262,-0.014303823738455023
1.2009999999999785,0.058067076611595755,-0.017776190273417865
1.4009999999999565,0.06680569483626358,-0.020911572701423704
1.6009999999999345,0.07443799460843016,-0.027186188223152406
1.8009999999999124,0.0891089722320195,-0.039365905944083616
2.0009999999998906,0.11022035494410573,-0.05546707779815132
2.2009999999998686,0.13628207951497448,-0.07411980645414297
2.4009999999998466,0.17044120368837412,-0.09631501998808245
2.6009999999998246,0.21041930362798064,-0.12413791643290312
2.8009999999998025,0.2423307523672427,-0.1432047374841613
3.0009999999997805,0.2732213201495169,-0.15766293617612198
3.2009999999997585,0.31390116750133906,-0.1770464880670102
3.4009999999997365,0.3539310144537554,-0.20217021281188235
3.6009999999997144,0.39092645842301793,-0.2240076846234225
3.8009999999996924,0.4266746145392424,-0.24403299489942143
4.000999999999671,0.45940732923385474,-0.26018939101135824
4.200999999999738,0.4875220930571423,-0.27319618431429266
4.400999999999804,0.5187581669235157,-0.2902496144753166
4.600999999999871,0.5542209428401838,-0.308775566064159
4.800999999999938,0.5824613647183653,-0.3176435718678831
5.000000000000004,0.6035805245332181,-0.32545213461135586
5.200000000000071,0.6313537060308331,-0.3423885668229829
5.400000000000138,0.6690645884468043,-0.3601545239724769
5.600000000000205,0.7075018228028922,-0.38341178592598785
5.800000000000272,0.7544356823851494,-0.4108442703338485
6.000000000000338,0.8048877932294995,-0.44251960367203613
6.200000000000405,0.8553545688506425,-0.47487106572246984
6.400000000000472,0.8967762701327826,-0.5183515184171389
6.600000000000539,0.9127322910228175,-0.559907841019744
6.800000000000606,0.9065529787627663,-0.6027179461590304
7.000000000000672,0.8810927897431046,-0.6534854391740261
7.200000000000739,0.8494941280258688,-0.7068077737113331
7.400000000000806,0.8141575602442248,-0.7614940171427412
7.600000000000873,0.7809503358455944,-0.8025801388515006
7.8000000000009395,0.7523662856419071,-0.8211458282722295
8.000000000001005,0.722584887536239,-0.8239728294468405
8.200000000000895,0.6973529923259801,-0.818894106573507
8.400000000000784,0.6647034524395187,-0.8038236905393474
8.600000000000673,0.6330204522476257,-0.7821129446582072
8.800000000000562,0.5816408133909804,-0.7485120174794538
9.000000000000451,0.525866179580374,-0.7126381851419846
9.20000000000034,0.46876064258207384,-0.6767475473181076
9.40000000000023,0.4151214894283993,-0.636734374067375
9.600000000000119,0.36023753226460975,-0.5985192184832784
9.800000000000008,0.30726590065030396,-0.5715876477098242
10.000999999999896,0.2552730388738012,-0.5351418319121295
10.200999999999786,0.21576443107708995,-0.49034833748231765
10.400999999999675,0.20296572797037493,-0.4456323573049822
10.600999999999564,0.20730666744868517,-0.40595004239179955
10.800999999999453,0.22214512232550393,-0.3613986852477986
11.000999999999342,0.23998208025189818,-0.31535563175914805
11.200999999999231,0.26225212694874905,-0.2628273904762677
11.40099999999912,0.2865252949765528,-0.20682124070943944
11.60099999999901,0.31157062319689277,-0.15511096003054914
11.800999999998899,0.3416517162738717,-0.09940121514888903
12.000999999998788,0.3761963118401438,-0.045195675142479
12.200999999998677,0.4102014537871759,0.012021521108609556
12.400999999998566,0.44703102174180936,0.06990441788835254
12.600999999998455,0.488096334349564,0.13396384701085023
12.800999999998345,0.5292569643513312,0.19222360817977446
13.000999999998234,0.5787537812042013,0.23283324077830087
13.200999999998123,0.6287033134189588,0.25156979815937364
13.400999999998012,0.6917421067361175,0.2486057616261821
13.600999999997901,0.7537209310544404,0.23162452138102269
13.80099999999779,0.8126027875126995,0.20529526180539293
14.00099999999768,0.868326387443334,0.17816463833144083
14.200999999997569,0.9192425468051589,0.15151619321182036
14.400999999997458,0.9744636055272807,0.10932306377821693
14.600999999997347,1.0123375766129885,0.05781877585411753
14.800999999997236,1.0175874933347118,0.003425023604272992
15.000999999997125,0.9994090722528209,-0.05464452909145105
15.200999999997014,0.967617914832527,-0.11540185366550762
15.400999999996904,0.9355981199098092,-0.17081907042533917
15.600999999996793,0.896381493591372,-0.22731258254822728
15.800999999996682,0.8608641125118348,-0.28280688930091014
16.000999999996573,0.8228334883886879,-0.3401192064791047
16.200999999996817,0.7811566034626812,-0.4016695138703474
16.40099999999706,0.7345760759275252,-0.4667831484015731
16.600999999997306,0.6972967649299898,-0.5266717731036346
16.80099999999755,0.6544171514706959,-0.589262204230605
17.000999999997795,0.6107728010526178,-0.6476453700761722
17.20099999999804,0.5660353814834386,-0.7043505025976188
17.400999999998284,0.5121588283328102,-0.7459419743865446
17.60099999999853,0.4613252683684303,-0.7576149430055876
17.800999999998773,0.41058466599539045,-0.745088251573742
18.000999999999017,0.3570615698003714,-0.7116205221035874
18.20099999999926,0.30198731231363324,-0.6727036536723675
18.400999999999506,0.24762451367344582,-0.6410200366638747
18.60099999999975,0.19808176323913324,-0.5957505183475682
18.799999999999994,0.16777748940161888,-0.5451616059295392
19.000000000000238,0.15608979482641241,-0.5057591595205418
19.200000000000482,0.16677539888711354,-0.46179031610502286
19.400000000000727,0.1916316221700453,-0.41365853674623954
19.60000000000097,0.22166772967724016,-0.3638074448442237
19.800000000001216,0.2528450616152288,-0.309593945445008
20.00000000000146,0.29175510883850414,-0.2436327042468355
