Time (s),X (m),Y (m)
0.001,0.0014388337585722719,-0.0001791137972120003
0.20000000000000015,-9.511043142881257e-06,0.0002869182001851968
0.4000000000000003,0.0007659389768191965,0.0005011623919638565
0.6000000000000004,0.01150240797724733,0.0008967109676898892
0.8000000000000006,0.02222165557267826,-0.00024717104598595655
1.0000000000000007,0.029954509261716403,-0.00310535830736046
1.2009999999999785,0.034382583828863784,0.001305547322661146
1.4009999999999565,0.04094743639375654,-0.00253812966213049
1.6009999999999345,0.05500055211452766,-0.019848538766498697
1.8009999999999124,0.0754693606227632,-0.039916044535649356
2.0009999999998906,0.08992716263587772,-0.07773295441044589
2.2009999999998686,0.09333658131593814,-0.10601042326405968
2.4009999999998466,0.08726775192071293,-0.1298644461326523
2.6009999999998246,0.07261596362696869,-0.15756973133360452
2.8009999999998025,0.0587953471025176,-0.19084127122346264
3.0009999999997805,0.041407407906590636,-0.22125296849825976
3.2009999999997585,0.024848771385023703,-0.24755753556308357
3.4009999999997365,0.006646186408741915,-0.2752274755841135
3.6009999999997144,-0.009269790036523421,-0.30446034222233526
3.8009999999996924,-0.03091741636264084,-0.3397274720251787
4.000999999999671,-0.047552479410288645,-0.36898171983974826
4.200999999999738,-0.06421488562342641,-0.39942647438075246
4.400999999999804,-0.08148655609635981,-0.42798872691355283
4.600999999999871,-0.10770443403545014,-0.4613935961381835
4.800999999999938,-0.13840839083718154,-0.4973830132026183
5.000000000000004,-0.16108535296005635,-0.5328872656313075
5.200000000000071,-0.18591442977179898,-0.5568974932252487
5.400000000000138,-0.21259212262130284,-0.5628488290681921
5.600000000000205,-0.24693765762332767,-0.5535650995629949
5.800000000000272,-0.28428437541823026,-0.5318786685672537
6.000000000000338,-0.322498304725343,-0.5085294927302811
6.200000000000405,-0.36895771748322875,-0.48267007564337233
6.400000000000472,-0.41734623886691286,-0.45631041563047486
6.600000000000539,-0.4656468052614038,-0.43448851000840844
6.800000000000606,-0.5124637239279107,-0.4114267435090841
7.000000000000672,-0.5692591880358135,-0.3815613065330021
7.200000000000739,-0.6255327377912518,-0.34898065818481394
7.400000000000806,-0.6747840260630726,-0.3164213528081367
7.600000000000873,-0.7256891700793547,-0.281775093573447
7.8000000000009395,-0.7808562696709535,-0.23268502975354396
8.000000000001005,-0.8312696205676255,-0.18522099996250527
8.200000000000895,-0.8622194651049435,-0.14405483147875894
8.400000000000784,-0.8694269896087575,-0.11011590760638552
8.600000000000673,-0.8574337996379993,-0.07191185844662171
8.800000000000562,-0.8319254403154621,-0.030168372901363545
9.000000000000451,-0.8009451713071754,0.007003434995500994
9.20000000000034,-0.7677442442045235,0.027766400625083353
9.40000000000023,-0.7410182593364141,0.03365602601807903
9.600000000000119,-0.71178597481218,0.039428998329541755
9.800000000000008,-0.6803792811025084,0.03924608643701939
10.000999999999896,-0.6414381440618059,0.030748479460768287
10.200999999999786,-0.5961132262724099,0.014047804877640378
10.400999999999675,-0.5514881219150404,-0.004121460460302497
10.600999999999564,-0.5028227916148491,-0.030772918542604926
10.800999999999453,-0.4533958736081384,-0.06134830276263323
11.000999999999342,-0.3979010106633284,-0.10784227816329606
11.200999999999231,-0.3475411724780975,-0.14313436206635916
11.40099999999912,-0.2986046758024831,-0.17969277923656998
11.60099999999901,-0.2621027356578693,-0.21440885831677864
11.800999999998899,-0.24820306170593773,-0.2504109716033759
12.000999999998788,-0.24966174727560134,-0.29088825362564225
12.200999999998677,-0.26213329329334983,-0.33235735435877056
12.400999999998566,-0.277154067918885,-0.3805669226515591
12.600999999998455,-0.2963081742881912,-0.42762318377845737
12.800999999998345,-0.32369731194476775,-0.49039187262548023
13.000999999998234,-0.3567015578128947,-0.5538130080201953
13.200999999998123,-0.3852553554167118,-0.6106848921442395
13.400999999998012,-0.4184988743210381,-0.6700470760579287
13.600999999997901,-0.4486690560365373,-0.7277845787718628
13.80099999999779,-0.4810689359910268,-0.7845504192692673
14.00099999999768,-0.5239858483502761,-0.8353951607433483
14.200999999997569,-0.5854100848965877,-0.8544155249114569
14.400999999997458,-0.646856964086862,-0.8489681547688307
14.600999999997347,-0.7006649665126656,-0.8314673554526312
14.800999999997236,-0.7540991020981974,-0.8061280822521399
15.000999999997125,-0.8102576647459856,-0.7707935464431691
15.200999999997014,-0.8617526945045925,-0.7434625725840777
15.400999999996904,-0.9089518482947696,-0.7014127419338848
15.600999999996793,-0.9484268763093712,-0.6568835793416902
15.800999999996682,-0.9700758653598069,-0.602566534221178
16.000999999996573,-0.972603842023821,-0.5510559126159874
16.200999999996817,-0.9558336627735329,-0.49879393725139465
16.40099999999706,-0.9291147662975625,-0.46315515926487655
16.600999999997306,-0.8994433810450799,-0.4507460475604983
16.80099999999755,-0.8677639846918611,-0.45316007291389987
17.000999999997795,-0.8303898931879093,-0.4645090332772494
17.20099999999804,-0.7921081083410144,-0.48512548646649317
17.400999999998284,-0.7537148016454147,-0.5074541211947192
17.60099999999853,-0.7031982955712689,-0.5425812316385453
17.800999999998773,-0.6469886231814223,-0.5812377620606729
18.000999999999017,-0.5921862835518982,-0.6121605906449235
18.20099999999926,-0.5333571363384936,-0.6396920660313778
18.400999999999506,-0.47599500906566833,-0.6685702953478624
18.60099999999975,-0.4160407158206595,-0.6994677330289728
18.799999999999994,-0.35807633638763514,-0.7298612825188413
19.000000000000238,-0.30142063990782764,-0.7699549121922026
19.200000000000482,-0.25424884179796425,-0.8045145536838935
19.400000000000727,-0.22543362640863163,-0.83636109831013
19.60000000000097,-0.2145830196621507,-0.8750127772759477
19.800000000001216,-0.22163414589695254,-0.9215396653875074
20.00000000000146,-0.23783067612740155,-0.9660417546276402
