Time (s),X (m),Y (m)
0.001,0.001267963995250183,-0.0005916298972236683
0.20000000000000015,0.0010926942981266256,-0.00044073280758268063
0.4000000000000003,0.010626231208062822,-0.002946274936625535
0.6000000000000004,0.02167928590798785,0.0011201769687081483
0.8000000000000006,0.02389056649016261,0.017166051134225025
1.0000000000000007,0.03369726106130386,0.026418805235418986
1.2009999999999785,0.04418974423512246,0.03462932135489515
1.4009999999999565,0.0547976472306513,0.037966066341716155
1.6009999999999345,0.06918555191983032,0.04233651928218989
1.8009999999999124,0.0838906058242735,0.03698970718481488
2.0009999999998906,0.08736035446097949,0.024472864161881276
2.2009999999998686,0.08615170282318865,0.011208012591708661
2.4009999999998466,0.08092867780876141,-0.004463044416338144
2.6009999999998246,0.05994519668331934,-0.03378307769528302
2.8009999999998025,0.04474028401039239,-0.06377226088337645
3.0009999999997805,0.0349934189369451,-0.09591969134601995
3.2009999999997585,0.02423075312933251,-0.13236529148061998
3.4009999999997365,0.014083363176854422,-0.1647361254140875
3.6009999999997144,0.0002535818696662026,-0.1988898174392312
3.8009999999996924,-0.027786469658423105,-0.2479615660228472
4.000999999999671,-0.06471997689780033,-0.3071132359732312
4.200999999999738,-0.08366877637836505,-0.35471351494421977
4.400999999999804,-0.08679423153663124,-0.3962408513484386
4.600999999999871,-0.11759616539676523,-0.42170308888962194
4.800999999999938,-0.16643965495763438,-0.4227587453193513
5.000000000000004,-0.2156000191707539,-0.4104539163447172
5.200000000000071,-0.2569632198881692,-0.38973325435188577
5.400000000000138,-0.2883987943137114,-0.3679265244955054
5.600000000000205,-0.30767317357762686,-0.35365313864263753
5.800000000000272,-0.31250721929217956,-0.3215852498431251
6.000000000000338,-0.30747536499871464,-0.2826836159755386
6.200000000000405,-0.2966190158516173,-0.244030414970639
6.400000000000472,-0.275003827521179,-0.2212292354467303
6.600000000000539,-0.24299270800012948,-0.21974050128648773
6.800000000000606,-0.20440595213090376,-0.2290759040818365
7.000000000000672,-0.16430568875035956,-0.2520454624606631
7.200000000000739,-0.13040113642234147,-0.29573508239106006
7.400000000000806,-0.1129926132240855,-0.34320067882344385
7.600000000000873,-0.11133999244372669,-0.396871281002759
7.8000000000009395,-0.12373113225527661,-0.4518625648283592
8.000000000001005,-0.13723362962159297,-0.5047026946553232
8.200000000000895,-0.14596775005423504,-0.5439256333249777
8.400000000000784,-0.15644344108283575,-0.6016212965433986
8.600000000000673,-0.1683654352973223,-0.6629106702907074
8.800000000000562,-0.1758634151152364,-0.7135966847642438
9.000000000000451,-0.18633934414980025,-0.7646250930282673
9.20000000000034,-0.1936767663055429,-0.818911813166695
9.40000000000023,-0.20229083642585555,-0.8704239089250114
9.600000000000119,-0.2316264553301507,-0.9248469637036708
9.800000000000008,-0.27448051498003895,-0.9668789115243125
10.000999999999896,-0.313946180866467,-0.9869862625545381
10.200999999999786,-0.35977536935257287,-0.9897368242367665
10.400999999999675,-0.41080828739444847,-0.9873571584139086
10.600999999999564,-0.4611530792049712,-0.9867791562485755
10.800999999999453,-0.5190255666872979,-0.9823936411150965
11.000999999999342,-0.5865977358094917,-0.9646661512153077
11.200999999999231,-0.6583008441338078,-0.9302393558702573
11.40099999999912,-0.7292525251444171,-0.8855965352155964
11.60099999999901,-0.7944516276534864,-0.8375920006882429
11.800999999998899,-0.838273870273903,-0.7902822077641335
12.000999999998788,-0.84656275206687,-0.731765992757841
12.200999999998677,-0.8325273581797484,-0.6662421806462971
12.400999999998566,-0.8130141632791819,-0.602565835545342
12.600999999998455,-0.7919138040099034,-0.5429782890064022
12.800999999998345,-0.7579402654883132,-0.4807611668829217
13.000999999998234,-0.7115598573118253,-0.42226798285726247
13.200999999998123,-0.6532194726701298,-0.37970426234002824
13.400999999998012,-0.5944904957774522,-0.3646754231088619
13.600999999997901,-0.5361391946352344,-0.3572775660871867
13.80099999999779,-0.47275189906226195,-0.3716445842214924
14.00099999999768,-0.4222573544282422,-0.4009388223426085
14.200999999997569,-0.39305378420665676,-0.44651191109262794
14.400999999997458,-0.3869522437185077,-0.5015904022413654
14.600999999997347,-0.39472833832642906,-0.5626788599234178
14.800999999997236,-0.41619182422900197,-0.6274050501974487
15.000999999997125,-0.45748463080129204,-0.6936797853680025
15.200999999997014,-0.49595523296775673,-0.7610983192942399
15.400999999996904,-0.540402965895533,-0.843103647542486
15.600999999996793,-0.5779259848165342,-0.9220420411192142
15.800999999996682,-0.6121248872536988,-0.995444780864737
16.000999999996573,-0.6622152745678742,-1.0440592885516695
16.200999999996817,-0.7211643919357036,-1.0606565432919144
16.40099999999706,-0.7857074042570035,-1.0577236773218
16.600999999997306,-0.8503526250994774,-1.051175660139016
16.80099999999755,-0.9082437821480094,-1.0368951206287378
17.000999999997795,-0.9504675535209611,-1.001022606073147
17.20099999999804,-0.9722962057260418,-0.9556774202392679
17.400999999998284,-0.9751286500433398,-0.8971913156873362
17.60099999999853,-0.9623765417530032,-0.8263086964299126
17.800999999998773,-0.9404517504479227,-0.7512521088170967
18.000999999999017,-0.9036335653039848,-0.6681197411402856
18.20099999999926,-0.8609353739230857,-0.5894055625202702
18.400999999999506,-0.8201402701774857,-0.5093862811747801
18.60099999999975,-0.783335924223399,-0.4263775943711062
18.799999999999994,-0.7352235794613549,-0.33440621239159823
19.000000000000238,-0.6904076170334251,-0.2496434029091772
19.200000000000482,-0.6553766613232362,-0.17051338860346418
19.400000000000727,-0.6321825669076478,-0.09247546050846214
19.60000000000097,-0.6104751037506487,-0.015357243885353344
19.800000000001216,-0.5884204144477261,0.0582580462379333
20.00000000000146,-0.568292185481362,0.1313932198322771
