Time (s),X (m),Y (m)
0.001,-0.00016860096042250976,0.000844935058449024
0.20000000000000015,0.0022807754171849945,-0.00104247943479417
0.4000000000000003,0.007381198159997276,0.005552943713353699
0.6000000000000004,0.014540276710853924,0.006636530647385298
0.8000000000000006,0.0240896285113869,0.00023932524045859485
1.0000000000000007,0.03705961040274755,-0.0076516185519667716
1.2009999999999785,0.05593935674090769,-0.020406785529326104
1.4009999999999565,0.07106506432987336,-0.034808298369522366
1.6009999999999345,0.08248280050296596,-0.05550475059369812
1.8009999999999124,0.08818106198284191,-0.0871944245867082
2.0009999999998906,0.09168821622684672,-0.11943953627406216
2.2009999999998686,0.0948564232380965,-0.1528329753867912
2.4009999999998466,0.09322675034869134,-0.19141868387854077
2.6009999999998246,0.08732257188097274,-0.23214344639904147
2.8009999999998025,0.08416635319056769,-0.2632709870553138
3.0009999999997805,0.08822721546810895,-0.29158849301008216
3.2009999999997585,0.09460325940214563,-0.31558943720549026
3.4009999999997365,0.10677659552702884,-0.32635663023496403
3.6009999999997144,0.12294226305637801,-0.3401339640523534
3.8009999999996924,0.13862598890019928,-0.367448298235569
4.000999999999671,0.15406841534467577,-0.3956579706875571
4.200999999999738,0.17252684362993936,-0.43226816043004895
4.400999999999804,0.19463963839524265,-0.4587715450976697
4.600999999999871,0.21219703162488354,-0.48777558369888546
4.800999999999938,0.22819502441687942,-0.5291391660127235
5.000000000000004,0.24660778634125244,-0.5633533016133728
5.200000000000071,0.2645151489815206,-0.6002084722586665
5.400000000000138,0.28073795287491404,-0.6422215571240378
5.600000000000205,0.2904135966511585,-0.6928375460390098
5.800000000000272,0.2917730899719587,-0.7411201014647277
6.000000000000338,0.2996320614929187,-0.7716333646045905
6.200000000000405,0.32097092564609603,-0.7884732354005661
6.400000000000472,0.33817220445196616,-0.8114987606260937
6.600000000000539,0.3391581218582528,-0.8479547417048694
6.800000000000606,0.3417423198378626,-0.8815383629909056
7.000000000000672,0.34414260105163913,-0.9277222588000078
7.200000000000739,0.3540517937277871,-0.9791778865116487
7.400000000000806,0.3688511501344613,-1.034299998672965
7.600000000000873,0.37776136368865,-1.0786714303489828
7.8000000000009395,0.3857005712544227,-1.1286855884499833
8.000000000001005,0.39370338753779316,-1.1792082953622365
8.200000000000895,0.404687107711089,-1.2309952338541492
8.400000000000784,0.4178302979557306,-1.2900623345260585
8.600000000000673,0.4316822933589828,-1.3564829998162875
8.800000000000562,0.4464528163032291,-1.4187651319296355
9.000000000000451,0.4576556628203525,-1.4668987959596165
9.20000000000034,0.4675668374843367,-1.5073830952098244
9.40000000000023,0.47933233348724325,-1.5365065660285386
9.600000000000119,0.49370459943681055,-1.5625135950998335
9.800000000000008,0.5121790895064937,-1.5943528099323216
10.000999999999896,0.5330602819296448,-1.617371314829548
10.200999999999786,0.5491191556310709,-1.6562509284578153
10.400999999999675,0.561267290801842,-1.6912093734499833
10.600999999999564,0.5737293493298424,-1.7232149451136134
10.800999999999453,0.5837329422463126,-1.7643525614287787
11.000999999999342,0.5914557226874462,-1.8232960859157556
11.200999999999231,0.5979960014196933,-1.8611332379831096
11.40099999999912,0.6073072221839583,-1.9104818278222224
11.60099999999901,0.6170751619066798,-1.973238120890289
11.800999999998899,0.6234817327967127,-2.0468772789197858
12.000999999998788,0.6343608026440858,-2.1167585678414746
12.200999999998677,0.642441672033373,-2.184751838228721
12.400999999998566,0.6436938238632497,-2.2458305123692894
12.600999999998455,0.6314039760947318,-2.3217446489005535
12.800999999998345,0.6127384642920123,-2.4016659436813326
13.000999999998234,0.5898426920710105,-2.477682908326257
13.200999999998123,0.5583829287861904,-2.555757169414094
13.400999999998012,0.5296867083734644,-2.6309473973341424
13.600999999997901,0.5111064477459646,-2.698255362745537
13.80099999999779,0.48849661986876003,-2.7628541764765338
14.00099999999768,0.4780702367792258,-2.829135229705355
14.200999999997569,0.4706408999916843,-2.8946669287854454
14.400999999997458,0.45757031753637223,-2.961389590034883
14.600999999997347,0.4561579419645389,-3.0207973083879813
14.800999999997236,0.44761928507451576,-3.083078738125893
15.000999999997125,0.42630510121720516,-3.1469081545324795
15.200999999997014,0.395271200670124,-3.200556084647795
15.400999999996904,0.3575182045434515,-3.2369164236640113
15.600999999996793,0.31665195608418184,-3.2704061591684654
15.800999999996682,0.26703124933522837,-3.291810194777812
16.000999999996573,0.2032838340527145,-3.2974021205543744
16.200999999996817,0.1365319456243411,-3.3009537549310406
16.40099999999706,0.07924473542711406,-3.3103430424067897
16.600999999997306,0.03110704765941247,-3.328340451488942
16.80099999999755,-0.016105601280656832,-3.3503463301680494
17.000999999997795,-0.06035540766241028,-3.372428503901289
17.20099999999804,-0.11462617064514284,-3.3939210719820476
17.400999999998284,-0.19082168311711664,-3.4026425963199682
17.60099999999853,-0.27129396429842983,-3.4009609432564423
17.800999999998773,-0.34639353562740594,-3.4050195626322997
18.000999999999017,-0.4153186064781386,-3.417842190803231
18.20099999999926,-0.48677594650544154,-3.430971146175542
18.400999999999506,-0.5566861835832162,-3.4361779422426753
18.60099999999975,-0.636514338886416,-3.43702245644774
18.799999999999994,-0.7123937177384148,-3.440382261808962
19.000000000000238,-0.7899673513396669,-3.442587876061796
19.200000000000482,-0.8552833522358598,-3.4570751876213706
19.400000000000727,-0.9234919525283647,-3.464691419346882
19.60000000000097,-0.9857396337069488,-3.4759294936597085
19.800000000001216,-1.0491570417223837,-3.4850893057522203
20.00000000000146,-1.1236257025313923,-3.4910007520870523
