Time (s),X (m),Y (m)
0.001,0.0006899943756669482,-0.0009963285817120471
0.20000000000000015,0.0009327926663813917,-0.00036436869267547997
0.4000000000000003,0.001633194945224234,-0.00046717041644412223
0.6000000000000004,0.003549786830593287,-0.0009325672904160785
0.8000000000000006,0.006372004471176666,-0.002085362190934577
1.0000000000000007,0.008881111414209848,-0.0026552183394693424
1.2009999999999785,0.012409598684857743,-0.0004806595293947059
1.4009999999999565,0.016878872853087607,0.0015664352658876903
1.6009999999999345,0.019994064164431436,0.0032300061271195706
1.8009999999999124,0.02338580881528888,0.0018972367687975988
2.0009999999998906,0.027152171842181595,0.0019427770748446154
2.2009999999998686,0.030014448991736137,0.000986586918335274
2.4009999999998466,0.032963561704676354,0.001998649119768065
2.6009999999998246,0.03750511887052928,0.0015151575736065711
2.8009999999998025,0.04090176796567974,0.0011217069555083908
3.0009999999997805,0.04463254870647211,0.000999348587412877
3.2009999999997585,0.04842269228855084,0.0011218097028499548
3.4009999999997365,0.05324748749710037,0.0028602965053571247
3.6009999999997144,0.0576802557293099,-0.0003688191857085641
3.8009999999996924,0.062322579188059696,-0.001220281558521382
4.000999999999671,0.06594647003343036,-0.006616388128858291
4.200999999999738,0.06930414886984046,-0.00804505857788286
4.400999999999804,0.07327938320160213,-0.00833958314515261
4.600999999999871,0.07536852493357644,-0.01004148563120464
4.800999999999938,0.07787669143541052,-0.011339734365402336
5.000000000000004,0.08283438307889758,-0.012333918403796293
5.200000000000071,0.08552871758189667,-0.017053421920974744
5.400000000000138,0.0906192888853869,-0.016448844819729573
5.600000000000205,0.09654234745597008,-0.015810104577969532
5.800000000000272,0.10022896127551578,-0.020036233039700212
6.000000000000338,0.10462076764732908,-0.023166271133042166
6.200000000000405,0.10983217810495392,-0.02605883819497432
6.400000000000472,0.11390247912376195,-0.02777509266001761
6.600000000000539,0.11723009405085383,-0.030520045725245044
6.800000000000606,0.11972557613407797,-0.03785709819643457
7.000000000000672,0.12380922092576627,-0.040792822167218634
7.200000000000739,0.12677514608347143,-0.0457487913898021
7.400000000000806,0.1295863154962168,-0.050760887098430255
7.600000000000873,0.13489488570031294,-0.04994075246217088
7.8000000000009395,0.1376628967510515,-0.05280273252665895
8.000000000001005,0.1412065735506065,-0.05377884649984662
8.200000000000895,0.143993312915854,-0.05808395271503383
8.400000000000784,0.14735407057057054,-0.0599557921713375
8.600000000000673,0.1520060658737197,-0.0658098529638747
8.800000000000562,0.1544542259911641,-0.06943064108913595
9.000000000000451,0.15988911388938146,-0.07085402037358586
9.20000000000034,0.16445988701118594,-0.07417523806974237
9.40000000000023,0.16677334538416033,-0.07810547374792803
9.600000000000119,0.16957182053627315,-0.08072794566677602
9.800000000000008,0.1750829438814882,-0.07928119282630153
10.000999999999896,0.17837249399841074,-0.082332369765554
10.200999999999786,0.18246241881344885,-0.08687498802637945
10.400999999999675,0.18566508290810532,-0.08647764100209117
10.600999999999564,0.19018139420782162,-0.09099722845859727
10.800999999999453,0.1940824460457719,-0.09219671868802853
11.000999999999342,0.1988663759745247,-0.09649590710408305
11.200999999999231,0.20343981555309346,-0.09825446938677718
11.40099999999912,0.2065799838675147,-0.096724820260774
11.60099999999901,0.21056627762311958,-0.1005946085228732
11.800999999998899,0.2153615771933206,-0.10139304301342617
12.000999999998788,0.21852931959135283,-0.10427052752834785
12.200999999998677,0.2223753068901842,-0.1072106036761677
12.400999999998566,0.22747830680083891,-0.1108619442810567
12.600999999998455,0.2308223122018846,-0.11181559963007272
12.800999999998345,0.2348651874673861,-0.11336439356896287
13.000999999998234,0.2379371187424006,-0.11957564727619663
13.200999999998123,0.2416852289546451,-0.12369428326608456
13.400999999998012,0.246060784257577,-0.12749380024460788
13.600999999997901,0.2485633947292958,-0.13285316408120598
13.80099999999779,0.2514116098417469,-0.14058172400947822
14.00099999999768,0.25504394858545465,-0.14356581310846958
14.200999999997569,0.2596741065087105,-0.14802411059264398
14.400999999997458,0.2630351356337233,-0.15295747232391235
14.600999999997347,0.2675386220548344,-0.15659330547116265
14.800999999997236,0.27222306779993116,-0.1582320849139273
15.000999999997125,0.2764805385103672,-0.16066011566182428
15.200999999997014,0.2811242275354237,-0.16269626452562413
15.400999999996904,0.28677406199847105,-0.16175169628651848
15.600999999996793,0.28998365240791774,-0.1659777095034162
15.800999999996682,0.2926458634353717,-0.17176663602970524
16.000999999996573,0.29437994368427517,-0.174835561316612
16.200999999996817,0.29883493452225435,-0.18008522678936686
16.40099999999706,0.30178076407788235,-0.18252541607600103
16.600999999997306,0.30513952325319715,-0.18146657452197412
16.80099999999755,0.3096968127785636,-0.18605030669634068
17.000999999997795,0.31258870168468983,-0.18999114870592676
17.20099999999804,0.31767217014723076,-0.1897680528218787
17.400999999998284,0.3204540168406143,-0.19605643137980427
17.60099999999853,0.3227366473090765,-0.20023464509107586
17.800999999998773,0.32700683898890803,-0.20713825245910644
18.000999999999017,0.33290250945574607,-0.21100744139939426
18.20099999999926,0.337354852253847,-0.21529920135204517
18.400999999999506,0.34087191643004755,-0.2208996003236667
18.60099999999975,0.3434222642318601,-0.2263689718949034
18.799999999999994,0.3463651641963561,-0.22968844178481354
19.000000000000238,0.34884165699417097,-0.23152447600868345
19.200000000000482,0.35322598705908476,-0.23642993019167438
19.400000000000727,0.35718307351329825,-0.23865087465597995
19.60000000000097,0.3602459192938039,-0.24291959027191729
19.800000000001216,0.36336738585660777,-0.24601537762880635
20.00000000000146,0.3678002818754351,-0.2470953686276619
