Time (s),X (m),Y (m)
0.001,7.024362446948994e-05,-0.0009692696795465074
0.20000000000000015,0.0018538599607918426,0.0012798264502580819
0.4000000000000003,0.007496490803528306,0.004161743561211272
0.6000000000000004,0.018199079517322164,-0.0002649928126787842
0.8000000000000006,0.028559557412200804,-0.007843138481520247
1.0000000000000007,0.0397914746892103,-0.016308476891808647
1.2009999999999785,0.055896247970905866,-0.02193969852176989
1.4009999999999565,0.07426974223819462,-0.01606972641525299
1.6009999999999345,0.0984253171895512,-0.003807332504483584
1.8009999999999124,0.12865722602795615,0.007077836893888305
2.0009999999998906,0.15621208658271396,0.023206804215821077
2.2009999999998686,0.18296629339863246,0.0453105507126642
2.4009999999998466,0.2093398872379912,0.0635182237161759
2.6009999999998246,0.23523579871602357,0.07427516968411449
2.8009999999998025,0.2612158763913638,0.08859034023946097
3.0009999999997805,0.2826802009865495,0.09328759206282293
3.2009999999997585,0.29749106390544033,0.09565801826328509
3.4009999999997365,0.3123257866589934,0.09363034069572165
3.6009999999997144,0.3303436483691694,0.08325660362570633
3.8009999999996924,0.3535065342872336,0.06734785142497077
4.000999999999671,0.3698663755056419,0.043619453593074314
4.200999999999738,0.3924634911608706,0.0152150864790842
4.400999999999804,0.40535604588978813,-0.015763083825318894
4.600999999999871,0.42306672080996305,-0.06055293363945924
4.800999999999938,0.43156523872220653,-0.102247945369909
5.000000000000004,0.4279707691779717,-0.12907940173176882
5.200000000000071,0.4142874257059405,-0.14736652486721646
5.400000000000138,0.401428378804203,-0.16426814833459422
5.600000000000205,0.3854481310578198,-0.18889848760718742
5.800000000000272,0.3661502045475557,-0.22274406912494252
6.000000000000338,0.34760162612823625,-0.26217045502047526
6.200000000000405,0.33441400574782015,-0.2994448889039476
6.400000000000472,0.32013705151158545,-0.33103938420784756
6.600000000000539,0.29489708345933524,-0.35482437549395823
6.800000000000606,0.2601267529151105,-0.38188456856023995
7.000000000000672,0.2216953160612813,-0.40553728202298794
7.200000000000739,0.17278569124691928,-0.4327507512749879
7.400000000000806,0.12045383067233939,-0.4695016852735209
7.600000000000873,0.07427218627668954,-0.5023630890429974
7.8000000000009395,0.02259255888814377,-0.5219724866179456
8.000000000001005,-0.02639877121014622,-0.5296948662451388
8.200000000000895,-0.05497562933761056,-0.53800190863955
8.400000000000784,-0.07897481475924749,-0.5326694424533125
8.600000000000673,-0.11461790314360594,-0.5140098315494676
8.800000000000562,-0.14443773625603806,-0.487648553152766
9.000000000000451,-0.1603696469934059,-0.45437499051808483
9.20000000000034,-0.18971927719142445,-0.41414160143134265
9.40000000000023,-0.220296075456527,-0.3709597567563727
9.600000000000119,-0.24888319657367686,-0.32480130042662214
9.800000000000008,-0.25597117429212274,-0.28273542368097054
10.000999999999896,-0.2695654937781315,-0.23535483330605325
10.200999999999786,-0.27799193742033396,-0.19268038938594337
10.400999999999675,-0.28636670221421484,-0.14786249371569732
10.600999999999564,-0.29034696405577354,-0.10478907231354953
10.800999999999453,-0.284117893817164,-0.07526735635044435
11.000999999999342,-0.27518288722488604,-0.048275053999319896
11.200999999999231,-0.2585129700414388,-0.02610333234222572
11.40099999999912,-0.24284076747690955,0.018247440815683892
11.60099999999901,-0.23181152278328954,0.057222294923559014
11.800999999998899,-0.21395991460850303,0.09951393700754374
12.000999999998788,-0.19643578929531597,0.14114591283124348
12.200999999998677,-0.1857610860622225,0.18579921396543034
12.400999999998566,-0.1618255384553757,0.22333757295323045
12.600999999998455,-0.12347525777851381,0.24704850825669317
12.800999999998345,-0.07514370279654817,0.26745353811931694
13.000999999998234,-0.03120180771552612,0.2937884796464053
13.200999999998123,0.009147020869493431,0.3204320252057081
13.400999999998012,0.04957401861680066,0.336732650495277
13.600999999997901,0.08445547421898741,0.3528568735720612
13.80099999999779,0.11698680511312788,0.3639431302582523
14.00099999999768,0.1582367597077477,0.3664469786977241
14.200999999997569,0.2107209367099295,0.36611818735228624
14.400999999997458,0.266843502586119,0.36623672123149986
14.600999999997347,0.3075353601720144,0.36648269495696306
14.800999999997236,0.34024576068761353,0.35926487869963547
15.000999999997125,0.3901326772186922,0.34799820988980895
15.200999999997014,0.4436693156769796,0.34103711745813586
15.400999999996904,0.5027175545363981,0.3299552344084781
15.600999999996793,0.5387737530125359,0.31319328464202517
15.800999999996682,0.5663842135790715,0.29285108285661293
16.000999999996573,0.6096723213426876,0.2697455193513812
16.200999999996817,0.6536787662810605,0.248179586640451
16.40099999999706,0.711145010568551,0.23478925565214967
16.600999999997306,0.775192240090748,0.22475863308178157
16.80099999999755,0.8285726228661459,0.21457806992227135
17.000999999997795,0.8798308634594743,0.20109091591870684
17.20099999999804,0.9345125205485733,0.18723153687626728
17.400999999998284,0.9898643344914957,0.17926065486859458
17.60099999999853,1.0547285870732075,0.18224298432702224
17.800999999998773,1.1291107951132933,0.20458227672511142
18.000999999999017,1.2033809077262663,0.2335005940650233
18.20099999999926,1.2674784375568693,0.25394176449423955
18.400999999999506,1.331909015015509,0.2647123605283013
18.60099999999975,1.4020405141520016,0.26813795590911976
18.799999999999994,1.4766041033254558,0.2628666614286514
19.000000000000238,1.5489593096208418,0.24542253783362586
19.200000000000482,1.6062102150907283,0.21345271202200541
19.400000000000727,1.6518927265564354,0.17711206852139852
19.60000000000097,1.6904965273281745,0.13078667528466034
19.800000000001216,1.7293220356280437,0.07642810364131446
20.00000000000146,1.7654488185004213,0.02377912821017488
