Time (s),X (m),Y (m)
0.001,0.0013578629866597446,-0.0004359202765531099
0.20000000000000015,0.0005673250671457794,0.00016628577471733327
0.4000000000000003,0.001996753870874654,-0.003573742794821935
0.6000000000000004,0.010334678430566667,-0.007645446810029622
0.8000000000000006,0.030295712772077158,-0.018196303057901944
1.0000000000000007,0.05696731220471907,-0.03144910310828562
1.2009999999999785,0.08737633505642999,-0.04303440552580039
1.4009999999999565,0.1212081215732845,-0.051361230832544055
1.6009999999999345,0.16060465688758122,-0.0651861718797149
1.8009999999999124,0.1924277709065063,-0.07130825234296227
2.0009999999998906,0.23030280437078635,-0.07865435097309958
2.2009999999998686,0.27871298931765537,-0.10523667210701333
2.4009999999998466,0.3319310173444188,-0.13747495450887467
2.6009999999998246,0.3880497202489814,-0.16545950267125684
2.8009999999998025,0.44066698569837276,-0.19229199256024024
3.0009999999997805,0.49006504766498876,-0.2193902877285278
3.2009999999997585,0.5424975838068332,-0.2456296313934551
3.4009999999997365,0.6023796477892048,-0.2763980371029653
3.6009999999997144,0.6592142753980376,-0.3059640745442105
3.8009999999996924,0.7186345454533941,-0.33651537572942597
4.000999999999671,0.7642852475797411,-0.354478018164526
4.200999999999738,0.8114319563732894,-0.3733053013556118
4.400999999999804,0.8573167127881628,-0.3927226007542451
4.600999999999871,0.8975872328792535,-0.42256468308482975
4.800999999999938,0.9207152875816731,-0.46451501955311086
5.000000000000004,0.9297220181164313,-0.5075037624974786
5.200000000000071,0.9167205566725297,-0.5616836427109585
5.400000000000138,0.8919743220373806,-0.6102959713575125
5.600000000000205,0.8477912320008378,-0.6363856977234443
5.800000000000272,0.793485577623396,-0.6433302460849266
6.000000000000338,0.7401519470753867,-0.6390736067374322
6.200000000000405,0.677373453088791,-0.6232737682840679
6.400000000000472,0.6092270207173961,-0.6033473182359955
6.600000000000539,0.5457401913138257,-0.5828763483586478
6.800000000000606,0.4827894763170852,-0.5559098055414962
7.000000000000672,0.42637685214852894,-0.5267165185297684
7.200000000000739,0.3842947650495517,-0.4868530432230118
7.400000000000806,0.3635111861149514,-0.44761543083056754
7.600000000000873,0.3610353970560918,-0.40388470525244113
7.8000000000009395,0.3741869952641855,-0.35601715043354604
8.000000000001005,0.3954756782026988,-0.31285162566875674
8.200000000000895,0.4236357093807582,-0.2869917155205431
8.400000000000784,0.46508847555699273,-0.2745606064360861
8.600000000000673,0.5050660066523774,-0.27215960313391
8.800000000000562,0.5474142733963592,-0.2768414474765638
9.000000000000451,0.5958550975334564,-0.28939212545170007
9.20000000000034,0.6501947570162667,-0.30970542471071844
9.40000000000023,0.7084958392692179,-0.3351122343398862
9.600000000000119,0.7736257361462946,-0.3723214148230845
9.800000000000008,0.8441972767570124,-0.4138570271799318
10.000999999999896,0.9130705572184068,-0.4450010930730816
10.200999999999786,0.981648578635911,-0.47921624660571654
10.400999999999675,1.039222663223805,-0.5362004392460031
10.600999999999564,1.0837360982215527,-0.5886366481049504
10.800999999999453,1.1014446763561974,-0.6469318500629131
11.000999999999342,1.1031887625757564,-0.7005984850135176
11.200999999999231,1.0954319366910148,-0.7547325056257939
11.40099999999912,1.0823782655821075,-0.807871699874604
11.60099999999901,1.0646025200541882,-0.8652087476322518
11.800999999998899,1.041000620237429,-0.9287075241714923
12.000999999998788,1.0071714964384977,-1.0019278311099693
12.200999999998677,0.9746595489029168,-1.0760751891691092
12.400999999998566,0.9371988025408733,-1.1513259557071842
12.600999999998455,0.9062692483438857,-1.228978381279898
12.800999999998345,0.8670344699832321,-1.3045926130483356
13.000999999998234,0.8165898657707572,-1.3715362662783597
13.200999999998123,0.7627018503146842,-1.4063500033627716
13.400999999998012,0.7089255115209057,-1.4072963965622662
13.600999999997901,0.656132339534877,-1.3950337236699224
13.80099999999779,0.6048574453598653,-1.3708871098405047
14.00099999999768,0.5737108412742316,-1.3192332416763295
14.200999999997569,0.5653323052010398,-1.2671036958553274
14.400999999997458,0.584732125172658,-1.2176630700043787
14.600999999997347,0.6221648528387873,-1.1848435401715651
14.800999999997236,0.674085674501391,-1.1868917039970321
15.000999999997125,0.7363667193212776,-1.2055308627428891
15.200999999997014,0.8031403316589298,-1.233600180571288
15.400999999996904,0.8733558084861531,-1.2782309109310908
15.600999999996793,0.9274623665004602,-1.3254018265932836
15.800999999996682,0.9504646959633253,-1.379800469672539
16.000999999996573,0.9542951320890738,-1.4350054424487615
16.200999999996817,0.9445187000618019,-1.4916061306161392
16.40099999999706,0.9164031316624771,-1.5536814944477264
16.600999999997306,0.8695283183281511,-1.613138140283972
16.80099999999755,0.8106666586548951,-1.6496732610831202
17.000999999997795,0.7463662751744581,-1.6638833703761722
17.20099999999804,0.682069739087017,-1.6634089437923598
17.400999999998284,0.6248528106213199,-1.6535476428737133
17.60099999999853,0.5588318896440593,-1.630170720976772
17.800999999998773,0.4975367932829589,-1.6056500228245918
18.000999999999017,0.43259836013101777,-1.5725419695652227
18.20099999999926,0.3618015785991362,-1.5352993770029137
18.400999999999506,0.287877852864692,-1.4965757613224837
18.60099999999975,0.22218842219887813,-1.4478201520441532
18.799999999999994,0.17623479002792924,-1.3935150396232228
19.000000000000238,0.16297732284588487,-1.345498109736617
19.200000000000482,0.16537060581868282,-1.2928595957155842
19.400000000000727,0.17857773476687266,-1.2320091709784524
19.60000000000097,0.20631269455506154,-1.1658111107201787
19.800000000001216,0.23384179738944724,-1.1002943886766496
20.00000000000146,0.2595758885968266,-1.032478659011339
