Time (s),X (m),Y (m)
0.001,-0.00030633420604509907,0.0007293631428462583
0.20000000000000015,0.00117574110474295,-0.0001410678514336388
0.4000000000000003,0.005529270185320372,0.0017150331955808813
0.6000000000000004,0.014268228451322128,0.001504471546278113
0.8000000000000006,0.021554666369328294,0.002802557278095242
1.0000000000000007,0.02182457920678677,0.006378050321623686
1.2009999999999785,0.02633876202176659,0.009251038032281273
1.4009999999999565,0.050831779916298905,0.006037997355807836
1.6009999999999345,0.07331522154641218,0.005598113989602271
1.8009999999999124,0.09725380540406549,0.00138998833596461
2.0009999999998906,0.1200769798886205,0.003007239474322824
2.2009999999998686,0.14613397897577732,0.0008167028400410258
2.4009999999998466,0.16641832890647382,0.004279274675134011
2.6009999999998246,0.19790664126186927,0.008874714654516495
2.8009999999998025,0.24552725584545548,0.00848187069368946
3.0009999999997805,0.2896838373833389,0.006372592378851475
3.2009999999997585,0.33091693656293125,-0.004288495465615404
3.4009999999997365,0.36922067047782414,-0.013395850135176232
3.6009999999997144,0.40371649361177653,-0.01596823184417188
3.8009999999996924,0.43396344889900573,-0.016655860028685285
4.000999999999671,0.46668568482075845,-0.018888678197366858
4.200999999999738,0.5082709759724711,-0.0235430270393021
4.400999999999804,0.5581688385780372,-0.03142240259903167
4.600999999999871,0.5914940992908776,-0.02949854335748403
4.800999999999938,0.6205642655056859,-0.024480931638864573
5.000000000000004,0.6496107333216572,-0.02574283623012897
5.200000000000071,0.6764462633411839,-0.024013607067912987
5.400000000000138,0.7105688506695864,-0.027307285324947903
5.600000000000205,0.7552767364921061,-0.028230429174505568
5.800000000000272,0.8075344215874783,-0.03402467193418836
6.000000000000338,0.860722703528762,-0.03529171018307705
6.200000000000405,0.914536908829,-0.04052231041249264
6.400000000000472,0.9722046063450601,-0.050703609123136414
6.600000000000539,1.0258290072427934,-0.05728178650160058
6.800000000000606,1.0772603013387592,-0.059480276929278125
7.000000000000672,1.1244679752976292,-0.06724775216099868
7.200000000000739,1.1840972179876748,-0.08228584357125529
7.400000000000806,1.2486025694359004,-0.09739292748484948
7.600000000000873,1.313361903473723,-0.10571268034784607
7.8000000000009395,1.3792020534655363,-0.11380501667453671
8.000000000001005,1.4421284723608745,-0.1257247760014578
8.200000000000895,1.507725378910209,-0.14617619046017621
8.400000000000784,1.5735680324374242,-0.16632310919147641
8.600000000000673,1.6399813230038078,-0.19405614971645793
8.800000000000562,1.6961435061537762,-0.22573476657679256
9.000000000000451,1.7464826170629641,-0.26185905456836545
9.20000000000034,1.77295954455616,-0.304498507410518
9.40000000000023,1.7816284575072836,-0.35129606594117324
9.600000000000119,1.7744547434602984,-0.41092065758406376
9.800000000000008,1.7556274856658711,-0.4819073741825836
10.000999999999896,1.7355465746933583,-0.5502159837249407
10.200999999999786,1.712828438033125,-0.6244838892627678
10.400999999999675,1.6936702959008965,-0.7006300522953643
10.600999999999564,1.6781634082525487,-0.7825828004523221
10.800999999999453,1.6653218121666267,-0.8612205948425412
11.000999999999342,1.6525574733567403,-0.9296401973858898
11.200999999999231,1.6390768209593614,-1.0064808027692682
11.40099999999912,1.630310916504321,-1.0822047174105769
11.60099999999901,1.6279614930287483,-1.1516976124521459
11.800999999998899,1.6201910039574317,-1.2217587545016686
12.000999999998788,1.613372644150447,-1.2855392129365022
12.200999999998677,1.5968905958487964,-1.3486525192624303
12.400999999998566,1.5774192264497628,-1.411343779716772
12.600999999998455,1.5477513695995446,-1.4824921706378726
12.800999999998345,1.51919190156289,-1.5541717612021164
13.000999999998234,1.4818013812640036,-1.6205666328729549
13.200999999998123,1.4356849261345783,-1.683880941203455
13.400999999998012,1.3932216023456823,-1.7466851615371124
13.600999999997901,1.3525907921127762,-1.7999730155485032
13.80099999999779,1.3031495699217022,-1.8326143362030305
14.00099999999768,1.2420391210843391,-1.8486738133004235
14.200999999997569,1.1862296908510361,-1.8581534640189703
14.400999999997458,1.1293273481937751,-1.8622927366441269
14.600999999997347,1.0667779085387024,-1.8566882394973425
14.800999999997236,1.0105769457317089,-1.8508527463867148
15.000999999997125,0.9457606644473778,-1.8437999116108954
15.200999999997014,0.8793375469109562,-1.8353486471050713
15.400999999996904,0.8148715971323779,-1.826617992027996
15.600999999996793,0.745641115355557,-1.8239347478716288
15.800999999996682,0.6787044434543769,-1.8182160158162877
16.000999999996573,0.6142443945824323,-1.7979132764317483
16.200999999996817,0.5486229175999808,-1.774842824745802
16.40099999999706,0.4814715135798154,-1.7360064922214258
16.600999999997306,0.4166077808658684,-1.6897839743194718
16.80099999999755,0.36086212126396033,-1.6619664418186837
17.000999999997795,0.32689234174660575,-1.6215598438868941
17.20099999999804,0.31203691495871716,-1.5792482994762262
17.400999999998284,0.3020774683678529,-1.5331636914789029
17.60099999999853,0.29978429458148975,-1.471797656605662
17.800999999998773,0.2966456182857072,-1.403202683454822
18.000999999999017,0.2908935933879077,-1.3374715548807692
18.20099999999926,0.31785886970755023,-1.2805045687009091
18.400999999999506,0.3548735682749073,-1.2531108113650538
18.60099999999975,0.3953265758312205,-1.2394344253996117
18.799999999999994,0.43651855164472325,-1.232174343684592
19.000000000000238,0.4859416936090322,-1.2388539901227156
19.200000000000482,0.5382078941917998,-1.2514015537147194
19.400000000000727,0.5981655601515927,-1.2707817534610226
19.60000000000097,0.6531870462856747,-1.2985805760186389
19.800000000001216,0.6894970960149631,-1.343666307678703
20.00000000000146,0.7161235326825826,-1.3783738507341134
