Time (s),X (m),Y (m)
0.001,0.00015606349793537,0.0009963285817120476
0.20000000000000015,0.0012837598825019094,-0.0008884774182591815
0.4000000000000003,0.0048886123788393545,-0.006750744711621251
0.6000000000000004,0.010826043373420621,-0.013908279956743246
0.8000000000000006,0.02122482936997016,-0.01520903919104054
1.0000000000000007,0.02813032303769911,-0.024569749484931774
1.2009999999999785,0.03929620388331043,-0.03749441630986449
1.4009999999999565,0.05075184424056034,-0.05432125036187779
1.6009999999999345,0.07255181671978257,-0.06143464189516564
1.8009999999999124,0.09842559390900235,-0.06840958590530234
2.0009999999998906,0.11790564295200383,-0.08220672438949912
2.2009999999998686,0.1319226321636014,-0.10422213028555578
2.4009999999998466,0.1496278368673996,-0.12975359161800332
2.6009999999998246,0.165336745226981,-0.16053468980619479
2.8009999999998025,0.16709517336872312,-0.1949255589037061
3.0009999999997805,0.16787537720645967,-0.23037302280347793
3.2009999999997585,0.15157068969045118,-0.26420484669309124
3.4009999999997365,0.12529597455266858,-0.3002211517543938
3.6009999999997144,0.10214269840074032,-0.33157605955892494
3.8009999999996924,0.07185286806805077,-0.3573122571659141
4.000999999999671,0.049887082531007494,-0.3876755319384828
4.200999999999738,0.02131540821972263,-0.41703942346969414
4.400999999999804,-0.008156942447348695,-0.4496424061059127
4.600999999999871,-0.04291538234669337,-0.4839637648588317
4.800999999999938,-0.07683522164061453,-0.5164949152001099
5.000000000000004,-0.121959568649401,-0.54330962954662
5.200000000000071,-0.17572953670606678,-0.561642333874534
5.400000000000138,-0.22283615193339432,-0.5835287915577684
5.600000000000205,-0.27262771569190136,-0.602077741289715
5.800000000000272,-0.32614082970976127,-0.6079311971789162
6.000000000000338,-0.38001978506074807,-0.6101246987775888
6.200000000000405,-0.4264622991814853,-0.5973317923138165
6.400000000000472,-0.4666045079807644,-0.5711020178525839
6.600000000000539,-0.5097254319065239,-0.5397524990694659
6.800000000000606,-0.5446392115755625,-0.5028513982135534
7.000000000000672,-0.5608664943727725,-0.4606149290760409
7.200000000000739,-0.5529099652751195,-0.4186637347928883
7.400000000000806,-0.5313756259402355,-0.3764579671604408
7.600000000000873,-0.5141928688814589,-0.328733099326079
7.8000000000009395,-0.49272915268700673,-0.28411925052622866
8.000000000001005,-0.46788620520261415,-0.2344884017284519
8.200000000000895,-0.43335278439302516,-0.18787649243739346
8.400000000000784,-0.38840425991223004,-0.14502112330524666
8.600000000000673,-0.3467536039335002,-0.10225042946846533
8.800000000000562,-0.3147044155078894,-0.058799748778998476
9.000000000000451,-0.2762184217455022,-0.016424966513111386
9.20000000000034,-0.2520731728362071,0.030867539099194038
9.40000000000023,-0.20875197210752314,0.07469707774765871
9.600000000000119,-0.15904920667597264,0.11631763965564774
9.800000000000008,-0.10380152731221051,0.14752918846186128
10.000999999999896,-0.06288143155662199,0.1828234624548619
10.200999999999786,-0.022576455353857244,0.2229057647925956
10.400999999999675,0.003486595732643988,0.2675321324901511
10.600999999999564,0.025137609812631894,0.3164617225951649
10.800999999999453,0.0562127398787173,0.36440093816994723
11.000999999999342,0.10185630414959666,0.40647831503590637
11.200999999999231,0.1534629356947695,0.44596504585176117
11.40099999999912,0.20656610327522407,0.4866905899259322
11.60099999999901,0.24676947941716804,0.5255429998343442
11.800999999998899,0.2855909915302469,0.5646948350282973
12.000999999998788,0.3135014500228205,0.6091846603064365
12.200999999998677,0.3292134826122841,0.6582134674313453
12.400999999998566,0.34784099580625233,0.7098707530006209
12.600999999998455,0.36524863232040494,0.7633891561369809
12.800999999998345,0.3897536762369136,0.8086418804836268
13.000999999998234,0.404887863230191,0.858998549005196
13.200999999998123,0.41434951200848746,0.9120389838415172
13.400999999998012,0.4162331886122295,0.9683546943479396
13.600999999997901,0.4338451836923333,1.023801752223515
13.80099999999779,0.47264129655996395,1.0698208033504442
14.00099999999768,0.5086561873671062,1.1132713490436035
14.200999999997569,0.5486185026554702,1.1549917398047478
14.400999999997458,0.5958086485476651,1.1956280735884013
14.600999999997347,0.6247462075078876,1.242734832811397
14.800999999997236,0.6468656245267158,1.2909079155568188
15.000999999997125,0.6749595842882437,1.3445059560166663
15.200999999997014,0.7065775518847663,1.3996184824568878
15.400999999996904,0.7306183466752745,1.4582161811758199
15.600999999996793,0.7501242083883355,1.5200767110182711
15.800999999996682,0.8012009205873555,1.5608386512747834
16.000999999996573,0.8528873137565717,1.5983356969245504
16.200999999996817,0.8948508471981309,1.6368410084548344
16.40099999999706,0.9518547352744116,1.6663969084449828
16.600999999997306,1.0121266738226287,1.695245081404262
16.80099999999755,1.0463027027068803,1.7348435860279907
17.000999999997795,1.0739385301200985,1.7842811470093105
17.20099999999804,1.0969656039301603,1.8398130640182282
17.400999999998284,1.1284608243104584,1.887300488622691
17.60099999999853,1.161171581188446,1.9321818768673025
17.800999999998773,1.196466412754155,1.9724662654190888
18.000999999999017,1.2361204431087724,2.0171824635235676
18.20099999999926,1.274722711727427,2.0662643035844894
18.400999999999506,1.3054824486396401,2.1154892957928255
18.60099999999975,1.3442833615150764,2.1533523577508116
18.799999999999994,1.3851444797984667,2.1888882462105053
19.000000000000238,1.423975679119433,2.2326796783521115
19.200000000000482,1.4546638756054229,2.2794549827859893
19.400000000000727,1.484773127086314,2.3184495809869294
19.60000000000097,1.5236705743221546,2.342954625283897
19.800000000001216,1.5678178327316528,2.3335156099992966
20.00000000000146,1.609845470704571,2.302110525578409
