Time (s),X (m),Y (m)
0.001,0.00024391513958915793,0.0010158048217711127
0.20000000000000015,0.0012202370149026385,-0.0010482038975485658
0.4000000000000003,0.0037905249792100923,0.0071846375300142346
0.6000000000000004,0.014737401060028986,0.01750582716930978
0.8000000000000006,0.03972605270337873,0.029252102640153054
1.0000000000000007,0.057175850676894645,0.027172215337474007
1.2009999999999785,0.06363303497714451,0.01888222750785104
1.4009999999999565,0.07233892518763015,0.003111128992487055
1.6009999999999345,0.07298804880883,-0.01923012403536255
1.8009999999999124,0.05836136400559424,-0.03969019708869285
2.0009999999998906,0.03557840853815679,-0.052352116205233536
2.2009999999998686,0.01467396658077917,-0.0741830365033288
2.4009999999998466,-0.013875827139827596,-0.08948915916630376
2.6009999999998246,-0.04011514676923184,-0.11007590250018383
2.8009999999998025,-0.07078847655975072,-0.12231937317656419
3.0009999999997805,-0.10766110947411255,-0.1316834325627617
3.2009999999997585,-0.1449136034986076,-0.14086765654114772
3.4009999999997365,-0.18210313998114028,-0.14400498505186077
3.6009999999997144,-0.21400313890096137,-0.12991550378772154
3.8009999999996924,-0.2437051315833337,-0.11813720500276388
4.000999999999671,-0.28462004933497986,-0.11264469559445692
4.200999999999738,-0.3284519657277037,-0.10222736990807871
4.400999999999804,-0.3499391211115856,-0.08301166334867215
4.600999999999871,-0.35548082715381296,-0.05712245299086212
4.800999999999938,-0.36446788620484283,-0.022553732623503513
5.000000000000004,-0.36764425193794154,0.01571950500804928
5.200000000000071,-0.3554523363535128,0.048588599656177456
5.400000000000138,-0.32883155353891264,0.0755212343434016
5.600000000000205,-0.2958046136897757,0.1066914253410359
5.800000000000272,-0.25892472354426643,0.13062994609529385
6.000000000000338,-0.21393547112688371,0.13332800264630526
6.200000000000405,-0.16895920359978736,0.11585350825183346
6.400000000000472,-0.125106187542376,0.09693838146911843
6.600000000000539,-0.07975360433809042,0.07997606886332127
6.800000000000606,-0.03717955570364129,0.060704443581153
7.000000000000672,-0.006405754207776153,0.030162041001985593
7.200000000000739,-0.0031931591479120724,-0.006153503268315372
7.400000000000806,0.006838095732443832,-0.05375157828441501
7.600000000000873,0.018722238513217915,-0.10602465180012277
7.8000000000009395,0.006726712138279502,-0.15543351570337213
8.000000000001005,-0.0143759800453664,-0.2075782522334134
8.200000000000895,-0.04473454188351482,-0.2526722800552125
8.400000000000784,-0.0683710136079183,-0.2916177982155725
8.600000000000673,-0.089696149186774,-0.33339436662099237
8.800000000000562,-0.1080733143781585,-0.3689932608247532
9.000000000000451,-0.11283427755115984,-0.4060361254564715
9.20000000000034,-0.12771960352048758,-0.4442907643709992
9.40000000000023,-0.12869338571691918,-0.48741241876515723
9.600000000000119,-0.11835746140776766,-0.5319067955560204
9.800000000000008,-0.08998437408297238,-0.5765671403747382
10.000999999999896,-0.06479670199678152,-0.63194083481248
10.200999999999786,-0.051343532947347545,-0.6910968333884605
10.400999999999675,-0.040627962117678475,-0.7505159450719957
10.600999999999564,-0.03983680059422005,-0.806158731869921
10.800999999999453,-0.06039832874104104,-0.8554621685337722
11.000999999999342,-0.09151776897898584,-0.9002901479078281
11.200999999999231,-0.13205992171474362,-0.9342750422304023
11.40099999999912,-0.17772380502086732,-0.9628698890951672
11.60099999999901,-0.2284720975546133,-0.9697352411651735
11.800999999998899,-0.2728628608489476,-0.9555891382829409
12.000999999998788,-0.29904009586158575,-0.9305135421530052
12.200999999998677,-0.323127916078439,-0.8951076295789769
12.400999999998566,-0.3283535149662783,-0.8506198067244661
12.600999999998455,-0.3213631764292458,-0.8007299538495536
12.800999999998345,-0.3135717303121027,-0.7475071648585404
13.000999999998234,-0.2913614405331103,-0.7067249646011888
13.200999999998123,-0.2608941189427322,-0.6736011413826587
13.400999999998012,-0.22746259432765242,-0.6385871180622636
13.600999999997901,-0.1893499420964916,-0.6133105405127307
13.80099999999779,-0.13833524205977737,-0.5981707015928927
14.00099999999768,-0.07461679683040448,-0.5949661735071463
14.200999999997569,-0.0232620927101763,-0.6089980005466574
14.400999999997458,-0.0055166714939493605,-0.6392584088628346
14.600999999997347,0.005845620791760299,-0.6795198384475362
14.800999999997236,0.006720282466043158,-0.7268574727591913
15.000999999997125,-0.0012303586936259269,-0.7728616576276146
15.200999999997014,-0.01959169671142806,-0.8135267860595112
15.400999999996904,-0.04059684691056824,-0.8493398169062403
15.600999999996793,-0.06978358512539395,-0.871010731542506
15.800999999996682,-0.11158158259696493,-0.8939309244048889
16.000999999996573,-0.15063415156245047,-0.8913532992229517
16.200999999996817,-0.18962118545697804,-0.8649943692100343
16.40099999999706,-0.2311393257447446,-0.8362302182305386
16.600999999997306,-0.26248342068176156,-0.800310361133594
16.80099999999755,-0.29870673278216814,-0.7715637562939597
17.000999999997795,-0.3415269282479361,-0.7568412483420378
17.20099999999804,-0.3928617784448921,-0.7610584937920951
17.400999999998284,-0.44473235428945024,-0.7518572856456099
17.60099999999853,-0.5039896585525468,-0.7300675484974045
17.800999999998773,-0.539617046206187,-0.698095436768078
18.000999999999017,-0.5428621180258045,-0.6626355516249731
18.20099999999926,-0.5277941811951469,-0.625339440890288
18.400999999999506,-0.5067548297101843,-0.5810517333585277
18.60099999999975,-0.4781366459890616,-0.5497917568627436
18.799999999999994,-0.44272751864193144,-0.5479618327501479
19.000000000000238,-0.4068714634458656,-0.5563884636106221
19.200000000000482,-0.3626215412435652,-0.5588955177567972
19.400000000000727,-0.3135865273989073,-0.5755847239910322
19.60000000000097,-0.26188695598506545,-0.5921569893786766
19.800000000001216,-0.21131970464876812,-0.6092245334429199
20.00000000000146,-0.164654006376254,-0.6309049623106161
