Time (s),X (m),Y (m)
0.001,-1.2891339751951317e-05,0.0009348340498585851
0.20000000000000015,0.0013962920990111018,-0.000493803190160405
0.4000000000000003,0.004630801050642565,0.003433137883842739
0.6000000000000004,0.01325856293947577,-0.002629375153692149
0.8000000000000006,0.02653280994272089,-0.0020642990016869547
1.0000000000000007,0.045379383057973066,-0.0009112822373569389
1.2009999999999785,0.07311405563537499,-0.005053065805353589
1.4009999999999565,0.10315715155233822,-0.003948360863314121
1.6009999999999345,0.13921718522761622,-0.004195619223457072
1.8009999999999124,0.17751117211786172,0.0033910199134442104
2.0009999999998906,0.21023713710258743,0.0013203980686974592
2.2009999999998686,0.23953416516867648,-0.009990808374336992
2.4009999999998466,0.2688945475220441,-0.016313510258254782
2.6009999999998246,0.29677061628243284,-0.03176607604116747
2.8009999999998025,0.3238484074591416,-0.047260984856555076
3.0009999999997805,0.3529875345816987,-0.063725586005783
3.2009999999997585,0.38332882024740583,-0.07770321609907514
3.4009999999997365,0.4145126114536673,-0.09169279593898398
3.6009999999997144,0.44168563107707765,-0.121911102697948
3.8009999999996924,0.47196256508482576,-0.1648062836784685
4.000999999999671,0.5046428876313876,-0.20693137596287947
4.200999999999738,0.5279927014846788,-0.2640529789231133
4.400999999999804,0.5479336423959708,-0.3250889415393995
4.600999999999871,0.5660975796311636,-0.3817612151778284
4.800999999999938,0.5839118047210594,-0.4352281145320479
5.000000000000004,0.5896122835022487,-0.4984637664291129
5.200000000000071,0.5904923955073335,-0.5706829523199634
5.400000000000138,0.5853145745013277,-0.6455297647723479
5.600000000000205,0.5863288324487135,-0.7150695862037953
5.800000000000272,0.5900862175568735,-0.790400703830514
6.000000000000338,0.5965407858158671,-0.8627116832699342
6.200000000000405,0.5976685157635193,-0.93640424978601
6.400000000000472,0.609892395670129,-1.008872642038858
6.600000000000539,0.6254350303857514,-1.0850307724315214
6.800000000000606,0.6349633897380748,-1.1641521158444306
7.000000000000672,0.6360656154894615,-1.2349964735305456
7.200000000000739,0.626574718137938,-1.2896069094668143
7.400000000000806,0.5973648054661086,-1.3308968397113639
7.600000000000873,0.5499287545095366,-1.362323191508982
7.8000000000009395,0.49281403446231653,-1.3765707512901812
8.000000000001005,0.435813490300691,-1.3644492001730815
8.200000000000895,0.3875489054693364,-1.3405847797948993
8.400000000000784,0.34247800427432923,-1.3126831220010347
8.600000000000673,0.30300426749229015,-1.2617548040655986
8.800000000000562,0.27025674512372777,-1.2096490974040792
9.000000000000451,0.2379322565747694,-1.159547626798707
9.20000000000034,0.20847633746585573,-1.1014316846777128
9.40000000000023,0.1788629034654282,-1.0521825209210596
9.600000000000119,0.14703413110642366,-1.0027891389498207
9.800000000000008,0.1136711326918936,-0.9513370048136297
10.000999999999896,0.08220549046057736,-0.9047225081340832
10.200999999999786,0.054204609530346205,-0.8524251179259554
10.400999999999675,0.026596833619134893,-0.7997628046547604
10.600999999999564,0.0005532407693322866,-0.7273415543761842
10.800999999999453,-0.01530951055198383,-0.655069898869786
11.000999999999342,-0.025611126025057267,-0.5782503496863065
11.200999999999231,-0.03671679769790277,-0.5071149562410734
11.40099999999912,-0.05232176354481932,-0.4375997148468669
11.60099999999901,-0.06246105265294146,-0.36273816046026996
11.800999999998899,-0.06737703574028642,-0.2791040621942261
12.000999999998788,-0.07064811941552473,-0.18172158632875832
12.200999999998677,-0.06739555784177598,-0.08027601526226298
12.400999999998566,-0.059533639174086196,0.010098351808501034
12.600999999998455,-0.024684551753839552,0.0908850836550319
12.800999999998345,0.007775285747630035,0.16761369250217178
13.000999999998234,0.04037073235476025,0.23222465713474802
13.200999999998123,0.08885573987524892,0.2763125932800614
13.400999999998012,0.1507400735380369,0.3048255284183811
13.600999999997901,0.21298602690889154,0.32327171067005817
13.80099999999779,0.29246169634363633,0.3375406453957922
14.00099999999768,0.3748891196913322,0.3500044470622723
14.200999999997569,0.44955679478826865,0.3669303849524865
14.400999999997458,0.526437366963796,0.38531833373096513
14.600999999997347,0.6134963306288664,0.39973434853236195
14.800999999997236,0.7093812764093224,0.40844910097669107
15.000999999997125,0.7985175316035916,0.4187562397368331
15.200999999997014,0.8869907746429083,0.4311427883995028
15.400999999996904,0.9869551357634266,0.44702508363858456
15.600999999996793,1.0788532233348949,0.4639635028669768
15.800999999996682,1.1687184355140103,0.4840266564785373
16.000999999996573,1.2621791700553302,0.5058478489910239
16.200999999996817,1.3617527657533406,0.5253899477251616
16.40099999999706,1.4591373422832024,0.5415739576292132
16.600999999997306,1.5541022175624772,0.5477508184859834
16.80099999999755,1.6562278494043146,0.5450653185514489
17.000999999997795,1.7648164603711127,0.5471363586650373
17.20099999999804,1.8816999638520744,0.5435438238432398
17.400999999998284,2.000013302755633,0.5364260289002795
17.60099999999853,2.1114762660628625,0.5346577318118217
17.800999999998773,2.2205766413100783,0.5376949205802901
18.000999999999017,2.3145023348731044,0.5528557218156224
18.20099999999926,2.4008048788220187,0.5761826480065767
18.400999999999506,2.492743180917074,0.5962195996897294
18.60099999999975,2.588296478804643,0.6139630161855201
18.799999999999994,2.701028016117623,0.6111692853355101
19.000000000000238,2.8088240414637733,0.6103148728593045
19.200000000000482,2.9242237746828588,0.6117351156381937
19.400000000000727,3.0276067442367665,0.6177050390162505
19.60000000000097,3.126073899432999,0.633143723364202
19.800000000001216,3.219522922370144,0.6487125236336646
20.00000000000146,3.3129590551273154,0.6789430328905834
