Time (s),X (m),Y (m)
0.001,0.00033312994539159724,0.0010275501737767782
0.20000000000000015,0.0008910476634880822,-0.0002201666488137049
0.4000000000000003,0.0019138048636926082,-0.0007102182902085849
0.6000000000000004,0.0037011753096007714,-0.0014903949312155636
0.8000000000000006,0.006145643365922385,-0.0029006818607506075
1.0000000000000007,0.009056794445543625,-0.00209832393166804
1.2009999999999785,0.012100737848125234,-0.0045469364127595675
1.4009999999999565,0.015985732928254916,-0.005171874899882405
1.6009999999999345,0.02529989323243311,-0.005372076896126879
1.8009999999999124,0.033857114769133424,0.0012089886350524358
2.0009999999998906,0.04446117667303053,0.0033260870953118987
2.2009999999998686,0.05383848322495732,0.006195932806365469
2.4009999999998466,0.06281391236884049,0.01069909823865415
2.6009999999998246,0.07337602715771326,0.010253266584631488
2.8009999999998025,0.08216803199589812,0.013115663433459521
3.0009999999997805,0.08920496521071587,0.01498488444882977
3.2009999999997585,0.09710707047132462,0.020672283576651664
3.4009999999997365,0.10585478076557954,0.030699974890136976
3.6009999999997144,0.11481050202184176,0.026104461909855
3.8009999999996924,0.12448086375013707,0.02536483209018816
4.000999999999671,0.1343428210299003,0.021858553419056594
4.200999999999738,0.14445488852707805,0.022618245371516785
4.400999999999804,0.1553438517980388,0.03230218441954503
4.600999999999871,0.16543458281537132,0.03873541226918294
4.800999999999938,0.17577356944630473,0.037948852350943356
5.000000000000004,0.1872331373580691,0.0410037760331493
5.200000000000071,0.1979852372775251,0.04370942361999404
5.400000000000138,0.20846524462327387,0.046575511764061474
5.600000000000205,0.22103066482455075,0.04656932604096165
5.800000000000272,0.23159381538715898,0.0506654818268123
6.000000000000338,0.24195216400463693,0.04952148184888521
6.200000000000405,0.2522661829327728,0.04499301397893484
6.400000000000472,0.26389104160095184,0.044935074252205005
6.600000000000539,0.27470273068396917,0.04309068217245304
6.800000000000606,0.2871600607901533,0.04315968575292288
7.000000000000672,0.29745109246689355,0.04954991177345165
7.200000000000739,0.30938209721337834,0.05110185159881801
7.400000000000806,0.32065849901120447,0.05132111681361166
7.600000000000873,0.3336661564941238,0.046839256662380264
7.8000000000009395,0.34508649817382625,0.04832493490662997
8.000000000001005,0.35729004153279886,0.05337741137899691
8.200000000000895,0.36927482633871167,0.05942030970347448
8.400000000000784,0.38062060529233194,0.06694029881866026
8.600000000000673,0.3933614063143776,0.06752497087345792
8.800000000000562,0.40631483000507934,0.06596872229915406
9.000000000000451,0.41856592981375,0.061031634943309744
9.20000000000034,0.4324353209903876,0.053450018327749454
9.40000000000023,0.44650644743806317,0.05438803986374889
9.600000000000119,0.4614390470514048,0.05475060330475013
9.800000000000008,0.4716897506430029,0.0561635325013323
10.000999999999896,0.48185566911204203,0.05758001627132263
10.200999999999786,0.4910068175930344,0.0435852480147275
10.400999999999675,0.501748127046601,0.03403739355993203
10.600999999999564,0.5109481882533544,0.035005099389809835
10.800999999999453,0.5216621192597253,0.04098452792808758
11.000999999999342,0.5316680813047417,0.04472584432048137
11.200999999999231,0.5423283695106303,0.052329368796354615
11.40099999999912,0.5571749786445126,0.059822097011666166
11.60099999999901,0.5736345480401839,0.05593276157815805
11.800999999998899,0.5890278765489672,0.0598145670082899
12.000999999998788,0.6022344696960034,0.0603863766322899
12.200999999998677,0.6147419943010238,0.06312668531723957
12.400999999998566,0.6274827857362458,0.06405700375304946
12.600999999998455,0.6413195740155153,0.060851644573457854
12.800999999998345,0.6559035306289613,0.06169367890151694
13.000999999998234,0.6683196721896273,0.0626422052043892
13.200999999998123,0.6807118000991412,0.06322217917602518
13.400999999998012,0.6931938397520043,0.061853651703710495
13.600999999997901,0.7046179218033896,0.06044531671510487
13.80099999999779,0.7170619253138938,0.05986613301062771
14.00099999999768,0.7292000139878834,0.05958907436436535
14.200999999997569,0.7420144337930418,0.06792692540420935
14.400999999997458,0.7547604113882768,0.08178584391212555
14.600999999997347,0.7685524453007605,0.09017307292095995
14.800999999997236,0.782300721454077,0.09734669690671886
15.000999999997125,0.7951331085234395,0.10054797574110151
15.200999999997014,0.8072811193561268,0.10163730825066214
15.400999999996904,0.8182440717437477,0.1029344874357913
15.600999999996793,0.8325379232226179,0.10284829147056097
15.800999999996682,0.8440524436989614,0.10296003625728392
16.000999999996573,0.8563057202357441,0.10448420431526949
16.200999999996817,0.8687847236190772,0.1093388164047583
16.40099999999706,0.8837665747417843,0.10946561805174394
16.600999999997306,0.8940283320605579,0.11115678163497514
16.80099999999755,0.9056970353785981,0.11711861389425039
17.000999999997795,0.9199396375330571,0.11075094555428269
17.20099999999804,0.9327704727499867,0.10986785753405752
17.400999999998284,0.9440267786157576,0.1143929863892214
17.60099999999853,0.9552979199644307,0.1197345892466863
17.800999999998773,0.9680915506103244,0.12577777661104741
18.000999999999017,0.9803504927943643,0.13603105876948243
18.20099999999926,0.992555808553367,0.1444782540270946
18.400999999999506,1.0069283741363955,0.1469871634708244
18.60099999999975,1.020868753476774,0.15362954727000236
18.799999999999994,1.0389405852671842,0.14953653704311293
19.000000000000238,1.0543785887286992,0.1464162689473096
19.200000000000482,1.0662481463324025,0.1437512757889053
19.400000000000727,1.0799142763721157,0.14302943670448773
19.60000000000097,1.0938413653138868,0.1460905184420373
19.800000000001216,1.10698464914488,0.14745795486435564
20.00000000000146,1.1189326904499142,0.1530199845443514
