Time (s),X (m),Y (m)
0.001,0.001086048446240603,0.0007901558823345071
0.20000000000000015,0.0005230542694505228,-0.00043950206022383447
0.4000000000000003,0.005516863720731706,0.0017881960128427144
0.6000000000000004,0.012995427651599653,0.0013904200988833799
0.8000000000000006,0.021679454110114845,0.005681636963611965
1.0000000000000007,0.044936321416102175,0.018806319806529928
1.2009999999999785,0.056796552583430325,0.017622107894020887
1.4009999999999565,0.0633238669102968,0.012802062181091799
1.6009999999999345,0.07142192150521978,0.010444809747453121
1.8009999999999124,0.08890484047026585,0.015715240807022128
2.0009999999998906,0.10567391869393557,0.019725668101961167
2.2009999999998686,0.12555789260641606,0.028095634158531817
2.4009999999998466,0.14409328639327765,0.029640057373593477
2.6009999999998246,0.16876681733021517,0.04458033754434341
2.8009999999998025,0.19300148550716456,0.06270019775546447
3.0009999999997805,0.21585583579109782,0.08049582795319404
3.2009999999997585,0.23375129968173597,0.09120588491495726
3.4009999999997365,0.25606697082152846,0.09996016675766581
3.6009999999997144,0.2839823427426856,0.10763803015463808
3.8009999999996924,0.31033759475939565,0.1179111872107579
4.000999999999671,0.33551272937059984,0.1255291060600039
4.200999999999738,0.36348700588559557,0.14331050052072536
4.400999999999804,0.39104905502623427,0.16768093806130865
4.600999999999871,0.4151392721215943,0.19523970344674624
4.800999999999938,0.43981152448704064,0.22279317891996953
5.000000000000004,0.46424767534502753,0.2406389480168523
5.200000000000071,0.48903745140478827,0.255085113658843
5.400000000000138,0.5160130999730389,0.28095317366739153
5.600000000000205,0.5423625602304577,0.2944013371223752
5.800000000000272,0.5678944465074988,0.30510350082290166
6.000000000000338,0.5974710674387823,0.3206524042297959
6.200000000000405,0.6306020473146061,0.3423468008504906
6.400000000000472,0.6650732894825814,0.3630541599909586
6.600000000000539,0.6973762917175799,0.3819763667300452
6.800000000000606,0.7378760841557156,0.4085150510367006
7.000000000000672,0.7776778602515765,0.43179162637574175
7.200000000000739,0.8223330174625334,0.4554451271082727
7.400000000000806,0.8641251920527248,0.47187586280743893
7.600000000000873,0.8981085363294438,0.48604055257948725
7.8000000000009395,0.9397863071967468,0.5010833033080583
8.000000000001005,0.9840623171618743,0.5162905951325321
8.200000000000895,1.0309129504888177,0.5339853305823166
8.400000000000784,1.0771603698919108,0.5485373740873524
8.600000000000673,1.1208694536742156,0.5532285422026971
8.800000000000562,1.1663023990158614,0.5579100459623701
9.000000000000451,1.2092810940112075,0.5588746030133077
9.20000000000034,1.251790411396015,0.5632988249956491
9.40000000000023,1.292388137135145,0.5701405872159827
9.600000000000119,1.3295541940690732,0.5796308868031173
9.800000000000008,1.3708606713066778,0.596443364823048
10.000999999999896,1.4133536840338001,0.6207567076857009
10.200999999999786,1.4527065380266924,0.6596815556076925
10.400999999999675,1.4831652812033453,0.6997420053388231
10.600999999999564,1.5086529811035274,0.7263098536244139
10.800999999999453,1.5207583742395436,0.7593623727610295
11.000999999999342,1.535512996272442,0.7940345132817712
11.200999999999231,1.547584833255896,0.8310325384496025
11.40099999999912,1.5611024797150483,0.8644384794409828
11.60099999999901,1.5709331204284578,0.9064975163588006
11.800999999998899,1.5782589138038503,0.9505852320028975
12.000999999998788,1.5910579727485887,0.9975898679890813
12.200999999998677,1.6134567712709673,1.0414272145188939
12.400999999998566,1.6403157140100235,1.0722642337658277
12.600999999998455,1.6752670757361274,1.0973197491537365
12.800999999998345,1.7092529372916536,1.1259335755514506
13.000999999998234,1.7403980589734749,1.149292111335935
13.200999999998123,1.7695545888156181,1.1794376438658833
13.400999999998012,1.793731157393548,1.2105572184007973
13.600999999997901,1.809155683170801,1.2523417000509935
13.80099999999779,1.8205152452701874,1.3015279298572897
14.00099999999768,1.8290379485081723,1.3460191036878206
14.200999999997569,1.839503792684068,1.3811170464130982
14.400999999997458,1.8591666776950502,1.4010097492905256
14.600999999997347,1.8852125888765254,1.4233514540023964
14.800999999997236,1.9172744806512927,1.4417548758910315
15.000999999997125,1.9509012403456691,1.4581588785741497
15.200999999997014,1.9914955446643037,1.4770915343967126
15.400999999996904,2.0341605792897983,1.4938296955860038
15.600999999996793,2.0704230430947805,1.5196648880615538
15.800999999996682,2.0907018095797034,1.559758794113641
16.000999999996573,2.1123116588266617,1.5896180896374055
16.200999999996817,2.1330794690674106,1.6281595208180355
16.40099999999706,2.1420723346071875,1.668038268435208
16.600999999997306,2.1402215357202388,1.7118583051951197
16.80099999999755,2.1349822795027307,1.7558256603617022
17.000999999997795,2.1350524654972287,1.7928191347480684
17.20099999999804,2.137979704122247,1.8254232546849174
17.400999999998284,2.1425828706516143,1.8675253663429476
17.60099999999853,2.149573821626074,1.9105596168158818
17.800999999998773,2.1543759791615633,1.9521110727086497
18.000999999999017,2.1502971036245766,2.0055201860587264
18.20099999999926,2.142903195171005,2.0521327204149786
18.400999999999506,2.125545243071996,2.0989290568302668
18.60099999999975,2.1086302019673977,2.150274239120281
18.799999999999994,2.0917019931385235,2.210387212282552
19.000000000000238,2.0751460798750654,2.268458844807705
19.200000000000482,2.0727970981924253,2.314060714240298
19.400000000000727,2.0769726896961815,2.358454159391482
19.60000000000097,2.0854274256607037,2.4007042146123374
19.800000000001216,2.0938990367483044,2.454389402054352
20.00000000000146,2.1002949797827646,2.512210684969037
