Time (s),X (m),Y (m)
0.001,-0.0005118051130574269,0.0004359202765531096
0.20000000000000015,0.001053379525845434,-0.0007336087029018638
0.4000000000000003,-0.005294539531692564,0.005515739584711768
0.6000000000000004,-0.0030467190984716126,0.010973834470386327
0.8000000000000006,0.019557846398569185,0.006602094457690922
1.0000000000000007,0.030305180918856627,-0.0005068570347814516
1.2009999999999785,0.049229025529078596,-0.009093763715127209
1.4009999999999565,0.0722644880971586,-0.018740832113894053
1.6009999999999345,0.09342582485434991,-0.030594922409347986
1.8009999999999124,0.11083683885190812,-0.04875669158464287
2.0009999999998906,0.11358716555897144,-0.06367773475006738
2.2009999999998686,0.10988417936575273,-0.07801571404601103
2.4009999999998466,0.10597631489857942,-0.08957318316246136
2.6009999999998246,0.10157896088836522,-0.10658744097895992
2.8009999999998025,0.0853824861291681,-0.13173519263208408
3.0009999999997805,0.06800606070366896,-0.15819102274375968
3.2009999999997585,0.054166450054883436,-0.18345084095007164
3.4009999999997365,0.04149150253075574,-0.21138954126731982
3.6009999999997144,0.033773237424141685,-0.2392986157223486
3.8009999999996924,0.021396429687674568,-0.26200798407961323
4.000999999999671,0.008038668779353794,-0.27527612446913485
4.200999999999738,-0.007753772179115517,-0.28275731055632974
4.400999999999804,-0.0285136166732281,-0.2815194351515666
4.600999999999871,-0.060845009041737785,-0.2726697603400419
4.800999999999938,-0.09261781596771122,-0.26352614498611293
5.000000000000004,-0.13185173220206564,-0.2510191348057589
5.200000000000071,-0.17376036104055934,-0.23275708298153353
5.400000000000138,-0.2250371851300755,-0.20955036636572005
5.600000000000205,-0.27244588981860757,-0.1882179914622735
5.800000000000272,-0.316989452159662,-0.1649619906911454
6.000000000000338,-0.3547116494312861,-0.14474518011953866
6.200000000000405,-0.3850784203870365,-0.13148272041787742
6.400000000000472,-0.42041346697740856,-0.11347694874717647
6.600000000000539,-0.4700804477649346,-0.08959907010502652
6.800000000000606,-0.5249453109021354,-0.0605903013031593
7.000000000000672,-0.5759708194040218,-0.01908106964249108
7.200000000000739,-0.6168221245308974,0.02556044908434723
7.400000000000806,-0.6463093254110062,0.06211528666384001
7.600000000000873,-0.658232729734545,0.09991593266228727
7.8000000000009395,-0.6485660925617194,0.14747633784238093
8.000000000001005,-0.6382680018226111,0.18800320975653925
8.200000000000895,-0.6231772655564549,0.23326277383778207
8.400000000000784,-0.6073502940384645,0.27667762215344344
8.600000000000673,-0.581694636615926,0.33614136343733253
8.800000000000562,-0.5448112061663135,0.40310330890898805
9.000000000000451,-0.5066463794220212,0.46260005463126797
9.20000000000034,-0.4779732523442796,0.5170733612044465
9.40000000000023,-0.44247880938578715,0.5782657898984026
9.600000000000119,-0.39776104508244037,0.638907395780059
9.800000000000008,-0.35001054333762965,0.7027707783707181
10.000999999999896,-0.31753145583477044,0.7554800795870912
10.200999999999786,-0.27006191232561744,0.7881091614498233
10.400999999999675,-0.22561605271806678,0.8023505710361518
10.600999999999564,-0.17044765519702115,0.8027632396579174
10.800999999999453,-0.11735757857893539,0.79579006324684
11.000999999999342,-0.06260182542812934,0.7844261234282663
11.200999999999231,-0.00866545149269959,0.7694861380669389
11.40099999999912,0.0446104409962244,0.7548135266167827
11.60099999999901,0.1021564062310668,0.7300948050584338
11.800999999998899,0.15827991886693876,0.7014149648145896
12.000999999998788,0.21946454917542477,0.6656441552501996
12.200999999998677,0.27995138660938307,0.634369704464085
12.400999999998566,0.33318026442179,0.5942814524004001
12.600999999998455,0.3789963661547559,0.5599651547532705
12.800999999998345,0.4071634209571823,0.5153192019867774
13.000999999998234,0.42088801174698093,0.4657303551753558
13.200999999998123,0.41959733056740156,0.4225815522078885
13.400999999998012,0.40573971559297134,0.3756681871204967
13.600999999997901,0.3943102580412894,0.32242416664628926
13.80099999999779,0.3704944847554394,0.25083493477671415
14.00099999999768,0.3410425766015167,0.17174925964032595
14.200999999997569,0.305882850090739,0.09800335253043142
14.400999999997458,0.26371635729608633,0.041747728784357487
14.600999999997347,0.20569618446224358,0.010464465486094537
14.800999999997236,0.14308729045857102,0.0031898362485711994
15.000999999997125,0.07536813408055539,0.015772991389350354
15.200999999997014,0.012589759784367667,0.03928075517262473
15.400999999996904,-0.047155599736442,0.06935952646977606
15.600999999996793,-0.11538162740182537,0.1099568110483512
15.800999999996682,-0.18976397809883033,0.15148641948564978
16.000999999996573,-0.2718292386753127,0.19896851505572472
16.200999999996817,-0.35022157175162794,0.2436126618851909
16.40099999999706,-0.42183428035213827,0.2984619292681129
16.600999999997306,-0.4729243620760177,0.3455101639606495
16.80099999999755,-0.49995661215455756,0.38324565527536714
17.000999999997795,-0.5033608324321045,0.4253807227291724
17.20099999999804,-0.4976166452274611,0.46618529985130214
17.400999999998284,-0.48662807161440913,0.5170983456232195
17.60099999999853,-0.46988758692083676,0.5752398987128587
17.800999999998773,-0.44843954128652025,0.638997306614871
18.000999999999017,-0.41958715653843975,0.70872184274733
18.20099999999926,-0.3872563852113418,0.7849772593022047
18.400999999999506,-0.3459848451595419,0.853228361598682
18.60099999999975,-0.29201849424420906,0.8938379793109117
18.799999999999994,-0.23629979908156382,0.9024303797894516
19.000000000000238,-0.18631230892747716,0.8982024415377945
19.200000000000482,-0.1315257366577423,0.8868415780230519
19.400000000000727,-0.07528303042530794,0.870472922643634
19.60000000000097,-0.02275630258574783,0.8562523063140978
19.800000000001216,0.018580224872253356,0.8211639425729954
20.00000000000146,0.04170987582965806,0.7791421647701007
