Time (s),X (m),Y (m)
0.001,-0.00023999057263828476,0.0007901558823345071
0.20000000000000015,0.0007570562951452561,-5.9300568538764636e-05
0.4000000000000003,0.0012918501669031588,-0.00021289441192429026
0.6000000000000004,0.0019985586012553815,-0.0007056778726942798
0.8000000000000006,0.002634126681471536,-0.0009908550487493996
1.0000000000000007,0.0034841621187037086,-0.0016181394253510781
1.2009999999999785,0.004345825405628106,-0.0022237177403634355
1.4009999999999565,0.005211656084228671,-0.002801459198300532
1.6009999999999345,0.006105286851715167,-0.0033982978890649503
1.8009999999999124,0.0070406977559379,-0.004018681863622885
2.0009999999998906,0.008044375287702998,-0.004712668323629347
2.2009999999998686,0.00911777028111822,-0.005475634713507513
2.4009999999998466,0.010235941487260394,-0.006278865424710102
2.6009999999998246,0.011395699956358077,-0.007115395679471269
2.8009999999998025,0.012592520365622702,-0.007981210595708006
3.0009999999997805,0.013831187101372676,-0.008881659302314025
3.2009999999997585,0.015112156943434638,-0.009817691253296634
3.4009999999997365,0.016437889471224647,-0.010790631625365643
3.6009999999997144,0.017807366195155723,-0.011798750967780961
3.8009999999996924,0.019216321618455837,-0.012837067352577778
4.000999999999671,0.02066385955266129,-0.013904347810616438
4.200999999999738,0.02214962617949211,-0.014999185506554328
4.400999999999804,0.02367318025998759,-0.016120304066108794
4.600999999999871,0.02523353818509492,-0.01726638388463306
4.800999999999938,0.02682906222437458,-0.018435538201065152
5.000000000000004,0.028438045244542864,-0.01960591949890904
5.200000000000071,0.030086292787328835,-0.020801192239339503
5.400000000000138,0.03175647909644322,-0.022003892015214823
5.600000000000205,0.03344827726017996,-0.02321320988574116
5.800000000000272,0.0351610327693852,-0.02442831150680586
6.000000000000338,0.036894355400465116,-0.025648563524416686
6.200000000000405,0.03864762450852809,-0.026873234683890513
6.400000000000472,0.04037321605849465,-0.02815842963952442
6.600000000000539,0.042106300942780076,-0.02949456704178906
6.800000000000606,0.043872608403787275,-0.030835858800807678
7.000000000000672,0.045604023017303645,-0.032269552509937384
7.200000000000739,0.047285913426746595,-0.033707976645296345
7.400000000000806,0.04912834384772036,-0.03516658305944436
7.600000000000873,0.050926341344471576,-0.036650695247511036
7.8000000000009395,0.05277613127950879,-0.03816097623359468
8.000000000001005,0.05472596492185386,-0.039704343781775245
8.200000000000895,0.056664775157047285,-0.041248981527919414
8.400000000000784,0.05851564691984735,-0.042694090344231626
8.600000000000673,0.06046503345189798,-0.04421316633794196
8.800000000000562,0.062385560982301656,-0.04566441208262306
9.000000000000451,0.06433598587834238,-0.047129187861160306
9.20000000000034,0.06638896961997193,-0.048603134674672366
9.40000000000023,0.06840545317293552,-0.05006307679532292
9.600000000000119,0.07034494685068791,-0.051407021592282845
9.800000000000008,0.07234838926675467,-0.052805682265821954
10.000999999999896,0.07429171070712376,-0.054110689614523956
10.200999999999786,0.07631142560484784,-0.055457315750701466
10.400999999999675,0.07831718690179651,-0.05673226561493195
10.600999999999564,0.08036042032867727,-0.05802650734182986
10.800999999999453,0.08244466492923831,-0.05927116399977282
11.000999999999342,0.08450119662157313,-0.06050545368382698
11.200999999999231,0.0865652536518798,-0.061669258610166776
11.40099999999912,0.08858825086665767,-0.06283863893039923
11.60099999999901,0.09059614297945612,-0.06391070631597737
11.800999999998899,0.0926098680028198,-0.06501128792522459
12.000999999998788,0.094613048424904,-0.06600406595151177
12.200999999998677,0.09654749260057968,-0.06697925198937932
12.400999999998566,0.09857568077963988,-0.06789353890608081
12.600999999998455,0.10057834530234644,-0.06880104640318607
12.800999999998345,0.10261783001347605,-0.0696238951068076
13.000999999998234,0.10471789268787034,-0.07043921189907076
13.200999999998123,0.10675903147927902,-0.07112816054493208
13.400999999998012,0.10882099954676538,-0.07178525190697431
13.600999999997901,0.11088868031217004,-0.07233348209565447
13.80099999999779,0.1128423758021052,-0.0728117927555223
14.00099999999768,0.11483957225932326,-0.07320885949161911
14.200999999997569,0.1168049455870655,-0.07354222016103024
14.400999999997458,0.11881799499934532,-0.07379706878066163
14.600999999997347,0.12079708134047042,-0.07400348459609576
14.800999999997236,0.12291876733746655,-0.07412597798138794
15.000999999997125,0.12489975790892384,-0.074223569784003
15.200999999997014,0.12697313678240416,-0.07423322184400426
15.400999999996904,0.12901056603177916,-0.07422385988429657
15.600999999996793,0.1309730093835319,-0.07412963342328607
15.800999999996682,0.13300937122657022,-0.0740244112708832
16.000999999996573,0.1349679302625299,-0.07383058674466987
16.200999999996817,0.13699330617397118,-0.07362971047691205
16.40099999999706,0.13896234303846305,-0.07333647686375008
16.600999999997306,0.14102848128944828,-0.07303953490177455
16.80099999999755,0.1430212948177884,-0.07265857446078484
17.000999999997795,0.14516577204518685,-0.07227819796639215
17.20099999999804,0.14721767868511068,-0.07182681334286005
17.400999999998284,0.14940448460541741,-0.07136860547965317
17.60099999999853,0.15149254083712715,-0.07084121024979884
17.800999999998773,0.15367220660675301,-0.07031507601883959
18.000999999999017,0.15576600879092356,-0.06971010452647149
18.20099999999926,0.1578261229066283,-0.06912849568746834
18.400999999999506,0.15994376785611428,-0.06843776738602207
18.60099999999975,0.16201190100277307,-0.06778406423641281
18.799999999999994,0.16415188160720798,-0.06701873463369713
19.000000000000238,0.16619774046524194,-0.06629084697661523
19.200000000000482,0.16830551974271343,-0.06546704659312587
19.400000000000727,0.17040211748298184,-0.06464802051430674
19.60000000000097,0.17253157176968678,-0.06374569930748891
19.800000000001216,0.17465420935047754,-0.06285047444421356
20.00000000000146,0.17684024761019218,-0.061861559498538506
