Time (s),X (m),Y (m)
0.001,0.0014193575185132074,-0.0002669654388657889
0.20000000000000015,0.002594316482115023,-0.0003109784333594855
0.4000000000000003,0.02038780001152794,-0.00919085561240066
0.6000000000000004,0.03854245913858208,-0.02095307250594417
0.8000000000000006,0.058718019863870805,-0.032816355847735325
1.0000000000000007,0.08516073830429212,-0.0577108068547753
1.2009999999999785,0.1133570312234495,-0.09232986125160637
1.4009999999999565,0.1399043529229732,-0.13024873426920894
1.6009999999999345,0.1646102658520363,-0.16867558403150826
1.8009999999999124,0.17625969947442124,-0.21292593048663291
2.0009999999998906,0.17109494117501872,-0.26807431671666737
2.2009999999998686,0.1590426978616267,-0.3153473860875827
2.4009999999998466,0.13847319962236168,-0.3565804512505821
2.6009999999998246,0.11978455611083162,-0.3939871637254862
2.8009999999998025,0.0913576556076111,-0.43559075962894606
3.0009999999997805,0.06322629431398438,-0.476106064700094
3.2009999999997585,0.03138578379702812,-0.5102656013129282
3.4009999999997365,-0.013249096882716463,-0.5242499891969995
3.6009999999997144,-0.05796020879912932,-0.5224781889993666
3.8009999999996924,-0.10344700046842238,-0.5082172060466553
4.000999999999671,-0.1314171787779072,-0.47652318488080914
4.200999999999738,-0.13909507116241257,-0.44197545001149763
4.400999999999804,-0.12252605268546381,-0.4134997126109304
4.600999999999871,-0.09333113674931653,-0.39506387719675334
4.800999999999938,-0.062055406970334584,-0.38077995409523535
5.000000000000004,-0.03691232174830456,-0.3742556987771312
5.200000000000071,-0.006906520385591933,-0.3803843441876485
5.400000000000138,0.027804073942285894,-0.3949863132322766
5.600000000000205,0.06719523364330762,-0.41571833563552324
5.800000000000272,0.11109958705460933,-0.4385724108137385
6.000000000000338,0.15471289768874313,-0.4513867272663464
6.200000000000405,0.2055216800826605,-0.4771730026041453
6.400000000000472,0.2606156328698919,-0.5085447641122887
6.600000000000539,0.3170705491839392,-0.5339503977655207
6.800000000000606,0.37108067485198903,-0.5552242766762467
7.000000000000672,0.4316315939123972,-0.587279208651138
7.200000000000739,0.5082757462371275,-0.6301741025478732
7.400000000000806,0.5866852600482446,-0.676344863767651
7.600000000000873,0.6518791194870207,-0.7323447758503868
7.8000000000009395,0.6843191638963421,-0.7874832312052928
8.000000000001005,0.6902160410442478,-0.843685380883472
8.200000000000895,0.6761595201893904,-0.9085161942288499
8.400000000000784,0.6507448022923118,-0.969892580340676
8.600000000000673,0.6116986888535321,-1.0373235651300174
8.800000000000562,0.5547313994080378,-1.0998920207702994
9.000000000000451,0.4998314924956825,-1.143442696680105
9.20000000000034,0.4456296934326332,-1.1572482798597568
9.40000000000023,0.38802371708143807,-1.1531448892573861
9.600000000000119,0.32543138440626934,-1.1326955598068469
9.800000000000008,0.26224568635723583,-1.0960121637086728
10.000999999999896,0.20107310057103123,-1.0517907884505036
10.200999999999786,0.1632794618316854,-1.0060524077686304
10.400999999999675,0.1572362815549674,-0.9521695480499853
10.600999999999564,0.1820986825088737,-0.8856615735621233
10.800999999999453,0.21734423807184705,-0.8174943152636062
11.000999999999342,0.24577278906393216,-0.7589769743578532
11.200999999999231,0.2865913036049557,-0.7240206518303256
11.40099999999912,0.3352169057479037,-0.7143683769485509
11.60099999999901,0.39413132790031136,-0.7269229256608837
11.800999999998899,0.45630505888728873,-0.7542982965104569
12.000999999998788,0.5239761985359129,-0.7944468104646767
12.200999999998677,0.5888351792984045,-0.8502769429186549
12.400999999998566,0.6391964951984465,-0.9237406702884843
12.600999999998455,0.6705932588226634,-0.9966359109772103
12.800999999998345,0.6847401532065474,-1.0623709020324814
13.000999999998234,0.6833213578998433,-1.1343327398990248
13.200999999998123,0.67098760137307,-1.208862999115291
13.400999999998012,0.6474944139615175,-1.2853110855267351
13.600999999997901,0.6201153748564631,-1.3539109546076178
13.80099999999779,0.5951010411993147,-1.4198247657464858
14.00099999999768,0.560859182670949,-1.4902436977036575
14.200999999997569,0.5227999614771106,-1.552078342334616
14.400999999997458,0.478324556391365,-1.5855120017812327
14.600999999997347,0.4280474575125527,-1.5904879623416774
14.800999999997236,0.37279504193619184,-1.5717055905301194
15.000999999997125,0.32746690026256303,-1.540548220791006
15.200999999997014,0.300907065947688,-1.503855367710713
15.400999999996904,0.2960539065263228,-1.4505389130557225
15.600999999996793,0.3032557283293584,-1.3820955418777274
15.800999999996682,0.32092451622423923,-1.3128921705188423
16.000999999996573,0.34495361928401247,-1.2390219133307956
16.200999999996817,0.370536970594875,-1.1701101838359438
16.40099999999706,0.404779728203127,-1.0964103829455596
16.600999999997306,0.44857687296666976,-1.0173234816393006
16.80099999999755,0.4980459257043716,-0.9354834767413758
17.000999999997795,0.5592421291908417,-0.8439892457603707
17.20099999999804,0.633458802415829,-0.755910630170878
17.400999999998284,0.7106085013780469,-0.6795308520167664
17.60099999999853,0.7858655046448397,-0.6290098071623961
17.800999999998773,0.8540845304240081,-0.6112955265866132
18.000999999999017,0.9118647272113334,-0.6079294022571777
18.20099999999926,0.9711819438795007,-0.6178892508947456
18.400999999999506,1.036046710660481,-0.6370407949424788
18.60099999999975,1.1021470876050956,-0.6611967332921277
18.799999999999994,1.1525017706270975,-0.7070186453650156
19.000000000000238,1.1799462397228104,-0.7650898923387507
19.200000000000482,1.191982181652642,-0.8180387228497625
19.400000000000727,1.1877279743864864,-0.8711221809963018
19.60000000000097,1.155717062659058,-0.9289677549908282
19.800000000001216,1.1056591186664066,-0.9572798065703437
20.00000000000146,1.0479814281007782,-0.9604832027783344
