Time (s),X (m),Y (m)
0.001,-0.00042190612164786544,-0.0005916298972236683
0.20000000000000015,0.000751732091675431,-9.685565567595095e-05
0.4000000000000003,0.0015783337092177595,0.00027057939172989593
0.6000000000000004,0.0028260679616934556,0.001013096280378618
0.8000000000000006,0.004722796944879168,0.0016748229392325126
1.0000000000000007,0.00735180006360705,0.0026041921076548923
1.2009999999999785,0.010999883197237255,0.003862086476750838
1.4009999999999565,0.013193043048320587,0.004497635553492519
1.6009999999999345,0.01585171351623989,0.006915100716324254
1.8009999999999124,0.01802123952976532,0.009419460595508793
2.0009999999998906,0.02095564851319382,0.012658837223425286
2.2009999999998686,0.022748809988601668,0.014925721204833308
2.4009999999998466,0.025569531090152923,0.018364852500341707
2.6009999999998246,0.02861597174927372,0.02215910573666298
2.8009999999998025,0.030806134427641192,0.02581084989876219
3.0009999999997805,0.03387960677780775,0.030443758120954793
3.2009999999997585,0.036927638936542405,0.033530416224456475
3.4009999999997365,0.03931754463561267,0.03721696855013178
3.6009999999997144,0.04200752435972996,0.04191215680442324
3.8009999999996924,0.044173549788259305,0.046351184423455746
4.000999999999671,0.046172965018392235,0.05054790469309257
4.200999999999738,0.047760906032576655,0.054422303390661154
4.400999999999804,0.04909918013563597,0.05779949104127087
4.600999999999871,0.05064828257896769,0.06191629613282964
4.800999999999938,0.05194002963436323,0.06588314210612788
5.000000000000004,0.052221831994316195,0.06909582879323868
5.200000000000071,0.05239914398493612,0.07298096939866965
5.400000000000138,0.0520551513627452,0.07649963302793038
5.600000000000205,0.05159650533015616,0.08074424254654686
5.800000000000272,0.05064150096196204,0.08496298062018108
6.000000000000338,0.04936052162776801,0.08949637883280613
6.200000000000405,0.04789034961885861,0.09352541694424188
6.400000000000472,0.04614030434113166,0.09779500004573823
6.600000000000539,0.044264017813846944,0.1022278886336655
6.800000000000606,0.0416859891051335,0.10662553502202514
7.000000000000672,0.03884368143983367,0.11043074520212454
7.200000000000739,0.03587836270312454,0.11487581353653271
7.400000000000806,0.03219793727513477,0.11949449551838953
7.600000000000873,0.028260438896816054,0.12421373498540457
7.8000000000009395,0.024195062992965463,0.1289703648859917
8.000000000001005,0.019952855112839805,0.13360974114640767
8.200000000000895,0.01547660491234267,0.13794918393735423
8.400000000000784,0.011163774245273966,0.14229308156811776
8.600000000000673,0.006699631507827874,0.14640527985388846
8.800000000000562,0.0018877302346541852,0.15008127881607447
9.000000000000451,-0.0029418000823381654,0.15416782320257688
9.20000000000034,-0.007673872658472838,0.15824773693916133
9.40000000000023,-0.012537073421662081,0.16198510412398734
9.600000000000119,-0.017450259845663167,0.16545381994348232
9.800000000000008,-0.02215805110373291,0.16854915420135963
10.000999999999896,-0.026733317670012708,0.17123894552741087
10.200999999999786,-0.03120233386177255,0.17342049462930562
10.400999999999675,-0.03599906104156103,0.1755276231673
10.600999999999564,-0.040606043388956674,0.17682166468607985
10.800999999999453,-0.04520531899754619,0.17836659480712744
11.000999999999342,-0.05012447600243895,0.17878842781286813
11.200999999999231,-0.05455316421979664,0.17929294084889044
11.40099999999912,-0.059071293068737485,0.1789822526176351
11.60099999999901,-0.06413450846232555,0.17841939721161734
11.800999999998899,-0.06948602556581489,0.17744899581788293
12.000999999998788,-0.07411526654550554,0.17591313403239203
12.200999999998677,-0.0789100385671816,0.17452618398167902
12.400999999998566,-0.08394011405419372,0.1725545012195639
12.600999999998455,-0.0890791669389251,0.1700687169334034
12.800999999998345,-0.09430318232604501,0.16788958308075994
13.000999999998234,-0.09959338707748007,0.16540526636446917
13.200999999998123,-0.10382643106527673,0.16201644420780895
13.400999999998012,-0.1083410056372456,0.15864686221930427
13.600999999997901,-0.11308830363509141,0.15473636280048958
13.80099999999779,-0.11748306719743577,0.15046381515992427
14.00099999999768,-0.12206812672124044,0.1458075702132392
14.200999999997569,-0.1266787500786269,0.14154097557023454
14.400999999997458,-0.13148225110616923,0.13693758411625903
14.600999999997347,-0.13583185632128156,0.13173087020938506
14.800999999997236,-0.140633177487163,0.12656803783345963
15.000999999997125,-0.1447452192912588,0.12129251061098048
15.200999999997014,-0.14914797994100493,0.11580967332650725
15.400999999996904,-0.1524082968102939,0.11095845861715606
15.600999999996793,-0.156325546747794,0.10519361440027573
15.800999999996682,-0.15955388488327188,0.10031157799087147
16.000999999996573,-0.1626456770276875,0.09520592204322526
16.200999999996817,-0.1656015630022205,0.08976788943739325
16.40099999999706,-0.16788876749602816,0.08398046910823229
16.600999999997306,-0.16998465537853094,0.07862679796555168
16.80099999999755,-0.17130330214491407,0.07290225248899095
17.000999999997795,-0.17220072220662416,0.0680637644817539
17.20099999999804,-0.1725863764312257,0.0631031846849394
17.400999999998284,-0.17226097833820717,0.05815171293447296
17.60099999999853,-0.17144884885964656,0.05350195462054447
17.800999999998773,-0.1707921195406594,0.04889355681343999
18.000999999999017,-0.16946181448855063,0.044173136424068615
18.20099999999926,-0.1680032285766883,0.03857246587502164
18.400999999999506,-0.16584123958536043,0.033405203309211116
18.60099999999975,-0.16328925218965065,0.028823451365402132
18.799999999999994,-0.1610430553845922,0.023820776650490035
19.000000000000238,-0.15762603203604808,0.018736932442133147
19.200000000000482,-0.15406128340053768,0.01405058642803403
19.400000000000727,-0.15069817336410182,0.008659196511515551
19.60000000000097,-0.14660730082079743,0.0038781015132385247
19.800000000001216,-0.14203382606808743,-0.00045364158222263394
20.00000000000146,-0.13754354726974627,-0.005336320428987633
