Time (s),X (m),Y (m)
0.001,-0.0005462407427453492,-0.00035278531233166996
0.20000000000000015,0.000571982891373485,-0.00016426135435271673
0.4000000000000003,0.001626098403100589,0.000289896547740066
0.6000000000000004,0.003013009317662152,0.001356169800421144
0.8000000000000006,0.005781933541600463,0.0029145859804153916
1.0000000000000007,0.008865798242762523,0.003951437896152828
1.2009999999999785,0.012871450478653606,0.006965154044713868
1.4009999999999565,0.016631813172817343,0.008405102673093308
1.6009999999999345,0.02123496858414839,0.011581244656614488
1.8009999999999124,0.0253710273152132,0.013299581459400899
2.0009999999998906,0.029173929448459087,0.015578645160644599
2.2009999999998686,0.03273202938290725,0.017721800920039093
2.4009999999998466,0.036828696407703525,0.019920644671964995
2.6009999999998246,0.040722740269209946,0.02279963394964319
2.8009999999998025,0.04424814524609941,0.02440719162815056
3.0009999999997805,0.04874387575660465,0.027756031533109456
3.2009999999997585,0.052869956376673896,0.029986114462736566
3.4009999999997365,0.057638403842308075,0.03352514449756006
3.6009999999997144,0.06184029937819388,0.0366048454548293
3.8009999999996924,0.06616731590110547,0.039609148061852964
4.000999999999671,0.07042700057400429,0.04332231398398518
4.200999999999738,0.0750065069297484,0.04621230806774216
4.400999999999804,0.07901971542539334,0.04927600951857986
4.600999999999871,0.08162337703464793,0.051653659183962995
4.800999999999938,0.08507272436656003,0.05529743791123998
5.000000000000004,0.0885688689895808,0.059172784719394494
5.200000000000071,0.0932879275221944,0.06419472610895029
5.400000000000138,0.09798051995976828,0.06930196132427982
5.600000000000205,0.1018585125447071,0.07344928152287884
5.800000000000272,0.10506917145980588,0.0767799394707003
6.000000000000338,0.1081966035827531,0.08199997392382627
6.200000000000405,0.1123085809427476,0.08707713760646943
6.400000000000472,0.11539710742023794,0.09215113849184457
6.600000000000539,0.1191912749722859,0.09676667201408647
6.800000000000606,0.12233878413637692,0.10207908911418194
7.000000000000672,0.12681491587241425,0.1087775405780366
7.200000000000739,0.13015148304551435,0.11457965719211194
7.400000000000806,0.13295011312848629,0.1195500269359282
7.600000000000873,0.13759363642474662,0.12717471209447703
7.8000000000009395,0.14046768555959632,0.1347251717588979
8.000000000001005,0.14161712372980859,0.14080937233872498
8.200000000000895,0.14372222654708725,0.14984036460641564
8.400000000000784,0.14370024307654347,0.15522766371656
8.600000000000673,0.1446202204505377,0.16340802897728812
8.800000000000562,0.14363011875488563,0.16974848987497507
9.000000000000451,0.14225211930827053,0.17590678716956043
9.20000000000034,0.14061367102394573,0.18207304836729615
9.40000000000023,0.13976439358322773,0.19075423088268625
9.600000000000119,0.1378559538137695,0.19916609530162657
9.800000000000008,0.13571018252661549,0.20721392409913766
10.000999999999896,0.13320946890276564,0.2158261048814532
10.200999999999786,0.1296238555309115,0.22100833368863765
10.400999999999675,0.12644901953394633,0.22962911117627008
10.600999999999564,0.12328826799074899,0.235887385173438
10.800999999999453,0.11877456475904782,0.24385553855129588
11.000999999999342,0.11490483395636401,0.2496099566743627
11.200999999999231,0.11052141342290005,0.25563633915092965
11.40099999999912,0.10641274590328567,0.2648659968997342
11.60099999999901,0.1021153284631567,0.2712971847215902
11.800999999998899,0.09692704935471143,0.27620843383565574
12.000999999998788,0.09240504591553114,0.2829512147340903
12.200999999998677,0.08596030890387285,0.2900613646349993
12.400999999998566,0.0814911301442773,0.29624688483137707
12.600999999998455,0.07640451363395458,0.30178819146797753
12.800999999998345,0.06960599830025875,0.30848020219514943
13.000999999998234,0.06249932134788294,0.31507778437887735
13.200999999998123,0.057257093206049256,0.322913881307311
13.400999999998012,0.0512118578109726,0.3291897155596749
13.600999999997901,0.04410275059953687,0.3357646142255796
13.80099999999779,0.03863222178599014,0.3418461869838049
14.00099999999768,0.032975923973319866,0.3469083597848347
14.200999999997569,0.026715195066820262,0.35220929171099247
14.400999999997458,0.018395103645603133,0.3587985133639729
14.600999999997347,0.010151920909003654,0.3656920856198253
14.800999999997236,0.00047414678063062595,0.3729886697437081
15.000999999997125,-0.008207469664694027,0.3795277388081402
15.200999999997014,-0.017219346665655368,0.38497851798197846
15.400999999996904,-0.026724853890167537,0.3903896269018524
15.600999999996793,-0.034226255763972695,0.3946080335381014
15.800999999996682,-0.04128385216936744,0.39797925938949513
16.000999999996573,-0.05040094501591255,0.40230140132099246
16.200999999996817,-0.05980552136993885,0.40530479088795457
16.40099999999706,-0.06628642436982916,0.40613839301842025
16.600999999997306,-0.07425967567026193,0.4069129289286664
16.80099999999755,-0.08158900112705818,0.40753285165325465
17.000999999997795,-0.09048479562538424,0.40848486233568704
17.20099999999804,-0.09837033832268183,0.408231857015843
17.400999999998284,-0.10611834049156633,0.40682790511812134
17.60099999999853,-0.11164739882140837,0.4042347163142664
17.800999999998773,-0.12032914655375267,0.4033359377339129
18.000999999999017,-0.12760609754338476,0.40126055914574443
18.20099999999926,-0.1334948885983806,0.39814284462785543
18.400999999999506,-0.14114392446144688,0.3954133686317844
18.60099999999975,-0.1480398334195955,0.3929887504819901
18.799999999999994,-0.15753435076777766,0.3902964306246401
19.000000000000238,-0.16534068674101532,0.38650716646037836
19.200000000000482,-0.17389660574503807,0.3822540619265539
19.400000000000727,-0.18237884914508365,0.37722833328379307
19.60000000000097,-0.19122154361019636,0.3721605430520904
19.800000000001216,-0.19846846263892465,0.36706861583344025
20.00000000000146,-0.20647003862003027,0.36071179051547386
