Time (s),X (m),Y (m)
0.001,-0.00023999057263828476,0.0007901558823345071
0.20000000000000015,0.0038036773099608787,-0.0021309004529058767
0.4000000000000003,0.006912145138811668,-0.010571840820614672
0.6000000000000004,0.011870102456986657,-0.02307073731808101
0.8000000000000006,0.015431560200321983,-0.01926489939273536
1.0000000000000007,0.021971019781047707,-0.013043534532202392
1.2009999999999785,0.043198353891277935,-0.01142934908357692
1.4009999999999565,0.07524437066240168,-0.01704847053999208
1.6009999999999345,0.11951903345312273,-0.022967446704027183
1.8009999999999124,0.1656783005278937,-0.030539710016609038
2.0009999999998906,0.21555253282101144,-0.03798316555334704
2.2009999999998686,0.2647399107520549,-0.04938599049949789
2.4009999999998466,0.31620921350094466,-0.061323363599259634
2.6009999999998246,0.3625621271402855,-0.07424882188376057
2.8009999999998025,0.410692723972055,-0.09086963266598785
3.0009999999997805,0.4661363176947199,-0.11615043766998094
3.2009999999997585,0.5171061134365604,-0.1307574584621044
3.4009999999997365,0.5669521963324361,-0.1430213971114714
3.6009999999997144,0.6200693307876696,-0.15607203119820132
3.8009999999996924,0.6710004753581291,-0.16234013755702026
4.000999999999671,0.7225984538298681,-0.1679622740094401
4.200999999999738,0.7700131298107432,-0.16943936806061471
4.400999999999804,0.819542522630178,-0.1686645120428251
4.600999999999871,0.8742379925907702,-0.17596792282653267
4.800999999999938,0.9416970151896293,-0.20031661854624114
5.000000000000004,0.9995880959576933,-0.24371369105731674
5.200000000000071,1.0319586906370835,-0.295836870579075
5.400000000000138,1.0517618020781803,-0.3452807409008648
5.600000000000205,1.0508677544558551,-0.3945019970520776
5.800000000000272,1.031323045427255,-0.4411758527797773
6.000000000000338,1.000287571236149,-0.474657791541768
6.200000000000405,0.9702455373750007,-0.5046028294497066
6.400000000000472,0.9294487843927152,-0.5257931334300109
6.600000000000539,0.8926948588430882,-0.5397285564229983
6.800000000000606,0.8507448695143497,-0.5494783848323365
7.000000000000672,0.7972779955864808,-0.5516270548590606
7.200000000000739,0.7425482733484754,-0.5511812418658458
7.400000000000806,0.6833818386210128,-0.5366070050685466
7.600000000000873,0.63348868958297,-0.498304760114854
7.8000000000009395,0.6073422841390159,-0.44000086348135753
8.000000000001005,0.5990478995798709,-0.3730248599821719
8.200000000000895,0.6048905974380431,-0.2987089351167769
8.400000000000784,0.6200232473881654,-0.22141411643009926
8.600000000000673,0.6465876982080669,-0.1415714680916827
8.800000000000562,0.6736375865049391,-0.05800593893509176
9.000000000000451,0.700897270844314,0.0244186801917917
9.20000000000034,0.7249879559737399,0.10500506434849105
9.40000000000023,0.7454256122025789,0.18530252680804538
9.600000000000119,0.760007455921045,0.2616217682461985
9.800000000000008,0.7784908258414693,0.34163864862723814
10.000999999999896,0.8035101316381108,0.43377701336676155
10.200999999999786,0.8282041291512832,0.5173978167999739
10.400999999999675,0.8473659238348074,0.5914846257673989
10.600999999999564,0.8612101703364681,0.6726227421633786
10.800999999999453,0.8697194153331341,0.7505511922940197
11.000999999999342,0.8828502307782592,0.831793557370781
11.200999999999231,0.8981809499398539,0.9182283821980547
11.40099999999912,0.9242428746241322,1.0118324679961355
11.60099999999901,0.9713981369560186,1.1012740550302516
11.800999999998899,1.0361148424942848,1.1725034300717303
12.000999999998788,1.0950816054802,1.2190483544729191
12.200999999998677,1.1428061200791526,1.2493789363293786
12.400999999998566,1.2183052894463973,1.2537302533795884
12.600999999998455,1.3023168170403019,1.2365359551946598
12.800999999998345,1.3881452233770193,1.2153026901546575
13.000999999998234,1.4651127458159774,1.1833691640637405
13.200999999998123,1.5091966053961494,1.1229555818025418
13.400999999998012,1.5334929738979082,1.0582112604406462
13.600999999997901,1.5465391960308328,0.9869858161817026
13.80099999999779,1.5435355403941347,0.9111252704311138
14.00099999999768,1.5369175247193443,0.8344572943766555
14.200999999997569,1.5142290739479223,0.7598872154647635
14.400999999997458,1.4796676867838563,0.6880958757986324
14.600999999997347,1.429481257721172,0.6350228256045793
14.800999999997236,1.3709664786825664,0.6006241019214328
15.000999999997125,1.3071379344274492,0.5990156234841422
15.200999999997014,1.2512828804069664,0.6430506810593243
15.400999999996904,1.224250765620921,0.7052846628423534
15.600999999996793,1.2155731675924597,0.7676943994541611
15.800999999996682,1.2370558841982935,0.8273489016985646
16.000999999996573,1.2812634111183103,0.8721988137211423
16.200999999996817,1.3374778466543495,0.9073800641829284
16.40099999999706,1.3936374218253638,0.9359034054299736
16.600999999997306,1.4641657090781823,0.9417666951971781
16.80099999999755,1.5451346946890578,0.9235814581675424
17.000999999997795,1.62428847082008,0.885399483907328
17.20099999999804,1.6663146259205914,0.8298362583506048
17.400999999998284,1.6855522393174247,0.7708444763368013
17.60099999999853,1.683145720990639,0.7111472464554315
17.800999999998773,1.647707317394096,0.6624695292340349
18.000999999999017,1.5959534397628472,0.6296357935235442
18.20099999999926,1.5468394613628158,0.59991639524668
18.400999999999506,1.4850136711128257,0.5911679863300263
18.60099999999975,1.4149977634990032,0.5915651461716429
18.799999999999994,1.3436046821556364,0.5929564582121123
19.000000000000238,1.26247407559703,0.5958375474190962
19.200000000000482,1.1821871527359646,0.6151314247775136
19.400000000000727,1.1075844093319054,0.6484616740471569
19.60000000000097,1.045111150865654,0.7069469139994409
19.800000000001216,1.0031099404119037,0.7752435829507842
20.00000000000146,0.9858906602512979,0.8515875086929482
