Time (s),X (m),Y (m)
0.001,0.0013163127053841656,0.0005157376242541218
0.20000000000000015,0.001579309668608635,0.0005527864389801216
0.4000000000000003,0.004410552048660241,0.001052940322552382
0.6000000000000004,0.013870025638167959,0.0027211885085012023
0.8000000000000006,0.030879726244359435,0.009824752128802324
1.0000000000000007,0.04134076239611255,0.015874033626969004
1.2009999999999785,0.07086357391415066,0.012572702991111375
1.4009999999999565,0.09682191559759376,0.0032814086159008906
1.6009999999999345,0.12013911167763366,-0.01010558726377533
1.8009999999999124,0.1390437713648651,-0.024623047485608347
2.0009999999998906,0.15849961294978282,-0.040261777541004934
2.2009999999998686,0.17456562842059406,-0.056497607580916924
2.4009999999998466,0.20352947259341775,-0.08181884016916753
2.6009999999998246,0.23946882574949335,-0.11518385051366482
2.8009999999998025,0.27121023695179575,-0.15390904487902915
3.0009999999997805,0.2982458547519384,-0.2061257233190563
3.2009999999997585,0.3131621295778233,-0.24124276818365664
3.4009999999997365,0.30965127177677815,-0.2670146368869661
3.6009999999997144,0.29883195009797414,-0.29341480823330957
3.8009999999996924,0.2833831675020082,-0.31266866729773557
4.000999999999671,0.2646485975305667,-0.33125095358135803
4.200999999999738,0.23936134145809485,-0.3562989199113024
4.400999999999804,0.2126415936761528,-0.3899168786090457
4.600999999999871,0.18170248068165556,-0.4291555180196182
4.800999999999938,0.14419847593530602,-0.47131790221780484
5.000000000000004,0.09886410154996363,-0.519451112989804
5.200000000000071,0.05094144493069575,-0.5718112762231325
5.400000000000138,-0.0029262597851969006,-0.6300156304620104
5.600000000000205,-0.05377673664195008,-0.678585966723148
5.800000000000272,-0.10532039266129527,-0.7268511101980087
6.000000000000338,-0.15416388661984812,-0.7648687396208775
6.200000000000405,-0.205307062379355,-0.815640562101996
6.400000000000472,-0.25703676503866807,-0.8703343697203302
6.600000000000539,-0.30858077825701874,-0.9161632653418014
6.800000000000606,-0.3611594449071452,-0.960437319921974
7.000000000000672,-0.4150352700598314,-1.011619822386779
7.200000000000739,-0.4744321507412995,-1.0690115215133773
7.400000000000806,-0.5336533169328845,-1.1294862934650383
7.600000000000873,-0.6026831900683584,-1.187412857185303
7.8000000000009395,-0.6769078512623701,-1.239111599722625
8.000000000001005,-0.7456743328461749,-1.2750448892182338
8.200000000000895,-0.7981596140863236,-1.2962129113755765
8.400000000000784,-0.8383709795634595,-1.2895663206622179
8.600000000000673,-0.8772723598358743,-1.263322195640553
8.800000000000562,-0.9301018953332649,-1.2146523257815478
9.000000000000451,-0.9786848028379372,-1.160658328188965
9.20000000000034,-1.0252865822022135,-1.0988016117219337
9.40000000000023,-1.0690837899063255,-1.0380996590523233
9.600000000000119,-1.0996085381866647,-0.9748467146619348
9.800000000000008,-1.1270304458522873,-0.9284803009305416
10.000999999999896,-1.1519364070634728,-0.8753411768353838
10.200999999999786,-1.1672117144390073,-0.8146529110509222
10.400999999999675,-1.1594036528237874,-0.7612886996077638
10.600999999999564,-1.1294680277188676,-0.706872832776588
10.800999999999453,-1.083902239257687,-0.6501314768077441
11.000999999999342,-1.026480422388981,-0.5889640598038239
11.200999999999231,-0.9673617837580567,-0.5385947995704282
11.40099999999912,-0.9067968382531608,-0.48772217526939926
11.60099999999901,-0.852931805232468,-0.4300123328493777
11.800999999998899,-0.790598317852561,-0.36950926040767046
12.000999999998788,-0.725136238690934,-0.31462152167615304
12.200999999998677,-0.6596916509490519,-0.2592457639042131
12.400999999998566,-0.5956082855161614,-0.21121038522033883
12.600999999998455,-0.5301353785635375,-0.15981408384074847
12.800999999998345,-0.4634871449905894,-0.10000925540727697
13.000999999998234,-0.3960150231641145,-0.03975627180298194
13.200999999998123,-0.33973192193789714,0.01991778343709604
13.400999999998012,-0.3000155595376413,0.08103660217532448
13.600999999997901,-0.27993348353767217,0.14178018735593823
13.80099999999779,-0.26761073510147065,0.2025707228435968
14.00099999999768,-0.25142826325886497,0.2667889213726191
14.200999999997569,-0.23264729752465557,0.3320843666447447
14.400999999997458,-0.20905538632677478,0.3972806814283059
14.600999999997347,-0.17997045216299257,0.4606923085618784
14.800999999997236,-0.14373705400127232,0.5244113448423356
15.000999999997125,-0.10447690517551303,0.5849537105475593
15.200999999997014,-0.06026284681908347,0.6385183836759375
15.400999999996904,-0.005692970401271735,0.7061541574002173
15.600999999996793,0.05424826818061685,0.7825041066322524
15.800999999996682,0.11777477094220562,0.8501120712590929
16.000999999996573,0.18409656908693423,0.9116037870300925
16.200999999996817,0.2569120143555385,0.9902131611596103
16.40099999999706,0.32759139616130667,1.0595162523287491
16.600999999997306,0.39781486121877524,1.1223284390257646
16.80099999999755,0.47171861811395055,1.19295644245567
17.000999999997795,0.5403260915943648,1.2636703845923472
17.20099999999804,0.5876990444710122,1.3232276693638776
17.400999999998284,0.6265801755929129,1.3905802218412708
17.60099999999853,0.6707922877640864,1.4711082608256236
17.800999999998773,0.7082746436703404,1.557979169795274
18.000999999999017,0.7382569789369137,1.6415334106896389
18.20099999999926,0.7642684155835081,1.7205065060290567
18.400999999999506,0.8040150289430268,1.8001957085404905
18.60099999999975,0.8555977417716423,1.8739890129937222
18.799999999999994,0.9117628547956922,1.9561673356784592
19.000000000000238,0.9731353530354061,2.0443614227235583
19.200000000000482,1.0411758833467029,2.125313308901366
19.400000000000727,1.1172455371475585,2.2025456634867875
19.60000000000097,1.200759664958059,2.278370495068578
19.800000000001216,1.285612140754569,2.358105708960153
20.00000000000146,1.375711714102493,2.4386846255437327
