Time (s),X (m),Y (m)
0.001,-0.00060452123697562,8.989899140956135e-05
0.20000000000000015,0.0005749679225554219,-6.060188956912918e-05
0.4000000000000003,0.0014532285091598618,-0.00016811581271650245
0.6000000000000004,0.0024662060565163258,-0.0005145980188060918
0.8000000000000006,0.0030632113253184815,-0.0003778424497438367
1.0000000000000007,0.005265035124878384,-0.00045985905173829205
1.2009999999999785,0.007083063989394295,-0.0007635927786429211
1.4009999999999565,0.009973601270662494,-0.0009172296546028799
1.6009999999999345,0.012917475463508769,-0.0012016909879612415
1.8009999999999124,0.013291466722454499,-0.001039045916328828
2.0009999999998906,0.01556840467742353,-0.0009383231609229959
2.2009999999998686,0.01612439871672274,-0.0005679412966833345
2.4009999999998466,0.017339822690822987,-0.00022117737970327685
2.6009999999998246,0.01844747833193898,0.0001706280274854731
2.8009999999998025,0.0197425527173228,0.0006374933207437404
3.0009999999997805,0.02099565046401851,0.0010133815608342066
3.2009999999997585,0.02162759301425301,0.0015307802064798706
3.4009999999997365,0.023286536205816753,0.0020999884483957846
3.6009999999997144,0.024382281489554694,0.0027012989754621225
3.8009999999996924,0.02544596205677723,0.0033952094220324695
4.000999999999671,0.02729714918210149,0.004068034763546198
4.200999999999738,0.02843516433344896,0.00417117453074092
4.400999999999804,0.029177375806579354,0.004651767478705209
4.600999999999871,0.03138045534984171,0.005339077754596247
4.800999999999938,0.03383211260004113,0.006599311840030688
5.000000000000004,0.03667146791883308,0.007493515777090537
5.200000000000071,0.038211380029104465,0.008688426041436024
5.400000000000138,0.040450428430981435,0.00970565192406392
5.600000000000205,0.0430530347845169,0.01123404537050191
5.800000000000272,0.04587804738896895,0.012458028289223507
6.000000000000338,0.0483254929993578,0.013430191157600217
6.200000000000405,0.049380839949915954,0.014622623764044142
6.400000000000472,0.053746899903611055,0.016465781368310315
6.600000000000539,0.05803400406040646,0.018414278644881488
6.800000000000606,0.06250363579980983,0.021010661196108563
7.000000000000672,0.06542371901459845,0.023044124017236513
7.200000000000739,0.0692845716123317,0.02533423692930274
7.400000000000806,0.07142629079410627,0.028302459540695653
7.600000000000873,0.07219926527590428,0.030866172923357423
7.8000000000009395,0.07658685470002408,0.03393446101854945
8.000000000001005,0.0803012270595614,0.036667243771632205
8.200000000000895,0.0815357877665578,0.03971184584136989
8.400000000000784,0.08237715495388355,0.04236548664938426
8.600000000000673,0.08316753533508063,0.04500663465078624
8.800000000000562,0.08506675480282769,0.04868914612257954
9.000000000000451,0.09010379431939983,0.051998641238153835
9.20000000000034,0.09399180168900481,0.055162696537750924
9.40000000000023,0.0956909981325651,0.057872538178911345
9.600000000000119,0.0972508927444311,0.062205651688528645
9.800000000000008,0.10151114516056972,0.06537235885767842
10.000999999999896,0.10575971848964812,0.06868086387680274
10.200999999999786,0.10890092607256738,0.07208506867879828
10.400999999999675,0.1120147528600008,0.07536007263629668
10.600999999999564,0.11449967609291926,0.078303738784165
10.800999999999453,0.11579943987083498,0.08206051836734876
11.000999999999342,0.11954339345267097,0.08563114513353222
11.200999999999231,0.12190301879138574,0.0888019500958801
11.40099999999912,0.12206132311771464,0.09236808748274167
11.60099999999901,0.12241774477435662,0.09599941422290807
11.800999999998899,0.12255341170652174,0.09866309164800238
12.000999999998788,0.12305440244669232,0.10181236420654356
12.200999999998677,0.12670079253363092,0.10718816365269557
12.400999999998566,0.13148815478808448,0.11038864273290662
12.600999999998455,0.13440413193982323,0.11407163926759417
12.800999999998345,0.13565842482879995,0.11742798390858718
13.000999999998234,0.14009257464698263,0.12210934128464802
13.200999999998123,0.1436912655499843,0.12533280773191485
13.400999999998012,0.14640693663325013,0.12850305743231683
13.600999999997901,0.14970181448136533,0.1317367748767976
13.80099999999779,0.15081668842472437,0.1349926138773416
14.00099999999768,0.1554539173240129,0.1398172438936739
14.200999999997569,0.159003733970639,0.14293151469878942
14.400999999997458,0.15929316747180958,0.146012674598052
14.600999999997347,0.15955637752730562,0.14967515324711406
14.800999999997236,0.16030098882994223,0.15350521603893702
15.000999999997125,0.1638731521084297,0.1571751937604788
15.200999999997014,0.16853879858130297,0.16184509355796875
15.400999999996904,0.1727003199187748,0.16573132601003834
15.600999999996793,0.17546060038957406,0.1689023283508395
15.800999999996682,0.1759796694246581,0.1726381150375025
16.000999999996573,0.17676691497830516,0.17626090089173663
16.200999999996817,0.18030858057409707,0.17924927628320814
16.40099999999706,0.181338499342434,0.18222877213293526
16.600999999997306,0.18362787259603414,0.18647944606010078
16.80099999999755,0.18777527650296727,0.19016888781747024
17.000999999997795,0.19257189782312972,0.19352255567747997
17.20099999999804,0.1953440491227286,0.19671387905360063
17.400999999998284,0.1981508410043867,0.19989527050820816
17.60099999999853,0.19823942156068994,0.20310805989422082
17.800999999998773,0.19828358211415598,0.20643955579542062
18.000999999999017,0.19811507774673795,0.209713754895467
18.20099999999926,0.19796356379235136,0.21269203404807308
18.400999999999506,0.19803134411049653,0.21587142445884755
18.60099999999975,0.2016736798038412,0.22016570089418344
18.799999999999994,0.20436385751515682,0.22332257419252438
19.000000000000238,0.2039767322395466,0.22665337588894968
19.200000000000482,0.20440257920316665,0.23007137963134142
19.400000000000727,0.20452317861885566,0.23358350756864926
19.60000000000097,0.20520477351124652,0.2366887371749387
19.800000000001216,0.2098246178542183,0.24067346717395144
20.00000000000146,0.21396566335569286,0.24359132609991915
