Time (s),X (m),Y (m)
0.001,-0.00036712694553334754,0.0006630195094394434
0.20000000000000015,0.0009742285966712322,-0.0003708170177033878
0.4000000000000003,0.0012565101328847852,-0.00018596324700881855
0.6000000000000004,0.0018378916081129015,-0.00042793290234571026
0.8000000000000006,0.0026896872948375633,-0.0009974046610227373
1.0000000000000007,0.0033053681620599257,-0.0012528431130342302
1.2009999999999785,0.00410241862742123,-0.0017472305130639386
1.4009999999999565,0.004880791287715806,-0.002215963383908082
1.6009999999999345,0.0057242965774165775,-0.002762020050673146
1.8009999999999124,0.006626835065223195,-0.003376489182309037
2.0009999999998906,0.007547293661207828,-0.004004435032514587
2.2009999999998686,0.00848833164825108,-0.004654851999698819
2.4009999999998466,0.009454586032098164,-0.005335028115883638
2.6009999999998246,0.010437709276067686,-0.006037856656841005
2.8009999999998025,0.011432837327340331,-0.006755497744782642
3.0009999999997805,0.012442284877939691,-0.007487165650783399
3.2009999999997585,0.013466104067890412,-0.008231607191479393
3.4009999999997365,0.014504703771473094,-0.00898878900428773
3.6009999999997144,0.015557977370459782,-0.009757877846613411
3.8009999999996924,0.01662550602141041,-0.010538259562119805
4.000999999999671,0.017706886950261798,-0.011328940498077037
4.200999999999738,0.018802226458626677,-0.012129554328013081
4.400999999999804,0.01991187961049207,-0.012939811686620218
4.600999999999871,0.02103635379164148,-0.013759435699335468
4.800999999999938,0.022176151845698926,-0.014588169747202584
5.000000000000004,0.023335953843741094,-0.015432362717328577
5.200000000000071,0.024505847196150923,-0.0162782499204655
5.400000000000138,0.025690690853875677,-0.01713191393105501
5.600000000000205,0.02689082191700234,-0.017993030616219385
5.800000000000272,0.02810612686517426,-0.018861256229476552
6.000000000000338,0.02933659962940041,-0.01973616510668358
6.200000000000405,0.030582340231957925,-0.020617547314227887
6.400000000000472,0.031843442196577705,-0.021505427206719583
6.600000000000539,0.03312021327712082,-0.022399669036836763
6.800000000000606,0.03441277159589279,-0.023299898442959915
7.000000000000672,0.03572107731899382,-0.02420572517108571
7.200000000000739,0.03704517302694446,-0.0251168206417461
7.400000000000806,0.038384987809749596,-0.026032833669290857
7.600000000000873,0.039740485856660915,-0.02695337671309155
7.8000000000009395,0.04111164655963534,-0.02787845761867832
8.000000000001005,0.04249870400639095,-0.028807877568817072
8.200000000000895,0.04390169168375137,-0.029741342232925627
8.400000000000784,0.04532065188522959,-0.03067846039729068
8.600000000000673,0.046755482009099916,-0.031618926083480714
8.800000000000562,0.04820609162311914,-0.03256241386134805
9.000000000000451,0.049672408490767685,-0.033508465451341986
9.20000000000034,0.05115441536323384,-0.03445677060985417
9.40000000000023,0.052652117982503424,-0.03540697695689348
9.600000000000119,0.05416560916093328,-0.03635888175193293
9.800000000000008,0.05569499730575252,-0.03731203254412079
10.000999999999896,0.05723853031920848,-0.03826315090518035
10.200999999999786,0.058799763712625915,-0.03921726775938624
10.400999999999675,0.06037677759785521,-0.04017105346431039
10.600999999999564,0.061969371948239704,-0.0411242040258497
10.800999999999453,0.06357740199645562,-0.042076374897563544
11.000999999999342,0.06520122856731322,-0.04302700678221128
11.200999999999231,0.06684100741883439,-0.04397566946013263
11.40099999999912,0.06849677622828824,-0.04492196757084622
11.60099999999901,0.07016864951018878,-0.04586546576852752
11.800999999998899,0.07189943908046739,-0.04687598524732527
12.000999999998788,0.07361346494900987,-0.04786257511500337
12.200999999998677,0.07539933319110695,-0.048867080423626974
12.400999999998566,0.07719382257506918,-0.04985424145747621
12.600999999998455,0.07904363886078485,-0.05089475603850708
12.800999999998345,0.08091355029633301,-0.051931181018017844
13.000999999998234,0.08277434940336452,-0.052944982479892315
13.200999999998123,0.08470464566539873,-0.05401902851480636
13.400999999998012,0.0866544500050196,-0.05507391643578199
13.600999999997901,0.08868051176392662,-0.0561303789930272
13.80099999999779,0.09068872299402322,-0.05716584704862532
14.00099999999768,0.09271350564564002,-0.05818558907638461
14.200999999997569,0.0947442405831353,-0.05918890401363504
14.400999999997458,0.09680588716692837,-0.06018297700791056
14.600999999997347,0.09888496948607088,-0.0611629273838266
14.800999999997236,0.1010039263626555,-0.06212713827485348
15.000999999997125,0.10317472379601009,-0.06307531800856687
15.200999999997014,0.10535749157075931,-0.06401388689275601
15.400999999996904,0.10750552721085878,-0.06489480870015217
15.600999999996793,0.10964023036588266,-0.0657511132833888
15.800999999996682,0.1118427480602314,-0.06658709621000435
16.000999999996573,0.11404942906907868,-0.06738171365087091
16.200999999996817,0.11625872440496837,-0.06814241063211161
16.40099999999706,0.11845298267227333,-0.06888354537142838
16.600999999997306,0.12068275207884503,-0.06957600587420246
16.80099999999755,0.12295649787409628,-0.07022424606690794
17.000999999997795,0.12527760612914968,-0.07086008366249888
17.20099999999804,0.12751543601872473,-0.07143823709692484
17.400999999998284,0.12980338369311611,-0.07196654873950493
17.60099999999853,0.13214603778676162,-0.0724663462772836
17.800999999998773,0.13455484985938349,-0.07291350153409377
18.000999999999017,0.1368722998629905,-0.07330376325888802
18.20099999999926,0.1392266810373426,-0.07364307140122851
18.400999999999506,0.14157836578059815,-0.07392958354858262
18.60099999999975,0.14387854988590376,-0.07416183833707168
18.799999999999994,0.14626620728362172,-0.07434456667235
19.000000000000238,0.14857136685524608,-0.07447588655546131
19.200000000000482,0.1509271176817799,-0.07455502801082846
19.400000000000727,0.15333548673730082,-0.0745834241726094
19.60000000000097,0.15570824726530247,-0.07456266227497155
19.800000000001216,0.15805576874893656,-0.07448936280266226
20.00000000000146,0.16037303456335644,-0.07437123244064803
