Time (s),X (m),Y (m)
0.001,0.00015606349793537,0.0009963285817120476
0.20000000000000015,0.0020045073943672563,-0.0028256261017761608
0.4000000000000003,0.006327435319862244,-0.008855599772358018
0.6000000000000004,0.0161314184765502,-0.016215513174365034
0.8000000000000006,0.03378472199197522,-0.021565683308299385
1.0000000000000007,0.05701664446336935,-0.03464265557100436
1.2009999999999785,0.09038077577930673,-0.048808938307321734
1.4009999999999565,0.12477186484933905,-0.06819546924489835
1.6009999999999345,0.15725318386067633,-0.09033883515535614
1.8009999999999124,0.19505789151717937,-0.09837888184276877
2.0009999999998906,0.23174365114301468,-0.12158394918460842
2.2009999999998686,0.26897053975394264,-0.14868817228800463
2.4009999999998466,0.31002678781479714,-0.166324943735395
2.6009999999998246,0.35309810940199543,-0.184595980184317
2.8009999999998025,0.39347146032897534,-0.19216208601903018
3.0009999999997805,0.4356767065601805,-0.2014775981703196
3.2009999999997585,0.4791689209736846,-0.21037554135634112
3.4009999999997365,0.5348390652795997,-0.2115844395725951
3.6009999999997144,0.5915496537142882,-0.2033571193355174
3.8009999999996924,0.6436585148585068,-0.1837894196376935
4.000999999999671,0.6915014049806649,-0.15927028129554913
4.200999999999738,0.7474491600017469,-0.13793925152839204
4.400999999999804,0.7972278679174873,-0.10460361234373639
4.600999999999871,0.8476440126016105,-0.06907823437979996
4.800999999999938,0.894245250417901,-0.03385500608650958
5.000000000000004,0.9502356104546518,-0.0015919750835380567
5.200000000000071,1.0184334052412283,0.030850343683207063
5.400000000000138,1.0910039139095793,0.06214418041807346
5.600000000000205,1.1357220182519612,0.0952160969180579
5.800000000000272,1.171863158424457,0.13792809936567418
6.000000000000338,1.2053171493977402,0.19002956759517578
6.200000000000405,1.243521543801697,0.24945898602085206
6.400000000000472,1.2909246990097276,0.30735114914312905
6.600000000000539,1.365299426848704,0.3568131987525755
6.800000000000606,1.438330397012104,0.4005361940530326
7.000000000000672,1.4904469290174693,0.44179498506442677
7.200000000000739,1.5334247231769882,0.49136901163925467
7.400000000000806,1.5538677289912193,0.5501958070662972
7.600000000000873,1.5568526104895446,0.615918765915121
7.8000000000009395,1.558726960072341,0.6879982637351261
8.000000000001005,1.5608258689384549,0.7588324762682516
8.200000000000895,1.5589457666729314,0.8313037248910806
8.400000000000784,1.5464379475237797,0.9092190766303723
8.600000000000673,1.5450122305694882,0.9896758807113132
8.800000000000562,1.5512313484729479,1.0663277246243437
9.000000000000451,1.5482390372292651,1.1356114572027225
9.20000000000034,1.5515062169709273,1.2035902067651434
9.40000000000023,1.562481811661952,1.2676885587120035
9.600000000000119,1.5846067540960727,1.328783811035794
9.800000000000008,1.5988266536800226,1.3923466369616704
10.000999999999896,1.6209767660368384,1.4627819755638745
10.200999999999786,1.6226255972066213,1.5420250194609637
10.400999999999675,1.6483433233714129,1.6193090340200471
10.600999999999564,1.669611485508556,1.6935828926884613
10.800999999999453,1.6778352468348132,1.768087405594116
11.000999999999342,1.6793108838002584,1.8490069348004918
11.200999999999231,1.679745164738298,1.9350736354071003
11.40099999999912,1.6945620248828073,2.023692946888155
11.60099999999901,1.7085384684247138,2.107853491728971
11.800999999998899,1.7441447859770263,2.1906370284184264
12.000999999998788,1.7845667911567817,2.2740911132964516
12.200999999998677,1.8303428396686847,2.357536993131788
12.400999999998566,1.8483616957047677,2.4429645494657204
12.600999999998455,1.8497713620193035,2.5244387883279926
12.800999999998345,1.8663911009056975,2.5957032089439194
13.000999999998234,1.9109079051309108,2.6550444381741376
13.200999999998123,1.961733628336662,2.7086012330400586
13.400999999998012,2.0104871468779164,2.763681851149902
13.600999999997901,2.062459221483769,2.8159695134550993
13.80099999999779,2.123398622580361,2.8681652893703844
14.00099999999768,2.1849428192042724,2.9154115458619145
14.200999999997569,2.2531553099194115,2.9592808050825283
14.400999999997458,2.3227111311309265,3.000742465416301
14.600999999997347,2.4037635934507398,3.0449920506700496
14.800999999997236,2.480552294645486,3.1014159636020353
15.000999999997125,2.540130191636413,3.1656140720711976
15.200999999997014,2.588596319944158,3.2255647446736893
15.400999999996904,2.6387099679278405,3.2825281787779748
15.600999999996793,2.700235021322013,3.3396326174960964
15.800999999996682,2.7600658959524935,3.3928144628453927
16.000999999996573,2.8095474667888074,3.4484090883491896
16.200999999996817,2.8666307363785624,3.5022726170515637
16.40099999999706,2.929043695483313,3.552408136130168
16.600999999997306,2.9873011667342846,3.6098710942087955
16.80099999999755,3.0465865395735756,3.6741027704627776
17.000999999997795,3.0800054293038404,3.7444482544047744
17.20099999999804,3.1044880389611293,3.8221197867046626
17.400999999998284,3.1293096791178887,3.901852729254027
17.60099999999853,3.1697797154982386,3.98539079840983
17.800999999998773,3.2178619697719015,4.069364837363862
18.000999999999017,3.2471450283570884,4.151165455063469
18.20099999999926,3.275225392015738,4.231433538369346
18.400999999999506,3.328103896695552,4.310518478388073
18.60099999999975,3.3776970798508468,4.385062329491278
18.799999999999994,3.4289888461808964,4.450631454850164
19.000000000000238,3.4761138205834596,4.516535366600305
19.200000000000482,3.5327664466235946,4.5804773808868084
19.400000000000727,3.577372839324842,4.646000870812697
19.60000000000097,3.6382283768742005,4.713200818656919
19.800000000001216,3.6891646055541725,4.779274709427133
20.00000000000146,3.7304367184521237,4.844171434721539
