Time (s),X (m),Y (m)
0.001,-0.00023999057263828476,0.0007901558823345071
0.20000000000000015,0.0038634856908861996,-0.002337008831242021
0.4000000000000003,0.010149006391637383,-0.005575894304373814
0.6000000000000004,0.019178986184960854,-0.012635863261800667
0.8000000000000006,0.034489516594437594,-0.01708046137583355
1.0000000000000007,0.05887805559090485,-0.026710652881288557
1.2009999999999785,0.08755555383993514,-0.035371058127631985
1.4009999999999565,0.11422838416459809,-0.042507751013175915
1.6009999999999345,0.15255415225841615,-0.049987195985562456
1.8009999999999124,0.17794525101364037,-0.050707059799071225
2.0009999999998906,0.2095970547397016,-0.049411275766002564
2.2009999999998686,0.23800583015770396,-0.048031544976921275
2.4009999999998466,0.2705936639382976,-0.046435035289791454
2.6009999999998246,0.30672153873664004,-0.0434877678014136
2.8009999999998025,0.34646495935491173,-0.04074770335842807
3.0009999999997805,0.3847858417417463,-0.032268985165921214
3.2009999999997585,0.4255035234015356,-0.024799516153797378
3.4009999999997365,0.46522869103578485,-0.029099598750783977
3.6009999999997144,0.4959928397144452,-0.022767646237096876
3.8009999999996924,0.5249403770889811,-0.014793458189798638
4.000999999999671,0.561052238002645,-0.012676546930734962
4.200999999999738,0.5988054967159137,-0.0184787608702999
4.400999999999804,0.632186696619054,-0.013320361364927669
4.600999999999871,0.6637179783096916,0.000988741565929794
4.800999999999938,0.6905244170893412,0.012870504150742961
5.000000000000004,0.7189643095969803,0.025224906568833156
5.200000000000071,0.757867223170893,0.03987943707299195
5.400000000000138,0.8065902564619329,0.049050768616217696
5.600000000000205,0.8624592866817091,0.04499849187419468
5.800000000000272,0.9188720460111878,0.03370052635775777
6.000000000000338,0.9756891242583657,0.02384425557208502
6.200000000000405,1.0266686282207587,0.019625769294198212
6.400000000000472,1.071225059221986,0.0183685860640839
6.600000000000539,1.1006488621197708,0.023591555469920544
6.800000000000606,1.1359092884125825,0.03386148878136651
7.000000000000672,1.1755027881224578,0.03844487541523659
7.200000000000739,1.2021203365818196,0.044432556840357046
7.400000000000806,1.2443429554626455,0.04143502398599893
7.600000000000873,1.2988293427757784,0.03171209834709317
7.8000000000009395,1.3613447962728729,0.008500500858065032
8.000000000001005,1.4343177831869809,-0.019595070386284535
8.200000000000895,1.5081961531988672,-0.0473365415681324
8.400000000000784,1.5839039030395081,-0.06468423687656027
8.600000000000673,1.647631121847384,-0.09136343178874332
8.800000000000562,1.7039432217862234,-0.151698450836928
9.000000000000451,1.7513319144568789,-0.21152833297179288
9.20000000000034,1.7841863396204058,-0.2742355756632294
9.40000000000023,1.7964402589108392,-0.3388785978290912
9.600000000000119,1.792058152446788,-0.40267890499610737
9.800000000000008,1.7678261452430106,-0.45164980034318886
10.000999999999896,1.7275119646820862,-0.48067528786831343
10.200999999999786,1.6745536599398811,-0.4955208277161416
10.400999999999675,1.6251396983529447,-0.509033484903709
10.600999999999564,1.578005407340529,-0.5232977059399799
10.800999999999453,1.5279053329088659,-0.5384878668142972
11.000999999999342,1.4672000140462662,-0.5451318923000952
11.200999999999231,1.4008966697035736,-0.5339370323719876
11.40099999999912,1.3298109162742804,-0.5228811565077575
11.60099999999901,1.2488099705359013,-0.5038613276834143
11.800999999998899,1.1644004965387218,-0.4851183356598484
12.000999999998788,1.086328330320561,-0.47260874514853146
12.200999999998677,1.0166346895116898,-0.4575960554316491
12.400999999998566,0.9464561100652173,-0.44575220009310973
12.600999999998455,0.8777724477378971,-0.4275055348291175
12.800999999998345,0.8158659889343631,-0.38066249570517247
13.000999999998234,0.7704767886620363,-0.31325880984631777
13.200999999998123,0.7406012689048878,-0.25059657322370393
13.400999999998012,0.7293288900150301,-0.1846211035792371
13.600999999997901,0.7202028671965969,-0.12035825942416944
13.80099999999779,0.7236333546122776,-0.04927778904008226
14.00099999999768,0.72813870757933,0.021401048520606366
14.200999999997569,0.7388646990199076,0.09991945589492686
14.400999999997458,0.7535552014894482,0.18135021186188827
14.600999999997347,0.7805803545808985,0.26700455781440346
14.800999999997236,0.799065483059437,0.34954299579107495
15.000999999997125,0.8186820946126164,0.43128628970938815
15.200999999997014,0.8310616169138316,0.5099242770852208
15.400999999996904,0.8423601557418385,0.5877193709714909
15.600999999996793,0.8593199870178678,0.6704192875115081
15.800999999996682,0.8817071309864655,0.7451967941073459
16.000999999996573,0.921637228071444,0.8158552464031585
16.200999999996817,0.9661947198532951,0.8677254354354752
16.40099999999706,1.0128453795225545,0.9043422989841624
16.600999999997306,1.0703510033143986,0.9294503995317043
16.80099999999755,1.1347191268769334,0.9496889836889271
17.000999999997795,1.206308300239032,0.9584059751016981
17.20099999999804,1.2863014620055746,0.9424517424623057
17.400999999998284,1.3722341536387044,0.9081433237451333
17.60099999999853,1.452014635540922,0.8658402388600385
17.800999999998773,1.5141462437963737,0.8141975612404647
18.000999999999017,1.561765770783599,0.7685926655931449
18.20099999999926,1.6011726135262776,0.7120000161227399
18.400999999999506,1.6285654539623464,0.6545972048301255
18.60099999999975,1.6316603816210788,0.581252232303814
18.799999999999994,1.6237711321037762,0.5091493537912536
19.000000000000238,1.609619965288393,0.4332140180681422
19.200000000000482,1.598936039678417,0.3619203218538672
19.400000000000727,1.59414589684108,0.29551007567829674
19.60000000000097,1.600217354863605,0.23087896265428068
19.800000000001216,1.6043919837079423,0.16265262221293111
20.00000000000146,1.6037192041940802,0.0903597338880825
