Time (s),X (m),Y (m)
0.001,0.0006021427340131596,0.0010158048217711127
0.20000000000000015,0.0008248553029626941,-0.0010043304672517927
0.4000000000000003,0.008766998404631212,0.0051127085733990805
0.6000000000000004,0.023716024703249253,0.01945422137053422
0.8000000000000006,0.04239502347854197,0.027552366256636752
1.0000000000000007,0.057553639167683454,0.02893808137641287
1.2009999999999785,0.07205331784981091,0.029985965901320487
1.4009999999999565,0.08941493953868875,0.03959718830151743
1.6009999999999345,0.11138815097367152,0.04772240167833247
1.8009999999999124,0.1356260414474577,0.055260523236320594
2.0009999999998906,0.17049351509569796,0.07171248045285789
2.2009999999998686,0.20770438481240605,0.0890147285120961
2.4009999999998466,0.2345773118174423,0.09748385142490829
2.6009999999998246,0.2605268809599654,0.10324800701721877
2.8009999999998025,0.2869954277527189,0.10593807285065535
3.0009999999997805,0.3094659566339585,0.10040160905981155
3.2009999999997585,0.3285379559045358,0.08944115544353569
3.4009999999997365,0.349111714308132,0.0642875868927298
3.6009999999997144,0.36679260512619044,0.03416285147370489
3.8009999999996924,0.3817055969298502,-0.0017620239645027495
4.000999999999671,0.38705013844978176,-0.03376310838307223
4.200999999999738,0.38239952600519445,-0.05952610104837173
4.400999999999804,0.37203271867768134,-0.08922125762880702
4.600999999999871,0.35422579476878924,-0.10974379571050145
4.800999999999938,0.3447723485845217,-0.13807188276465962
5.000000000000004,0.3320865940984895,-0.16144617825944976
5.200000000000071,0.3097821365924328,-0.1633735773650916
5.400000000000138,0.2809890698669168,-0.17126560883012543
5.600000000000205,0.24492276878245156,-0.17949259994109143
5.800000000000272,0.1996729224351884,-0.1857342391491802
6.000000000000338,0.15987895474744448,-0.19404238889984995
6.200000000000405,0.12705707286631993,-0.19630802258441324
6.400000000000472,0.10514421865152496,-0.18130086239186838
6.600000000000539,0.09559640423574725,-0.15439062192323372
6.800000000000606,0.08544082285629019,-0.12197064320596601
7.000000000000672,0.06914342107276245,-0.07475977865125158
7.200000000000739,0.059030476356604286,-0.030204038794863948
7.400000000000806,0.0524581535997477,0.030047324936590368
7.600000000000873,0.044198166551017666,0.08963953966398032
7.8000000000009395,0.05037474329269626,0.1354416631969092
8.000000000001005,0.06348036057816547,0.17016588807397107
8.200000000000895,0.0728481355204233,0.2176080855250834
8.400000000000784,0.08190528382753143,0.25272721637934575
8.600000000000673,0.10915103326670425,0.2794882665256667
8.800000000000562,0.14791479881020433,0.2950512124489422
9.000000000000451,0.1944278150974865,0.3055335896129438
9.20000000000034,0.21581131138802617,0.3106071836459625
9.40000000000023,0.21225326233086184,0.30033610495099855
9.600000000000119,0.20487850061482418,0.27895807014622803
9.800000000000008,0.20234310484209436,0.2406705117940045
10.000999999999896,0.2005388369164899,0.19997495177012561
10.200999999999786,0.1934245709549312,0.17232295797078778
10.400999999999675,0.18525402180417158,0.14358045742161005
10.600999999999564,0.170239837772273,0.13283187486195464
10.800999999999453,0.1501430460243495,0.13632302853413622
11.000999999999342,0.1265200769520751,0.14797965040705646
11.200999999999231,0.09857548825223474,0.16361994175668776
11.40099999999912,0.07823749602203582,0.17737575171030293
11.60099999999901,0.06589036751790855,0.20386739292587286
11.800999999998899,0.06385024011763661,0.24037109979687504
12.000999999998788,0.061056072880765394,0.2940947788382913
12.200999999998677,0.060734782553237644,0.3522577388868359
12.400999999998566,0.06725349272691203,0.4000679317522316
12.600999999998455,0.08914085404801289,0.42252174823700867
12.800999999998345,0.11608966745221405,0.422545952273939
13.000999999998234,0.1514110793522821,0.4224100174091186
13.200999999998123,0.19584759247389338,0.4213800118886039
13.400999999998012,0.25421646147658056,0.41322768308734525
13.600999999997901,0.30884711843025753,0.402573859769772
13.80099999999779,0.3374883085136296,0.3784807153899869
14.00099999999768,0.35265859860030035,0.34152467750361815
14.200999999997569,0.36318532587058194,0.291413921857956
14.400999999997458,0.36650384470586056,0.24334571471696873
14.600999999997347,0.3588772091164414,0.22050522614349471
14.800999999997236,0.3361769574626231,0.21491254494997966
15.000999999997125,0.31000314618326114,0.21784000813212945
15.200999999997014,0.2793318000779683,0.2201765630491236
15.400999999996904,0.2424426161948885,0.22004481388152242
15.600999999996793,0.20160876014091225,0.21367894144885402
15.800999999996682,0.15318075388298166,0.20190538123823146
16.000999999996573,0.10678963706909637,0.19486150548105993
16.200999999996817,0.05753402996188251,0.19108042582634557
16.40099999999706,0.011439229911257237,0.19431269099453308
16.600999999997306,-0.04830817463555948,0.1953745181321899
16.80099999999755,-0.10648887583680319,0.19878573150098847
17.000999999997795,-0.16028038953060417,0.20400118389061975
17.20099999999804,-0.21480473106303863,0.20986152108967543
17.400999999998284,-0.25645111583326013,0.23313335953562087
17.60099999999853,-0.2696476558474901,0.26518266074186153
17.800999999998773,-0.2670172597683039,0.30229694937837925
18.000999999999017,-0.26894760419860797,0.34676701627798756
18.20099999999926,-0.27202404941342956,0.3958151667487438
18.400999999999506,-0.2619872206125678,0.44380112653350884
18.60099999999975,-0.24963512944409547,0.48804999954036593
18.799999999999994,-0.23327980522120684,0.5217614499852938
19.000000000000238,-0.19592147026867654,0.5518386464752674
19.200000000000482,-0.15250294366370934,0.5686133284124743
19.400000000000727,-0.09624869506096928,0.5845087013906267
19.60000000000097,-0.031502755137314216,0.599912934007735
19.800000000001216,0.017195922057335354,0.6022347712047239
20.00000000000146,0.04597359933129692,0.5930857368056729
