Time (s),X (m),Y (m)
0.001,0.00024391513958915793,-0.0010158048217711122
0.20000000000000015,0.0009275103526442426,0.0002567153857675192
0.4000000000000003,0.002343513815051223,-0.0008206657067784519
0.6000000000000004,0.006328083929232769,-0.003071532624189058
0.8000000000000006,0.013089324805595276,-0.003767713027003668
1.0000000000000007,0.020346626712556496,-0.007326462261394401
1.2009999999999785,0.029028446084921986,-0.0006783608813018625
1.4009999999999565,0.036543316761634456,0.0026943817860381196
1.6009999999999345,0.04634114798121199,0.012312159357353768
1.8009999999999124,0.05471107789533904,0.020484971048980307
2.0009999999998906,0.06299450118718244,0.02469335065256809
2.2009999999998686,0.07082203927523754,0.019448627668601365
2.4009999999998466,0.07713724870370411,0.015491612904007083
2.6009999999998246,0.0821550688487109,0.012984023733371474
2.8009999999998025,0.09212027097385457,0.012314999249116935
3.0009999999997805,0.10117995532881477,0.01640820800738945
3.2009999999997585,0.11057321784167194,0.022045109321923675
3.4009999999997365,0.1262585025970303,0.028018856242806478
3.6009999999997144,0.1417602317941327,0.03850899882633899
3.8009999999996924,0.15808156874983567,0.047052085650615694
4.000999999999671,0.1701082882601745,0.05337763157658366
4.200999999999738,0.18267382302317473,0.057808479922710446
4.400999999999804,0.19175538205100193,0.05792983442030299
4.600999999999871,0.2028237197981882,0.059353722413587794
4.800999999999938,0.2087491563385564,0.05451060945888725
5.000000000000004,0.21652909675174628,0.054420116997421046
5.200000000000071,0.22518779693679478,0.056322979581683544
5.400000000000138,0.2354923638954414,0.06319355376822663
5.600000000000205,0.247033906200158,0.060157841838355354
5.800000000000272,0.26086481817077845,0.0650845199654078
6.000000000000338,0.2703853636369659,0.06682200964472056
6.200000000000405,0.2769517999724227,0.06254529865407592
6.400000000000472,0.2875433278384206,0.06648248501441077
6.600000000000539,0.2948585877558556,0.06715713472152765
6.800000000000606,0.30532249512243026,0.07236020273876227
7.000000000000672,0.3190860498447577,0.07719961081727526
7.200000000000739,0.33290594582933175,0.08617306572234877
7.400000000000806,0.3474852096967126,0.08640550354907037
7.600000000000873,0.35524644208918593,0.08364523411701748
7.8000000000009395,0.367512796491342,0.08452641437437874
8.000000000001005,0.38323190611623204,0.0914198215351247
8.200000000000895,0.39877209303983097,0.09916602778088529
8.400000000000784,0.4109457064969781,0.10474261568797837
8.600000000000673,0.42961384919246554,0.11922627169549775
8.800000000000562,0.44887140984732377,0.12318067000226861
9.000000000000451,0.4642873310413912,0.1226221137635022
9.20000000000034,0.47388163811068923,0.12215331879942361
9.40000000000023,0.4793161158763759,0.11908074485351791
9.600000000000119,0.48576020507333173,0.11551762860922175
9.800000000000008,0.4981055615764958,0.11346727543779905
10.000999999999896,0.5124469347439516,0.11396064026956823
10.200999999999786,0.5302634248465437,0.11985989384014631
10.400999999999675,0.5467302709616122,0.12114696878463421
10.600999999999564,0.5606461830144652,0.12042301279777398
10.800999999999453,0.5728418140598452,0.12126268637191567
11.000999999999342,0.5867044495844453,0.12665280561209896
11.200999999999231,0.6029942741545327,0.12928917029995504
11.40099999999912,0.6170565181842691,0.13000056189595255
11.60099999999901,0.6286535177269088,0.12715938909815414
11.800999999998899,0.6427175067517058,0.12654462292703367
12.000999999998788,0.6581825135302148,0.1297679400745376
12.200999999998677,0.6749266014232403,0.14281660498777696
12.400999999998566,0.6921825993176299,0.1495591666077959
12.600999999998455,0.711289210366097,0.15828089672367965
12.800999999998345,0.7304094970135495,0.1661769661517886
13.000999999998234,0.7488139212356021,0.1705951899093987
13.200999999998123,0.7669723628236965,0.17576328607183145
13.400999999998012,0.7877393072745432,0.18030857690745575
13.600999999997901,0.8057369249267395,0.1857943561983134
13.80099999999779,0.8208384284469747,0.1903662989836642
14.00099999999768,0.8368484549691392,0.19066960186380658
14.200999999997569,0.8510111166965634,0.19706893301804299
14.400999999997458,0.8666094075956026,0.20684715873154977
14.600999999997347,0.8815749866560642,0.2153317867604553
14.800999999997236,0.89724956316951,0.217167552622314
15.000999999997125,0.9125183115613809,0.2174934041063836
15.200999999997014,0.9232503419605621,0.21525195353961213
15.400999999996904,0.9394368908243456,0.22311463397773135
15.600999999996793,0.9538385854863735,0.23051521656447635
15.800999999996682,0.9685642527781679,0.23274371067380642
16.000999999996573,0.982329648735157,0.2297515945142702
16.200999999996817,0.9975363001850003,0.23264362018223908
16.40099999999706,1.0125388223772087,0.24126118567693888
16.600999999997306,1.0268635267388706,0.25141176897161605
16.80099999999755,1.0427041308255978,0.26343382511406865
17.000999999997795,1.06342184855853,0.27011026417383016
17.20099999999804,1.0814415635548447,0.2686428245369174
17.400999999998284,1.0981630259165118,0.26844687414519364
17.60099999999853,1.1164582168842039,0.2780279348616696
17.800999999998773,1.1369596229708034,0.291172228725605
18.000999999999017,1.1539210187605176,0.289461678583267
18.20099999999926,1.171535112773153,0.293384196198139
18.400999999999506,1.1873311745183062,0.2937072459497752
18.60099999999975,1.2062716621595808,0.29395815191864805
18.799999999999994,1.2218088669837384,0.2936009240773213
19.000000000000238,1.2398329563449786,0.29612671393229983
19.200000000000482,1.2564810741124566,0.29900768186879934
19.400000000000727,1.2694430341372867,0.29767476674863075
19.60000000000097,1.284379254474304,0.30006592888829614
19.800000000001216,1.299705432871616,0.29714913193445947
20.00000000000146,1.314263656923863,0.29684831558186864
