Time (s),X (m),Y (m)
0.001,-0.0004702548317818469,0.0005157376242541224
0.20000000000000015,0.0013720797218737884,-0.001492067942095529
0.4000000000000003,0.007509645099343432,-0.006832623961396999
0.6000000000000004,0.009256850900297667,-0.008727261724592315
0.8000000000000006,0.008086147404346529,-0.0064670678323216005
1.0000000000000007,0.013003842557152779,-0.004338343982751549
1.2009999999999785,0.03133996659349244,-0.00657516031360172
1.4009999999999565,0.05038158430254023,-0.006455060114082144
1.6009999999999345,0.06932045585347472,-0.006348469413836058
1.8009999999999124,0.08556668878953107,-0.00430037431185086
2.0009999999998906,0.10737126838131894,-0.0020756427978314484
2.2009999999998686,0.12626338625224826,-0.0024026116180994738
2.4009999999998466,0.15013875350667533,-0.004672550394761389
2.6009999999998246,0.18554477478453216,-0.008017415343110117
2.8009999999998025,0.22032417540271734,-0.027891720188213374
3.0009999999997805,0.24728779836093925,-0.058076902885349335
3.2009999999997585,0.2607685845585197,-0.09250491523917526
3.4009999999997365,0.2656868994784373,-0.1311349472305453
3.6009999999997144,0.26647868201189207,-0.17338354370783354
3.8009999999996924,0.2573897765334017,-0.22058705868960762
4.000999999999671,0.24731181067698482,-0.26765893707643673
4.200999999999738,0.2373488898745802,-0.3204290732958843
4.400999999999804,0.2243224628855681,-0.3798799525319098
4.600999999999871,0.21277956847373403,-0.4426962480673386
4.800999999999938,0.19503994187448917,-0.5037305873074682
5.000000000000004,0.1528849504035982,-0.5620121304540039
5.200000000000071,0.12213392282385126,-0.6198691830267865
5.400000000000138,0.08952630304584784,-0.6708139692606617
5.600000000000205,0.04922777532874565,-0.7006565139933506
5.800000000000272,0.0028551036103637234,-0.7067051418146738
6.000000000000338,-0.042400017449005234,-0.6960414738909924
6.200000000000405,-0.090471230780113,-0.6682618857777248
6.400000000000472,-0.13711296415131818,-0.6383331383462886
6.600000000000539,-0.1558799669726418,-0.5914343686649189
6.800000000000606,-0.1395147063365473,-0.5350385971308896
7.000000000000672,-0.08914333702202976,-0.48442419049528734
7.200000000000739,-0.02138435455014451,-0.45989872317588754
7.400000000000806,0.0425753884366162,-0.45883770945523805
7.600000000000873,0.11052461670021325,-0.4719247217096905
7.8000000000009395,0.17271851976948185,-0.48924123590547103
8.000000000001005,0.22098214388134543,-0.5050121600688863
8.200000000000895,0.27207269647538973,-0.513094767874259
8.400000000000784,0.32298083822748486,-0.5452161250681585
8.600000000000673,0.3646495539712332,-0.5808406923319219
8.800000000000562,0.3915215063986097,-0.6207240058227758
9.000000000000451,0.38414459992464733,-0.6743838852127324
9.20000000000034,0.35615429786226316,-0.7229495432575116
9.40000000000023,0.3229193417017618,-0.7533331956019713
9.600000000000119,0.27749954621940226,-0.7634707217693625
9.800000000000008,0.2221440310280468,-0.7584292494424362
10.000999999999896,0.16729960356796608,-0.747488094021557
10.200999999999786,0.11776448966841498,-0.738450698470432
10.400999999999675,0.06374248754905693,-0.7182911003814831
10.600999999999564,0.01515874151483815,-0.687089936716582
10.800999999999453,-0.011144087571404103,-0.6496319855813906
11.000999999999342,-0.020963828241531535,-0.6092855416403045
11.200999999999231,-0.023708649609963543,-0.5653635187636405
11.40099999999912,-0.013050799907419336,-0.5117131582410295
11.60099999999901,0.0055153327733228905,-0.45422218335868003
11.800999999998899,0.021575271206411173,-0.40061508209331426
12.000999999998788,0.04023319732374055,-0.3451857200299843
12.200999999998677,0.07313763120114321,-0.29284720612479354
12.400999999998566,0.1257424035825938,-0.2582940432298483
12.600999999998455,0.1838432814173991,-0.25164377853896525
12.800999999998345,0.24728087161171075,-0.2624848723361799
13.000999999998234,0.297744545699626,-0.29189691319740374
13.200999999998123,0.31909990652517567,-0.33293272027547294
13.400999999998012,0.32518456956678304,-0.3789349426307076
13.600999999997901,0.32408431214803735,-0.43127185140432983
13.80099999999779,0.3142676673529846,-0.48875871108693697
14.00099999999768,0.30017583529625536,-0.5457888125105583
14.200999999997569,0.2888090212573425,-0.5983599158995363
14.400999999997458,0.28274919707431606,-0.6505606248976683
14.600999999997347,0.2747691375088494,-0.7077670833286652
14.800999999997236,0.2556662690928528,-0.7807976006552552
15.000999999997125,0.23581923736305208,-0.855863874332837
15.200999999997014,0.20954430055752132,-0.9352780822418408
15.400999999996904,0.18472456506502236,-1.006616934917163
15.600999999996793,0.1562202312815649,-1.0828862237118815
15.800999999996682,0.1185648682089411,-1.1651174963760593
16.000999999996573,0.06765438388426993,-1.249263125231729
16.200999999996817,0.017396526886864428,-1.3203169780279915
16.40099999999706,-0.02299457670554738,-1.3618826674872018
16.600999999997306,-0.0776076225682294,-1.37335900196087
16.80099999999755,-0.13552261878717606,-1.376613845970037
17.000999999997795,-0.19123057248613898,-1.3766504990148
17.20099999999804,-0.25539963844612273,-1.3675475141025129
17.400999999998284,-0.31332072964998886,-1.3571407485493516
17.60099999999853,-0.3833189991738554,-1.3367845409176913
17.800999999998773,-0.46037539075125594,-1.3101689798033418
18.000999999999017,-0.5391881900279176,-1.281029151612142
18.20099999999926,-0.6211433487044213,-1.2495194693740428
18.400999999999506,-0.7076040820450118,-1.2155233829925531
18.60099999999975,-0.7908514361930811,-1.1676492897497859
18.799999999999994,-0.8403049235770319,-1.1031118326476044
19.000000000000238,-0.8588594688525336,-1.0385379422586014
19.200000000000482,-0.851333515510409,-0.9781349262329534
19.400000000000727,-0.8357402839275324,-0.9336707816906004
19.60000000000097,-0.799580590541744,-0.9154050126411867
19.800000000001216,-0.7546519790869973,-0.9098190865346824
20.00000000000146,-0.7074832350277632,-0.917362380332287
