Time (s),X (m),Y (m)
0.001,0.0014505791105779379,-8.989899140956135e-05
0.20000000000000015,-0.00030750276629371096,0.0005472268077905831
0.4000000000000003,-0.0012791326938791348,5.730426370023181e-05
0.6000000000000004,-0.005225662279752523,0.0021442185547929644
0.8000000000000006,0.0016399250126921884,-0.0008044360493338535
1.0000000000000007,0.015539802552115583,-0.01351882041100362
1.2009999999999785,0.032545021225432555,-0.043214794935848455
1.4009999999999565,0.0453336433410908,-0.058806226738571984
1.6009999999999345,0.048692883727995,-0.07604784336772259
1.8009999999999124,0.042224568195810865,-0.09524838543602727
2.0009999999998906,0.027309107799821652,-0.12368329382983445
2.2009999999998686,0.004181474984952312,-0.16352902793074536
2.4009999999998466,-0.022232977766993758,-0.20430529973119996
2.6009999999998246,-0.05613831178092521,-0.2464110503303736
2.8009999999998025,-0.10413140880262681,-0.3028627319108862
3.0009999999997805,-0.15809892827458902,-0.3541866890347514
3.2009999999997585,-0.19660555252955106,-0.395441953286438
3.4009999999997365,-0.23253061737478234,-0.41446556043604055
3.6009999999997144,-0.2585002129430915,-0.42106434322245767
3.8009999999996924,-0.29108530002881183,-0.4159810192749547
4.000999999999671,-0.32919703642489395,-0.40418356284771806
4.200999999999738,-0.36922811077189627,-0.3919323386152301
4.400999999999804,-0.4120144523969314,-0.36781176788727654
4.600999999999871,-0.4564701509915016,-0.3289057199969626
4.800999999999938,-0.4852240205166659,-0.28289116591969615
5.000000000000004,-0.4890033935940231,-0.23239548757880296
5.200000000000071,-0.47002237897287613,-0.17484912490891846
5.400000000000138,-0.4442555418726376,-0.11863165402617003
5.600000000000205,-0.40969165978273037,-0.05844865113697266
5.800000000000272,-0.3767622149150776,-0.007175745418295586
6.000000000000338,-0.3438071791384924,0.02649603926674717
6.200000000000405,-0.30516970779668645,0.02980630575306432
6.400000000000472,-0.2727345961081954,0.018189447811979304
6.600000000000539,-0.26149179334170924,-0.0034316732533924608
6.800000000000606,-0.27706861830092966,-0.033114300352566454
7.000000000000672,-0.3142081074255168,-0.06358812961862477
7.200000000000739,-0.37135702849660573,-0.08571056070480908
7.400000000000806,-0.4343482311656156,-0.09617725809184463
7.600000000000873,-0.5026818771814198,-0.08657593411301442
7.8000000000009395,-0.5626994861549802,-0.06608508389726121
8.000000000001005,-0.6289364770589959,-0.034044633176907174
8.200000000000895,-0.6876627157207006,-0.0028936029256962465
8.400000000000784,-0.7501899243168282,0.03404800263686197
8.600000000000673,-0.8029734191431783,0.06578924057120933
8.800000000000562,-0.8540696136772297,0.09710752966007948
9.000000000000451,-0.8958067142624897,0.152044549618304
9.20000000000034,-0.91004797805077,0.20575327985241929
9.40000000000023,-0.9023240783430712,0.2659857674437863
9.600000000000119,-0.8758622189537535,0.3287335542599534
9.800000000000008,-0.8301552486962803,0.3894863331492754
10.000999999999896,-0.7758582011740457,0.43056663368268605
10.200999999999786,-0.7169641778960957,0.4382277986272415
10.400999999999675,-0.6573173900727121,0.4245050353434609
10.600999999999564,-0.6012960452670786,0.40145765887113954
10.800999999999453,-0.5389264104423933,0.3710030711551385
11.000999999999342,-0.482591685502529,0.3418705950714359
11.200999999999231,-0.421478053028553,0.3087130045906474
11.40099999999912,-0.3617058671165357,0.2730737220073519
11.60099999999901,-0.2977541855291941,0.2296747975716424
11.800999999998899,-0.243781354310597,0.17690546523846543
12.000999999998788,-0.19535058949573422,0.13552849472763293
12.200999999998677,-0.14194527061308024,0.09238334555347619
12.400999999998566,-0.09155139297305077,0.055441564565310804
12.600999999998455,-0.04975803557736335,0.006543398886224837
12.800999999998345,-0.03491175780341387,-0.04673772799601686
13.000999999998234,-0.05919228106193586,-0.10068226146128169
13.200999999998123,-0.1186207062501452,-0.14659179363331473
13.400999999998012,-0.18663298003298304,-0.16913995935229903
13.600999999997901,-0.24982309182459753,-0.16523749068499227
13.80099999999779,-0.3045135269291177,-0.13769717403229118
14.00099999999768,-0.3440749580240669,-0.08983096095319419
14.200999999997569,-0.35786622801680446,-0.048079820204365804
14.400999999997458,-0.35407180445603614,-0.010949224542899105
14.600999999997347,-0.3417409961038081,0.028875374688756617
14.800999999997236,-0.3237513646788067,0.06995919613799319
15.000999999997125,-0.2993565421760165,0.11239638214662138
15.200999999997014,-0.2720801611883066,0.1594702956452357
15.400999999996904,-0.2493512621541833,0.20999488886873025
15.600999999996793,-0.23986998612911756,0.2648107602748412
15.800999999996682,-0.23204586571094943,0.312033628578838
16.000999999996573,-0.2176956215024982,0.368456454776897
16.200999999996817,-0.19692735162375674,0.42678638968789656
16.40099999999706,-0.1613561296542653,0.49862440293600907
16.600999999997306,-0.1201054359408571,0.577715814924219
16.80099999999755,-0.07317183960771778,0.6585206344897498
17.000999999997795,-0.019997871476262384,0.7390625847095998
17.20099999999804,0.038703250449876554,0.8111137987992793
17.400999999998284,0.09163341397106076,0.8611839704979223
17.60099999999853,0.14663246105100952,0.8992415870221813
17.800999999998773,0.2114788703520177,0.9080050558321813
18.000999999999017,0.2767028462110442,0.8921295801995033
18.20099999999926,0.3404019803734796,0.8618064497204667
18.400999999999506,0.397277142724224,0.8245980217351991
18.60099999999975,0.4362650151460158,0.7643574742519207
18.799999999999994,0.44970481191939565,0.6972137564497044
19.000000000000238,0.4427161972822836,0.6377843394749731
19.200000000000482,0.41697534740376446,0.5780223470081016
19.400000000000727,0.3703710087298261,0.528185231017468
19.60000000000097,0.31693177859234,0.5123076914231657
19.800000000001216,0.26444827852755554,0.5171216816857378
20.00000000000146,0.21854398511370596,0.5319375119065831
