Time (s),X (m),Y (m)
0.001,0.0014388337585722719,-0.0001791137972120003
0.20000000000000015,0.002008674620353282,-0.0006253759765173592
0.4000000000000003,0.007198365650732207,-0.004585930039980294
0.6000000000000004,0.013458201896647646,-0.009407603185438679
0.8000000000000006,0.02229493693639746,-0.009859139249753924
1.0000000000000007,0.03141278955256295,-0.013153708301258237
1.2009999999999785,0.050209219395603105,-0.020887955813956915
1.4009999999999565,0.07422527513525323,-0.03315642572674903
1.6009999999999345,0.10428745149923568,-0.054515562800776546
1.8009999999999124,0.13294920312002176,-0.07595381449445042
2.0009999999998906,0.16113958790075322,-0.08952409330063764
2.2009999999998686,0.19025646687812534,-0.10795138870631812
2.4009999999998466,0.21529640530973101,-0.12956877034864075
2.6009999999998246,0.24156472303999432,-0.15305646344301188
2.8009999999998025,0.25881983173463985,-0.17441078451521433
3.0009999999997805,0.2633084636474428,-0.19838074499164543
3.2009999999997585,0.2586265394062934,-0.22993004020955501
3.4009999999997365,0.2350307783324973,-0.26538977273376596
3.6009999999997144,0.20086059726670027,-0.29809235788188104
3.8009999999996924,0.16359248776618746,-0.3067553001773554
4.000999999999671,0.12412472191286492,-0.30538457040260414
4.200999999999738,0.08603975288137289,-0.2964678332440776
4.400999999999804,0.046791028442564726,-0.28313921457910646
4.600999999999871,0.0075331630463046344,-0.2707788086295479
4.800999999999938,-0.021592532256081313,-0.2524784338024944
5.000000000000004,-0.032398007067169936,-0.2261399703617135
5.200000000000071,-0.03345906170851663,-0.19268439920119965
5.400000000000138,-0.022626688274783716,-0.1416306470556506
5.600000000000205,-0.007042216282334859,-0.09283404951134816
5.800000000000272,0.012857065424604184,-0.04151949610231953
6.000000000000338,0.03920322804939399,0.012060863246212394
6.200000000000405,0.07585664876493742,0.0638132330310722
6.400000000000472,0.11254130938232496,0.10477146618549453
6.600000000000539,0.1537470014625537,0.11494979488061305
6.800000000000606,0.19525257237905902,0.10702617303937485
7.000000000000672,0.24086278789707333,0.07943674169529952
7.200000000000739,0.29161005185551037,0.04384301183572714
7.400000000000806,0.3327196911157135,0.0037967905886249114
7.600000000000873,0.34532015243276604,-0.04098543839731165
7.8000000000009395,0.33503391503944435,-0.09426266264525301
8.000000000001005,0.31282671199259826,-0.14070708518998573
8.200000000000895,0.26585413311472406,-0.18768417984759603
8.400000000000784,0.2078328398608433,-0.21754675815940497
8.600000000000673,0.14711075689241976,-0.22383263766028527
8.800000000000562,0.0775185765057447,-0.20849903721289823
9.000000000000451,0.00925702074721022,-0.18554450293062913
9.20000000000034,-0.048619216243469626,-0.15559921157330772
9.40000000000023,-0.10072588761451859,-0.1252214745974915
9.600000000000119,-0.14821817201774623,-0.0987469927933616
9.800000000000008,-0.20761154172693988,-0.06753481180022937
10.000999999999896,-0.2788850478549793,-0.027084443558491645
10.200999999999786,-0.34597563506795864,0.009803021448523828
10.400999999999675,-0.4055525361479161,0.04533426423444172
10.600999999999564,-0.46878241376852703,0.080579100115327
10.800999999999453,-0.5389536290962699,0.12066194397336479
11.000999999999342,-0.6080701501200055,0.173181780976746
11.200999999999231,-0.6616811795747547,0.2344017694175737
11.40099999999912,-0.6901990104999383,0.30179736189388245
11.60099999999901,-0.6914410999519613,0.3639157240502494
11.800999999998899,-0.6690338373881742,0.43046747638170213
12.000999999998788,-0.6315225693644471,0.4975058104278021
12.200999999998677,-0.5892245724948992,0.5605843816510809
12.400999999998566,-0.5315753632114649,0.6210279835985573
12.600999999998455,-0.4798310300217988,0.6668122107677822
12.800999999998345,-0.42837701437171805,0.6894954087992118
13.000999999998234,-0.3777230918557194,0.6931175181349783
13.200999999998123,-0.33298794452478103,0.6809594343163086
13.400999999998012,-0.3079086411740368,0.6587813902348403
13.600999999997901,-0.30542863720431046,0.6181150631129935
13.80099999999779,-0.31517656754542855,0.5733676266943729
14.00099999999768,-0.3322394342431036,0.5203539654122149
14.200999999997569,-0.3591447855824081,0.45981963159990696
14.400999999997458,-0.4052081256808606,0.3868414033775945
14.600999999997347,-0.45368119589855604,0.32251002211743596
14.800999999997236,-0.514150820386972,0.2903103221713813
15.000999999997125,-0.5659877266593359,0.28191334796668305
15.200999999997014,-0.6169977534456904,0.28807321723617985
15.400999999996904,-0.6723631103319672,0.3008848430796587
15.600999999996793,-0.72947448902593,0.32555089604361453
15.800999999996682,-0.7850014502582937,0.3570428767644035
16.000999999996573,-0.8475779600790777,0.3984882288471476
16.200999999996817,-0.911462730153974,0.4370703344569689
16.40099999999706,-0.9762259307807142,0.48736325435834127
16.600999999997306,-1.0154225223273137,0.5413056200383273
16.80099999999755,-1.0191007885193548,0.600197836623153
17.000999999997795,-0.9976264200598914,0.6633866499049699
17.20099999999804,-0.9630860451050103,0.7336834565384122
17.400999999998284,-0.916346952559209,0.8148009734309342
17.60099999999853,-0.8586990780270624,0.9005433999029
17.800999999998773,-0.7870731417790976,0.9870750555955841
18.000999999999017,-0.7240246081331267,1.0562815616075334
18.20099999999926,-0.6633811007904519,1.0850590115376668
18.400999999999506,-0.606888828656385,1.0892376999931481
18.60099999999975,-0.5409601818120691,1.0748138784324095
18.799999999999994,-0.4783228953600847,1.0524658807055132
19.000000000000238,-0.40873792088409494,1.0209504208015012
19.200000000000482,-0.33844662969978767,0.986780226008177
19.400000000000727,-0.2823596329551004,0.9535868558197017
19.60000000000097,-0.25837088988592466,0.9059141478015441
19.800000000001216,-0.266296589798022,0.8499131236956697
20.00000000000146,-0.2897723593078294,0.7836899835460679
