Time (s),X (m),Y (m)
0.001,0.0014388337585722719,0.00017911379721200063
0.20000000000000015,0.00022601986736614193,9.363039467765903e-05
0.4000000000000003,-0.0009641433070612954,0.002420329192720859
0.6000000000000004,0.005945659942533645,0.005190852489152838
0.8000000000000006,0.015099375864638507,0.009059506617642318
1.0000000000000007,0.03341103349877422,0.01018675826143319
1.2009999999999785,0.048569009735848316,0.01322663654696229
1.4009999999999565,0.0724126690568386,0.01568525090960907
1.6009999999999345,0.08836289805028699,0.015663270693993325
1.8009999999999124,0.09717429098346593,0.01442252100909162
2.0009999999998906,0.10791709230558949,0.0030046190862005498
2.2009999999998686,0.12697997260266203,-0.015594646662381424
2.4009999999998466,0.1504065530753504,-0.036726301455249674
2.6009999999998246,0.1764376175933794,-0.058672487170092116
2.8009999999998025,0.20296561761124132,-0.08240494845000333
3.0009999999997805,0.2314754773140129,-0.10867830100325691
3.2009999999997585,0.2596792293818988,-0.13562359333492088
3.4009999999997365,0.2862203439951382,-0.16140316325709297
3.6009999999997144,0.31307969068985486,-0.18588653857839624
3.8009999999996924,0.3433345501186564,-0.21629256072195568
4.000999999999671,0.37527339674748417,-0.2558185012195181
4.200999999999738,0.40158526722266935,-0.2930445324053257
4.400999999999804,0.4096979209420162,-0.3317371452069516
4.600999999999871,0.4015246274963942,-0.3727362294574267
4.800999999999938,0.3815659741079314,-0.41569450657248785
5.000000000000004,0.3555173154932077,-0.45185111515513005
5.200000000000071,0.32501939737974234,-0.4891188001832009
5.400000000000138,0.28433655279829295,-0.5262682919334528
5.600000000000205,0.24903363945683218,-0.5582005810439051
5.800000000000272,0.2107366212329922,-0.5787718162891096
6.000000000000338,0.1673806593714373,-0.5738565562511054
6.200000000000405,0.13040438784212618,-0.5550025522960118
6.400000000000472,0.09667157349808446,-0.5295164062937363
6.600000000000539,0.062624972728286,-0.5019112773144102
6.800000000000606,0.019062998384125517,-0.46531682065921026
7.000000000000672,-0.034505161961246984,-0.4245193138074971
7.200000000000739,-0.08242526840996578,-0.38363948249418983
7.400000000000806,-0.12690616530505827,-0.3427535664000666
7.600000000000873,-0.16974353385272017,-0.30158511241315755
7.8000000000009395,-0.21229561178608347,-0.2557364181747636
8.000000000001005,-0.23950294943871633,-0.20250777364257397
8.200000000000895,-0.24254668256260947,-0.15555284118811677
8.400000000000784,-0.22842184784694075,-0.11939007846866741
8.600000000000673,-0.19957636706187498,-0.08021590930168908
8.800000000000562,-0.16900298989242912,-0.042891479380565666
9.000000000000451,-0.13059912780031918,-0.00148935537510561
9.20000000000034,-0.08269741029648933,0.0442834183864222
9.40000000000023,-0.03083014493381758,0.08620545498161258
9.600000000000119,0.03094732169721855,0.11506924321355122
9.800000000000008,0.09954000695435597,0.12121402634943827
10.000999999999896,0.1764192637263583,0.10802425314299953
10.200999999999786,0.2514334900286223,0.07753064262378939
10.400999999999675,0.31528769391223405,0.0377809812181522
10.600999999999564,0.38051807123588144,-0.007119682171279203
10.800999999999453,0.4344768952133546,-0.05182082345606313
11.000999999999342,0.4875375533114348,-0.09636357714720341
11.200999999999231,0.5423127319506352,-0.14513810530692847
11.40099999999912,0.6054554893260613,-0.19879875124282678
11.60099999999901,0.6657572268832547,-0.25111563401832515
11.800999999998899,0.7220612068610462,-0.2987385159341133
12.000999999998788,0.7836232490837137,-0.35117439643070286
12.200999999998677,0.8540587908059649,-0.40327330416424084
12.400999999998566,0.923037948364758,-0.45425161775488687
12.600999999998455,0.9789496719914771,-0.4969225129209117
12.800999999998345,1.0300834032106447,-0.5233115013872914
13.000999999998234,1.0691809866496245,-0.5363309276983023
13.200999999998123,1.1035561179347033,-0.5419814007450089
13.400999999998012,1.1413062561403853,-0.5479625098888925
13.600999999997901,1.181574858112604,-0.557481541172902
13.80099999999779,1.2356397741148746,-0.5824736418645348
14.00099999999768,1.2911294658873897,-0.6205689028828757
14.200999999997569,1.347447466883513,-0.6657118395658885
14.400999999997458,1.4064443212711684,-0.7148600717162137
14.600999999997347,1.4683942481343788,-0.7664355256632175
14.800999999997236,1.5245168864924312,-0.8166405238998425
15.000999999997125,1.58265616231443,-0.867779875449841
15.200999999997014,1.6380880810421004,-0.9223592307357328
15.400999999996904,1.6903207332387553,-0.9842333656810048
15.600999999996793,1.7306854360289001,-1.0501959784382164
15.800999999996682,1.7466910766522459,-1.1107346709856918
16.000999999996573,1.7386883432342701,-1.1693214686515252
16.200999999996817,1.707183082695444,-1.2346846497040727
16.40099999999706,1.6655018799725576,-1.2975558429544969
16.600999999997306,1.6186575179372633,-1.3603595638610677
16.80099999999755,1.5682253980682292,-1.4201328415984749
17.000999999997795,1.502796402373318,-1.4824396541705547
17.20099999999804,1.4412218730622122,-1.5425872742250826
17.400999999998284,1.3853941314342575,-1.6009558636595203
17.60099999999853,1.320041993625525,-1.6450704547458703
17.800999999998773,1.2594863085260406,-1.6655204289605359
18.000999999999017,1.2054216304075298,-1.6696609827952853
18.20099999999926,1.1467099492194777,-1.6627188825066463
18.400999999999506,1.0795857942401592,-1.6424183368571317
18.60099999999975,1.0142520359924496,-1.614484352919512
18.799999999999994,0.9542422573436542,-1.5764161428213017
19.000000000000238,0.8883194234819977,-1.5293403555633112
19.200000000000482,0.821619685589676,-1.4769891064246854
19.400000000000727,0.7596251838509817,-1.4222279969532552
19.60000000000097,0.701330878635785,-1.3572244686552124
19.800000000001216,0.6503406271490161,-1.288673579228258
20.00000000000146,0.6199700096929626,-1.2197589929911665
