Time (s),X (m),Y (m)
0.001,-0.00030633420604509907,0.0007293631428462583
0.20000000000000015,0.0008865595766449598,-0.00023991584661424485
0.4000000000000003,0.0013662849914293977,-0.0002906994714811858
0.6000000000000004,0.0020562640331177324,-0.0006455079588379093
0.8000000000000006,0.0029387267887474463,-0.001204533884039967
1.0000000000000007,0.0038755349006985725,-0.0017478545557574497
1.2009999999999785,0.0050227544856806935,-0.0018571957421838498
1.4009999999999565,0.006598512619879974,-0.002001050203058983
1.6009999999999345,0.007856680893991946,-0.0025491542424559296
1.8009999999999124,0.008743771679595237,-0.0036878601318922153
2.0009999999998906,0.009719471556811164,-0.004833138914504132
2.2009999999998686,0.01072674170683568,-0.005700115233935401
2.4009999999998466,0.012243750441388276,-0.006372412935271729
2.6009999999998246,0.013944289234585057,-0.006935182346090987
2.8009999999998025,0.01559545011582593,-0.007495999799447576
3.0009999999997805,0.017509709881046037,-0.008156991899403504
3.2009999999997585,0.01931304955100359,-0.008571309641095684
3.4009999999997365,0.021524520454039426,-0.009216208023338411
3.6009999999997144,0.023225723855303637,-0.009744152070069937
3.8009999999996924,0.02524132480535731,-0.010203251074450604
4.000999999999671,0.027227675472416585,-0.010527090751722114
4.200999999999738,0.029355481924941522,-0.01089085432457393
4.400999999999804,0.031250679730233676,-0.011312893626169
4.600999999999871,0.033520618917792906,-0.01193948105001392
4.800999999999938,0.03561735822964666,-0.012001897036766082
5.000000000000004,0.03782747029414044,-0.01210033822508311
5.200000000000071,0.03997989700058367,-0.011953985234586897
5.400000000000138,0.042116082301812685,-0.011489204637278207
5.600000000000205,0.04408681329170872,-0.01092386178800681
5.800000000000272,0.04597615692152075,-0.010011682396363344
6.000000000000338,0.047899838397274484,-0.008983631522534275
6.200000000000405,0.0498276330379938,-0.007493800528182489
6.400000000000472,0.051770092616518354,-0.005979774260134794
6.600000000000539,0.05361333302869804,-0.004191540402375217
6.800000000000606,0.05526051009931979,-0.002378388078144853
7.000000000000672,0.056900744460330194,-0.0002786641230008292
7.200000000000739,0.05887174941296461,0.0019167760830989028
7.400000000000806,0.060207327962050916,0.004050165987647664
7.600000000000873,0.06148686017109288,0.006735376832604376
7.8000000000009395,0.06303293153597941,0.009670639781870792
8.000000000001005,0.06401208335660907,0.012318817496372328
8.200000000000895,0.06522500974481453,0.015615935983565594
8.400000000000784,0.06602147678239409,0.018130220312162878
8.600000000000673,0.06625184803210214,0.02099914318969109
8.800000000000562,0.06670469107091331,0.023658119813086388
9.000000000000451,0.06758757323220667,0.027039626762919173
9.20000000000034,0.06784884883169423,0.029740944509315508
9.40000000000023,0.06787804698301385,0.03289485134408213
9.600000000000119,0.06808198851690062,0.035728007250187425
9.800000000000008,0.06799649020703481,0.03835683800650742
10.000999999999896,0.0681365889514713,0.0410522429306793
10.200999999999786,0.06792081943188305,0.044087410749279986
10.400999999999675,0.0681379719213854,0.04689396755280102
10.600999999999564,0.06816153589734311,0.049528727301048306
10.800999999999453,0.06799311825489822,0.0525677136220587
11.000999999999342,0.06768404859731052,0.05558814198243949
11.200999999999231,0.06763868136582701,0.057978351316756396
11.40099999999912,0.06755316001634251,0.060262948712053364
11.60099999999901,0.06712121308937136,0.06287931964067324
11.800999999998899,0.06724507675177255,0.06548452164401246
12.000999999998788,0.06676473856377445,0.06777949129237337
12.200999999998677,0.06614669953722913,0.06993198288138247
12.400999999998566,0.06556930758296069,0.07183697274692072
12.600999999998455,0.06478173680326087,0.07402354341477452
12.800999999998345,0.06431335599424358,0.07653921859121994
13.000999999998234,0.06354813477719075,0.07864508796232214
13.200999999998123,0.06297837418713254,0.08115672045064799
13.400999999998012,0.06257245441103564,0.08342149164621952
13.600999999997901,0.061529060000263126,0.08568583371955268
13.80099999999779,0.06041340496072958,0.08750812358535824
14.00099999999768,0.05877416559742538,0.08911568922190119
14.200999999997569,0.05726650309969847,0.09114903598872524
14.400999999997458,0.0552369501263747,0.09275980567959251
14.600999999997347,0.05323783641354578,0.09396639051452
14.800999999997236,0.05073297893444044,0.0954507260194
15.000999999997125,0.04831932643967711,0.09745780808102476
15.200999999997014,0.04569740042142051,0.09892169709515766
15.400999999996904,0.042912450105364465,0.09986516250459705
15.600999999996793,0.03972018354694675,0.10113364718482477
15.800999999996682,0.03630647276244491,0.10238234542427045
16.000999999996573,0.03315060153745759,0.10332575195985229
16.200999999996817,0.02940118133093986,0.10429153522199124
16.40099999999706,0.025910469335265328,0.10495254037373698
16.600999999997306,0.02201683362658315,0.10591022653837956
16.80099999999755,0.01838472942437067,0.10667532774384073
17.000999999997795,0.014533469535095073,0.10749490973261767
17.20099999999804,0.01080945270963078,0.10848077247322632
17.400999999998284,0.00653932308980646,0.1089098117455648
17.60099999999853,0.002655566683084788,0.10970065938086863
17.800999999998773,-0.0015675534233080823,0.10992473130036662
18.000999999999017,-0.005875851772947957,0.11007859089013165
18.20099999999926,-0.009877727146351527,0.11015680945846279
18.400999999999506,-0.01422288932835345,0.11044404764381985
18.60099999999975,-0.018297298645792257,0.1110512150455133
18.799999999999994,-0.022640154178306456,0.1112063697600631
19.000000000000238,-0.027434747692490075,0.11082790118267942
19.200000000000482,-0.03264746017646828,0.11069742721856062
19.400000000000727,-0.0364017195059993,0.1110551526891564
19.60000000000097,-0.04046352712978527,0.11115638952525667
19.800000000001216,-0.0457187239316723,0.11053364004617419
20.00000000000146,-0.051115980454111073,0.11041720481720164
