Time (s),X (m),Y (m)
0.001,-0.00023999057263828476,-0.0007901558823345064
0.20000000000000015,0.0008340718752531145,-3.3093453524639873e-06
0.4000000000000003,0.00186508086001877,0.00016442709278881778
0.6000000000000004,0.0026323943285571087,-0.0005487680992830292
0.8000000000000006,0.005590814464863307,0.0005229676650142111
1.0000000000000007,0.008845925562710058,-0.00073705044566771
1.2009999999999785,0.014216699004193757,0.0013367607393652298
1.4009999999999565,0.021360718129045053,0.006344177588796702
1.6009999999999345,0.02872331710237308,0.012722065686743387
1.8009999999999124,0.03331089441081791,0.014127173663791933
2.0009999999998906,0.04151631670300971,0.019494102327297293
2.2009999999998686,0.04821288026673844,0.022356412035002878
2.4009999999998466,0.05479363954782934,0.02662553269595171
2.6009999999998246,0.06382544078995055,0.03689194975906815
2.8009999999998025,0.0719638723020008,0.04435764482713851
3.0009999999997805,0.07807656119178269,0.05059970286046853
3.2009999999997585,0.08582339829383669,0.057293444599879575
3.4009999999997365,0.0910957135011645,0.06229602682308913
3.6009999999997144,0.0970677161415969,0.06691820834860245
3.8009999999996924,0.10329557525236725,0.07174669239117298
4.000999999999671,0.10988463208499581,0.07941380265984897
4.200999999999738,0.11585745538453561,0.08669155379831595
4.400999999999804,0.12010612390284693,0.09271787423148624
4.600999999999871,0.12422164770948795,0.09783258688460655
4.800999999999938,0.12851633679523652,0.10559053468971798
5.000000000000004,0.13178596752660673,0.1116543535152143
5.200000000000071,0.13559569611478337,0.11867252717516547
5.400000000000138,0.14053609324237018,0.12703426777724253
5.600000000000205,0.1442429185957949,0.13152955495704766
5.800000000000272,0.14655451667040206,0.13774171266244564
6.000000000000338,0.14821665193567737,0.14377070544001666
6.200000000000405,0.14854425205193852,0.15350545080443176
6.400000000000472,0.14907878702463515,0.1626066080941376
6.600000000000539,0.14895913015123233,0.17187779433620393
6.800000000000606,0.14714486446311886,0.18208308269800644
7.000000000000672,0.14685880854539973,0.1908356234593551
7.200000000000739,0.14660226845790766,0.1975300124112639
7.400000000000806,0.14379087316402347,0.2068525294764316
7.600000000000873,0.13959857340418969,0.21761073946516077
7.8000000000009395,0.1367493112030252,0.22678399551805029
8.000000000001005,0.13532371423219555,0.2363235282188333
8.200000000000895,0.1321526433226862,0.2465224210368829
8.400000000000784,0.12924820662853248,0.2552435821038343
8.600000000000673,0.12272820472847673,0.2666633531466881
8.800000000000562,0.11795349660633729,0.27716351457235344
9.000000000000451,0.11461414915429648,0.28698877228952546
9.20000000000034,0.11145462940260853,0.29656639331537815
9.40000000000023,0.10573384420098879,0.3066319783775446
9.600000000000119,0.09852492311055541,0.31736420957291894
9.800000000000008,0.09052057238415125,0.3271071611246492
10.000999999999896,0.08592756762698152,0.3348986501592383
10.200999999999786,0.08141684166561126,0.3424935853165975
10.400999999999675,0.07505170275680147,0.35031994417544354
10.600999999999564,0.06956140959248175,0.3567472045064879
10.800999999999453,0.05978924855486009,0.3614165697810888
11.000999999999342,0.0514340158538272,0.36655274731810167
11.200999999999231,0.0439366810304579,0.37392409718582503
11.40099999999912,0.036128631203641036,0.3790279818681165
11.60099999999901,0.027099835855353093,0.3824227816470957
11.800999999998899,0.01875104985271764,0.3861610440781577
12.000999999998788,0.010132647502335043,0.38821633534465194
12.200999999998677,0.0038096720505878044,0.3898236939736948
12.400999999998566,-0.002674559953016013,0.39254322632874034
12.600999999998455,-0.012955947900449804,0.3920548855581654
12.800999999998345,-0.022481727889890453,0.3934602801283157
13.000999999998234,-0.03279212010588679,0.3939831639662038
13.200999999998123,-0.04008011046265628,0.39502043414505417
13.400999999998012,-0.051464020139744646,0.39234462934289527
13.600999999997901,-0.060024324518320384,0.39189438300732266
13.80099999999779,-0.06778897357665356,0.39006586280557726
14.00099999999768,-0.07662349716511342,0.3886167578131587
14.200999999997569,-0.08673897622626392,0.3878648104316614
14.400999999997458,-0.09610269756147195,0.3850418382201152
14.600999999997347,-0.10534495892985125,0.3832333469713302
14.800999999997236,-0.11633902157802688,0.37838877595106846
15.000999999997125,-0.1280350982110117,0.3742177469411618
15.200999999997014,-0.13921085775701939,0.36909047349345914
15.400999999996904,-0.1500102533633631,0.36094807406206086
15.600999999996793,-0.16136633851959448,0.35239773991443696
15.800999999996682,-0.17080669029126677,0.342828040409159
16.000999999996573,-0.17927833534226886,0.3321433998456538
16.200999999996817,-0.18748228437737965,0.32499403483651684
16.40099999999706,-0.19387711561451557,0.316821743311383
16.600999999997306,-0.20169405943394586,0.3065927038501437
16.80099999999755,-0.2079229347183055,0.29754093324763753
17.000999999997795,-0.21366811341258019,0.2868132197370212
17.20099999999804,-0.21876988808155934,0.27821197543128995
17.400999999998284,-0.22288201409177322,0.2677921110486061
17.60099999999853,-0.22540186235079038,0.26041573597309753
17.800999999998773,-0.22859092591536598,0.2540385267446131
18.000999999999017,-0.23114402195562664,0.24659112256173218
18.20099999999926,-0.2320990843258302,0.237321604368466
18.400999999999506,-0.2346905933375142,0.22848233102728438
18.60099999999975,-0.23743479093792588,0.22261275840605985
18.799999999999994,-0.24027832546990874,0.21605939234868438
19.000000000000238,-0.24267870780986903,0.21029388077833153
19.200000000000482,-0.2366738751842602,0.1977063134261342
19.400000000000727,-0.23367928710614588,0.18661583557660538
19.60000000000097,-0.22906683623367113,0.1746650909125896
19.800000000001216,-0.22665595223740875,0.1635423872962132
20.00000000000146,-0.22313821667213699,0.15195265702773103
