Time (s),X (m),Y (m)
0.001,0.0010146588340248276,0.000844935058449024
0.20000000000000015,0.0007818227262883358,-0.00014949628240549365
0.4000000000000003,0.0015041616044140765,0.000263896332090044
0.6000000000000004,0.0024927638210500585,0.0006318506635124069
0.8000000000000006,0.004087395644460385,0.001148204944256924
1.0000000000000007,0.005522915427248788,0.0016847439432710887
1.2009999999999785,0.006983088444583745,0.0018958632220709949
1.4009999999999565,0.00885464869804434,0.002572703437363887
1.6009999999999345,0.010775254648511569,0.0035403435872304405
1.8009999999999124,0.012647933429057312,0.0045527818902749
2.0009999999998906,0.014720204712043663,0.005802860113212671
2.2009999999998686,0.016856599746196473,0.007059751180052602
2.4009999999998466,0.019139287143010414,0.008588789849105593
2.6009999999998246,0.021501304467762293,0.010229888126089805
2.8009999999998025,0.0240683590458893,0.012153834196346854
3.0009999999997805,0.026456139316999108,0.013681374259580813
3.2009999999997585,0.028982377018567724,0.016206621010484836
3.4009999999997365,0.03135988318400081,0.018236416478998048
3.6009999999997144,0.03394322597722529,0.020308220509245477
3.8009999999996924,0.036386930191323864,0.022606080095205157
4.000999999999671,0.03905061321049126,0.02484791661204442
4.200999999999738,0.04143729399066464,0.027324930249956303
4.400999999999804,0.04386182293428852,0.02974805275226763
4.600999999999871,0.04635547748173017,0.03248643745080051
4.800999999999938,0.0487558502287443,0.03499612362395751
5.000000000000004,0.050876616786605655,0.03766383178867267
5.200000000000071,0.052898211118787855,0.04023556645404519
5.400000000000138,0.05477950791292135,0.042956691787088434
5.600000000000205,0.05680211221923799,0.04507319541722786
5.800000000000272,0.05838945549278371,0.047749946102043285
6.000000000000338,0.05968638793554271,0.04968529854990275
6.200000000000405,0.06067436875140914,0.05217487877587956
6.400000000000472,0.06139764068771739,0.054553421080817115
6.600000000000539,0.06211735006527191,0.05704859981993282
6.800000000000606,0.06235422389011959,0.05990371116275565
7.000000000000672,0.06237029864600095,0.0629548680397707
7.200000000000739,0.06252396738828248,0.06594367984553427
7.400000000000806,0.062307160655447134,0.06923700247115819
7.600000000000873,0.062323020563666884,0.07171753729131093
7.8000000000009395,0.06215761482179396,0.07435407689830935
8.000000000001005,0.061750080548898405,0.07714532876715688
8.200000000000895,0.06072750986661651,0.08068197204704207
8.400000000000784,0.060045176068105284,0.0838165789882791
8.600000000000673,0.058824691085567066,0.08745096293007164
8.800000000000562,0.057455673804098675,0.0910143265271677
9.000000000000451,0.05641940033773077,0.09398014574626805
9.20000000000034,0.05508181785307088,0.09713689066886358
9.40000000000023,0.053588950029571154,0.10021163124199632
9.600000000000119,0.052151804447051704,0.1032288826323682
9.800000000000008,0.05043441684849,0.10636904129610208
10.000999999999896,0.0482434031464493,0.10974596350219544
10.200999999999786,0.04546432096830446,0.11352978197177027
10.400999999999675,0.043743854544365995,0.11611173271439752
10.600999999999564,0.040887945347365895,0.11984758238830755
10.800999999999453,0.03847179707085926,0.12312033978467071
11.000999999999342,0.03582360075507899,0.12631255745739606
11.200999999999231,0.03349550240778361,0.12942148915271728
11.40099999999912,0.03089627764379791,0.13272510551396016
11.60099999999901,0.02839022068509725,0.1360185390084267
11.800999999998899,0.025901908935256103,0.13908782834489064
12.000999999998788,0.023101441520960622,0.14216013203552252
12.200999999998677,0.020613789038685874,0.14507728366404543
12.400999999998566,0.01769963564145441,0.14798212980186212
12.600999999998455,0.014145467877936052,0.15084611701820835
12.800999999998345,0.011125765466552364,0.1537033945144359
13.000999999998234,0.008289454395435868,0.1562836775358438
13.200999999998123,0.005028882636740268,0.1590535388754223
13.400999999998012,0.0018369088185904135,0.1616468929402
13.600999999997901,-0.0011122536021150522,0.16410863281906343
13.80099999999779,-0.0043058433650225506,0.16654725206278093
14.00099999999768,-0.00769523119928652,0.16873900439550302
14.200999999997569,-0.010594294891587322,0.17081028025532635
14.400999999997458,-0.013677696576790365,0.17221142439092932
14.600999999997347,-0.01677465674104356,0.17332114776588203
14.800999999997236,-0.019791399512971614,0.174167810663478
15.000999999997125,-0.022751983372031864,0.17506346485739038
15.200999999997014,-0.026001882101689102,0.17546858328520656
15.400999999996904,-0.029005093581225574,0.17564005683042536
15.600999999996793,-0.031881177866776786,0.17556691024012333
15.800999999996682,-0.03484968630171884,0.17536476483820934
16.000999999996573,-0.0385890670421659,0.17470166079288105
16.200999999996817,-0.0428218857250056,0.17395257159162159
16.40099999999706,-0.04631865772258887,0.17328868032213682
16.600999999997306,-0.049902851922694294,0.17249057425914716
16.80099999999755,-0.053371708000344506,0.1715521918486791
17.000999999997795,-0.057423929151140085,0.17006159758009567
17.20099999999804,-0.0618690251928641,0.16807894082878022
17.400999999998284,-0.06508551449630157,0.167004621478428
17.60099999999853,-0.06860080886458027,0.16537886432550528
17.800999999998773,-0.07231301632807868,0.16344410304724702
18.000999999999017,-0.07643968810915944,0.1609434305689838
18.20099999999926,-0.08060871806814132,0.15798942384665557
18.400999999999506,-0.0841268910389517,0.15587755181374732
18.60099999999975,-0.08763986201951453,0.15350170279460987
18.799999999999994,-0.0910506911373155,0.15096300939823318
19.000000000000238,-0.09439814505629415,0.148391208784399
19.200000000000482,-0.0976437342905117,0.14603692732001364
19.400000000000727,-0.10098769288889935,0.14341831990011233
19.60000000000097,-0.1043736724585188,0.14067788532225373
19.800000000001216,-0.10782318008113267,0.1375794274432398
20.00000000000146,-0.11108826817661933,0.13472820483143602
