Time (s),X (m),Y (m)
0.001,-1.2891339751951317e-05,0.0009348340498585851
0.20000000000000015,0.0007844029521804865,-2.648312408345065e-05
0.4000000000000003,0.0012712037269921404,-0.00016279439628823634
0.6000000000000004,0.001850883737373563,-0.0006535203377251839
0.8000000000000006,0.0024485247811160357,-0.0008431919339682011
1.0000000000000007,0.0032042190508331115,-0.0011088109281292295
1.2009999999999785,0.004016101627460497,-0.0016708335160090016
1.4009999999999565,0.004739863987510131,-0.0021170728021987937
1.6009999999999345,0.005440545686801165,-0.0025226977257778362
1.8009999999999124,0.006183950283593633,-0.002981354598950268
2.0009999999998906,0.007006309537273305,-0.003516503502377254
2.2009999999998686,0.007892657967875498,-0.004114950802914241
2.4009999999998466,0.00882009569846728,-0.0047530335824035085
2.6009999999998246,0.009775474050336946,-0.005413482309228196
2.8009999999998025,0.010750359276362453,-0.006094382283593931
3.0009999999997805,0.011748590573813883,-0.006800170703158861
3.2009999999997585,0.012774836530896847,-0.007536114020773829
3.4009999999997365,0.013829999767275555,-0.008303081670384899
3.6009999999997144,0.014911866805510514,-0.009099167669676101
3.8009999999996924,0.016016390931598817,-0.009921773973636276
4.000999999999671,0.01714195520325978,-0.010768910781935606
4.200999999999738,0.018286918478154085,-0.011639557023150992
4.400999999999804,0.019450991308094145,-0.012533440037775885
4.600999999999871,0.020633445737049703,-0.013450248669920884
4.800999999999938,0.02183368974776089,-0.014389301066294168
5.000000000000004,0.023033799086669738,-0.015322179616396895
5.200000000000071,0.024267138741464456,-0.016302859472426184
5.400000000000138,0.02551697155918527,-0.017303126971937775
5.600000000000205,0.02678462883439839,-0.018321845894055496
5.800000000000272,0.028071911044999287,-0.019358328308493093
6.000000000000338,0.02938014611323455,-0.020412056272819955
6.200000000000405,0.030710096142557253,-0.02148159217622714
6.400000000000472,0.0320617816523549,-0.022565750965368243
6.600000000000539,0.033434541837254625,-0.023662912966497314
6.800000000000606,0.03482801811654656,-0.024770204567547353
7.000000000000672,0.0362417390732252,-0.025885450202063544
7.200000000000739,0.037675049541255806,-0.027006618562687497
7.400000000000806,0.03912689727902182,-0.028133073834298465
7.600000000000873,0.04053724510630955,-0.02931090177859586
7.8000000000009395,0.04196827428044361,-0.030540240351881732
8.000000000001005,0.04334729664965301,-0.0317749408114863
8.200000000000895,0.04485953160704677,-0.0330272104583427
8.400000000000784,0.0462786131123435,-0.0343965385664382
8.600000000000673,0.047725667768409606,-0.03572139983446638
8.800000000000562,0.04914978614011607,-0.0371355114865788
9.000000000000451,0.05060506881420531,-0.038540158411094996
9.20000000000034,0.052103097329680964,-0.03997331656099309
9.40000000000023,0.053577068142939575,-0.04133889281283423
9.600000000000119,0.05514502660922321,-0.04277591173639232
9.800000000000008,0.056773684175503034,-0.044235333624119376
10.000999999999896,0.05837497222214849,-0.045650588556639934
10.200999999999786,0.05992663724294961,-0.047014300686150944
10.400999999999675,0.06158815651423907,-0.04843522029135687
10.600999999999564,0.06312281808390638,-0.04972754350692609
10.800999999999453,0.06476461654695712,-0.05107278080380181
11.000999999999342,0.06647350930075699,-0.05244375287169526
11.200999999999231,0.06812826072472557,-0.05374131157214394
11.40099999999912,0.06980885519910829,-0.05503866491527651
11.60099999999901,0.07142293178282169,-0.05621719112050132
11.800999999998899,0.07303959442116428,-0.057409443910298466
12.000999999998788,0.07471290769546689,-0.058554478615142284
12.200999999998677,0.07623682956227948,-0.05959753114782963
12.400999999998566,0.07789613598201613,-0.06066180901536278
12.600999999998455,0.0793971690124898,-0.0616225351165053
12.800999999998345,0.08104033419137018,-0.06259741556314928
13.000999999998234,0.08259126777915606,-0.0635130003847291
13.200999999998123,0.08422553254942758,-0.06440485078995188
13.400999999998012,0.08576123228392492,-0.06524141715059258
13.600999999997901,0.08737666159534241,-0.0660450118954802
13.80099999999779,0.08894935891252277,-0.06682232981339625
14.00099999999768,0.09054882053925703,-0.06753419293651847
14.200999999997569,0.09210155112985048,-0.06822619560801074
14.400999999997458,0.0936863040276281,-0.06885182044934711
14.600999999997347,0.09521881129753938,-0.06945803129483077
14.800999999997236,0.09678534712331785,-0.06998853196437244
15.000999999997125,0.09829762259534568,-0.07049584271326248
15.200999999997014,0.09984394816997144,-0.07091889260764786
15.400999999996904,0.10134316630105036,-0.07131088815979857
15.600999999996793,0.10288499515787809,-0.07161703576593352
15.800999999996682,0.10444980836131046,-0.0718882188861625
16.000999999996573,0.10597704318937959,-0.07206868612807343
16.200999999996817,0.10757152944281612,-0.07222119464785366
16.40099999999706,0.10907453588234067,-0.07230833048892292
16.600999999997306,0.11064948792754954,-0.07235541951203733
16.80099999999755,0.11220397848224113,-0.07235701417348067
17.000999999997795,0.113809807115729,-0.07234842891931896
17.20099999999804,0.11538931710447692,-0.07227605522099027
17.400999999998284,0.1170298435666712,-0.07218910138614766
17.60099999999853,0.11863666351235275,-0.07204267593560128
17.800999999998773,0.12030425726267757,-0.07186829537309934
18.000999999999017,0.1219298125614436,-0.0716393517833769
18.20099999999926,0.12354803581265449,-0.07138657053260995
18.400999999999506,0.12520427634884218,-0.07106638081070822
18.60099999999975,0.12684534318831714,-0.07073053115717375
18.799999999999994,0.12849019432944347,-0.07032868456505074
19.000000000000238,0.13015557118966634,-0.06990784325767224
19.200000000000482,0.13185785834382038,-0.06942108426545596
19.400000000000727,0.13348148624697992,-0.06891872713808214
19.60000000000097,0.13520210562256885,-0.06835168525351813
19.800000000001216,0.13684436129187325,-0.067768705299979
20.00000000000146,0.1385845393529705,-0.06712059614761494
