Time (s),X (m),Y (m)
0.001,0.0008589492133542695,-0.0009348340498585851
0.20000000000000015,0.0008745486167444761,6.627252556585245e-05
0.4000000000000003,0.004773286815844937,-0.000660749877694169
0.6000000000000004,0.008164658836843086,-6.869173690851893e-06
0.8000000000000006,0.01340240128229827,-0.006109388520385313
1.0000000000000007,0.016259686561136837,-0.004027300301397174
1.2009999999999785,0.025299425572177105,-0.002326892530654786
1.4009999999999565,0.03404547826249369,-0.006772019186237801
1.6009999999999345,0.04386531489307818,-0.010044293222640178
1.8009999999999124,0.050664005992109455,-0.010299270346229556
2.0009999999998906,0.0566849633511901,-0.01202526400162412
2.2009999999998686,0.06368442779651315,-0.013896115436619083
2.4009999999998466,0.07182234528824792,-0.014868786903313265
2.6009999999998246,0.0808818083504347,-0.006486631036431325
2.8009999999998025,0.08903867323842936,5.768302340723285e-05
3.0009999999997805,0.0931695330525656,0.0016016298489572236
3.2009999999997585,0.10316789121049837,0.006451401459518784
3.4009999999997365,0.11314929387571229,0.020471344222849366
3.6009999999997144,0.127759410382759,0.024026484570051066
3.8009999999996924,0.1353369494043726,0.02843730338123697
4.000999999999671,0.14501314395765244,0.03197463727931184
4.200999999999738,0.15031751906185023,0.030932922696894228
4.400999999999804,0.1672678640470352,0.021026424646542186
4.600999999999871,0.18026342314331334,0.017312055450282488
4.800999999999938,0.19003813245272064,0.019587221781611437
5.000000000000004,0.2029056081708632,0.029309531963434582
5.200000000000071,0.2087767396561143,0.03869991209850829
5.400000000000138,0.21422531748434262,0.04335732136068635
5.600000000000205,0.2271875412006948,0.05157795252490244
5.800000000000272,0.24771854673500773,0.05246849438578498
6.000000000000338,0.2649514549600292,0.05526352060448787
6.200000000000405,0.2795525471528696,0.061960313659980344
6.400000000000472,0.29292661555895133,0.06847048075908922
6.600000000000539,0.30058393507050524,0.07595619038844133
6.800000000000606,0.31153548591055935,0.08337708627725464
7.000000000000672,0.32343061819888513,0.09375649562503789
7.200000000000739,0.3305841216473038,0.10384512086785014
7.400000000000806,0.3400539624829199,0.10969710530490838
7.600000000000873,0.35364485687116953,0.11222326654837467
7.8000000000009395,0.3675437280550032,0.11635591668110487
8.000000000001005,0.3796317150040373,0.11289345995044292
8.200000000000895,0.3841858585806852,0.11313878473594491
8.400000000000784,0.3880409506124287,0.123768726252317
8.600000000000673,0.3886715598775422,0.1275897613605156
8.800000000000562,0.3926509965424748,0.13231516982151395
9.000000000000451,0.3961389815127348,0.14160339112065293
9.20000000000034,0.40505982494960985,0.15143718212316698
9.40000000000023,0.41127278709833814,0.16124266694036932
9.600000000000119,0.4194134546208389,0.17610307920741095
9.800000000000008,0.42938985805602115,0.1887400884214776
10.000999999999896,0.4387575104284123,0.20084990793875376
10.200999999999786,0.4404763998731248,0.21605926485517962
10.400999999999675,0.44296349406381147,0.2293326109501463
10.600999999999564,0.4437790803367678,0.23777911696843576
10.800999999999453,0.44291660879538053,0.24583035777535728
11.000999999999342,0.4504328781203611,0.2524734384871655
11.200999999999231,0.45818834019373456,0.2630130245892273
11.40099999999912,0.4666625132475507,0.27740888819073056
11.60099999999901,0.4728112982985683,0.2934092444987259
11.800999999998899,0.4732192642025127,0.3085276061067931
12.000999999998788,0.4741621407209363,0.32191657709579913
12.200999999998677,0.48163172755254857,0.3380295561612309
12.400999999998566,0.48706110248542767,0.3577175082810682
12.600999999998455,0.4895882932268623,0.37321872639812526
12.800999999998345,0.5039904072529003,0.38503797004068396
13.000999999998234,0.5175692418991975,0.3972366713689776
13.200999999998123,0.5228764959387622,0.4095447173741685
13.400999999998012,0.5314159202681982,0.4263072048608903
13.600999999997901,0.5388705869429076,0.4394504164729796
13.80099999999779,0.5460044126217702,0.4541751595766223
14.00099999999768,0.545459049922458,0.46739698694408266
14.200999999997569,0.5463750994437835,0.48249713406760975
14.400999999997458,0.5526175464926844,0.4985391262102824
14.600999999997347,0.5495135609554926,0.5124640373801924
14.800999999997236,0.5554674988637504,0.5290977281038032
15.000999999997125,0.5602671033247183,0.5487469208065132
15.200999999997014,0.5572729792557392,0.5669113185328818
15.400999999996904,0.5594714336505404,0.582450788849974
15.600999999996793,0.5656430218267812,0.5974523989283439
15.800999999996682,0.5705521946716288,0.6120502248657971
16.000999999996573,0.5781983325169495,0.6240600145854284
16.200999999996817,0.5834672583716651,0.6394403269606613
16.40099999999706,0.5970650275739733,0.6494671467343376
16.600999999997306,0.6009524980635826,0.6525690615790362
16.80099999999755,0.6063746941532941,0.6607763356693677
17.000999999997795,0.6163966558040898,0.6710061836629493
17.20099999999804,0.6306082841632557,0.6820797275032292
17.400999999998284,0.6303511653372392,0.6989131684266018
17.60099999999853,0.6297688379251521,0.7144387212758954
17.800999999998773,0.6316952297144826,0.7293022208716797
18.000999999999017,0.6377481498357708,0.7405874050296872
18.20099999999926,0.6450705045780435,0.7480055519108142
18.400999999999506,0.6484646318940696,0.7593341105085439
18.60099999999975,0.656684952565901,0.7699720900448467
18.799999999999994,0.6557160750438162,0.7782832024645803
19.000000000000238,0.6620894650848822,0.7904435238192143
19.200000000000482,0.6777875435537185,0.7942807263852808
19.400000000000727,0.6777456508215596,0.801380276139221
19.60000000000097,0.684950985437714,0.8082067506413108
19.800000000001216,0.6869686769750897,0.820575902537693
20.00000000000146,0.6969219683045423,0.8357162715393639
