Time (s),X (m),Y (m)
0.001,-0.00036712694553334884,-0.000663019509439443
0.20000000000000015,0.002484543923471941,0.0010232247931205498
0.4000000000000003,0.007650327698052317,0.0008170937672260599
0.6000000000000004,0.017875519795371494,0.005551784578781127
0.8000000000000006,0.029399927883286613,0.0086124654254003
1.0000000000000007,0.03516979857753903,0.010439985699837293
1.2009999999999785,0.04437572966288023,0.014844801321049246
1.4009999999999565,0.06431612469887416,0.02741433217143198
1.6009999999999345,0.07778719452601793,0.03442718841372335
1.8009999999999124,0.10038265946848149,0.04220201872371006
2.0009999999998906,0.1188662479699683,0.048782990548786626
2.2009999999998686,0.14659268445093487,0.048200097499911006
2.4009999999998466,0.1661243068104318,0.04019561679952154
2.6009999999998246,0.2004119559183517,0.025135846929919475
2.8009999999998025,0.23427091751640347,0.002602630403491187
3.0009999999997805,0.2704093431309883,-0.027691074403631093
3.2009999999997585,0.2868488349151995,-0.05439120147910569
3.4009999999997365,0.2982271123873888,-0.0838817626567199
3.6009999999997144,0.3168510694312679,-0.11579845476388091
3.8009999999996924,0.3350475505788039,-0.14924368934074012
4.000999999999671,0.36056681334089025,-0.19019180422883436
4.200999999999738,0.3874546096209208,-0.23629860453271778
4.400999999999804,0.40664259002405817,-0.2700085312783706
4.600999999999871,0.42764544999423526,-0.3109192021090268
4.800999999999938,0.4486079162229949,-0.36332150046405753
5.000000000000004,0.4675397528742045,-0.4193615290076207
5.200000000000071,0.48385810253896366,-0.47540085742287685
5.400000000000138,0.5042003233565125,-0.5316679460041761
5.600000000000205,0.5245269663804721,-0.5842381686622723
5.800000000000272,0.5381812865947925,-0.6201235754820573
6.000000000000338,0.5289402025678781,-0.6414486411972025
6.200000000000405,0.5017331718501369,-0.6730633762840739
6.400000000000472,0.45558631449894427,-0.7183543694037389
6.600000000000539,0.4027449212722055,-0.7613617057280012
6.800000000000606,0.3518630992841925,-0.7942343694918964
7.000000000000672,0.2992763172575672,-0.8281990512013114
7.200000000000739,0.2363334471835585,-0.8632060621288988
7.400000000000806,0.1778185135479172,-0.8926817611743204
7.600000000000873,0.118166387196587,-0.923555879380637
7.8000000000009395,0.06430291637709995,-0.9404601536242178
8.000000000001005,0.011517239650664117,-0.9404867546885428
8.200000000000895,-0.033013157871433364,-0.9265850153342423
8.400000000000784,-0.07726669607740605,-0.9061881201426149
8.600000000000673,-0.12447638067969317,-0.8759176851445396
8.800000000000562,-0.17231853309165274,-0.8357459387880102
9.000000000000451,-0.2195099063056821,-0.7827400278857343
9.20000000000034,-0.25833545891888093,-0.7270349888835057
9.40000000000023,-0.30604475902174316,-0.6688197221877934
9.600000000000119,-0.3485932564770478,-0.6072237341509069
9.800000000000008,-0.40095972246333056,-0.5412324370388015
10.000999999999896,-0.45856521431822966,-0.47265642330006097
10.200999999999786,-0.5011448305967525,-0.40622136740484843
10.400999999999675,-0.5441243061025148,-0.3425040051055657
10.600999999999564,-0.5904798212936536,-0.28411047950622137
10.800999999999453,-0.6238480703864764,-0.22803231576845417
11.000999999999342,-0.6663621254647034,-0.1671525037775075
11.200999999999231,-0.7213241074702966,-0.09966201548892958
11.40099999999912,-0.780719625873832,-0.029499085384458664
11.60099999999901,-0.850036314992177,0.04868079112676761
11.800999999998899,-0.9094954561092018,0.1222259976380333
12.000999999998788,-0.9586698032122686,0.1807369234192505
12.200999999998677,-1.0040218215607482,0.2254872708524005
12.400999999998566,-1.0381250336103602,0.2624239938891814
12.600999999998455,-1.0800040696801478,0.29008384609943505
12.800999999998345,-1.1384239223793082,0.3088485308447802
13.000999999998234,-1.2080451744855807,0.31955534707909883
13.200999999998123,-1.2673032482953877,0.3349365746440064
13.400999999998012,-1.322382441459848,0.36695221434224967
13.600999999997901,-1.378826273458658,0.41200812085218513
13.80099999999779,-1.446049581247649,0.46655295240399824
14.00099999999768,-1.5127269583430507,0.525031955988624
14.200999999997569,-1.5696512775985696,0.5863553323175204
14.400999999997458,-1.6138403702315482,0.6477481328215295
14.600999999997347,-1.6630077567011468,0.7109290715528872
14.800999999997236,-1.725592577288434,0.7836902029795009
15.000999999997125,-1.7943905389428145,0.8607076790774986
15.200999999997014,-1.8635636542563254,0.941673068759865
15.400999999996904,-1.9269992097717672,1.0200227136098063
15.600999999996793,-1.9869036836731888,1.0968626942567903
15.800999999996682,-2.045323378967577,1.1723505587954464
16.000999999996573,-2.111214205917535,1.243019719150742
16.200999999996817,-2.1790215816158143,1.3051144053577035
16.40099999999706,-2.2398258226754777,1.3677055369487259
16.600999999997306,-2.3082445377994163,1.4337728126385445
16.80099999999755,-2.374457670742356,1.508466576751555
17.000999999997795,-2.4337976986614334,1.5875452506882193
17.20099999999804,-2.483195364681963,1.6686442660737557
17.400999999998284,-2.5224407600581,1.7496897449549969
17.60099999999853,-2.5407446550559616,1.8167157896066886
17.800999999998773,-2.532675930756665,1.861912184026527
18.000999999999017,-2.491724713317423,1.9067023990199419
18.20099999999926,-2.4337973613814787,1.9515583524502513
18.400999999999506,-2.3669695475157346,1.9932180884216997
18.60099999999975,-2.2925813057121314,2.039136513691897
18.799999999999994,-2.217143432607448,2.0809468589961346
19.000000000000238,-2.141571689608067,2.1280142119468657
19.200000000000482,-2.0690455027827737,2.1765271587999417
19.400000000000727,-1.9981274657617916,2.2286678418198282
19.60000000000097,-1.9286561755380347,2.27385522025916
19.800000000001216,-1.854585747139476,2.3192074186985927
20.00000000000146,-1.7770336971414582,2.3841175464714666
