Time (s),X (m),Y (m)
0.001,-0.000592775884969954,0.00017911379721200063
0.20000000000000015,0.0005952415759241691,-0.000274888572252423
0.4000000000000003,0.012349950624348075,0.0015324683925657483
0.6000000000000004,0.02706357814001526,0.0038205250748745297
0.8000000000000006,0.036948700397555205,0.0010214341768288288
1.0000000000000007,0.05620735983891375,-0.005464479246773829
1.2009999999999785,0.07913935950359656,-0.0140087483267573
1.4009999999999565,0.1021884782496256,-0.02176233239563987
1.6009999999999345,0.1337154702016606,-0.03361121275402193
1.8009999999999124,0.1648255869185197,-0.04896761090386836
2.0009999999998906,0.19538273508642442,-0.06594221581715187
2.2009999999998686,0.21480678716184362,-0.09087685363877597
2.4009999999998466,0.22223006695751035,-0.11438860819137588
2.6009999999998246,0.2150524186481761,-0.14238496930601557
2.8009999999998025,0.19136633635425265,-0.1801856807129774
3.0009999999997805,0.16561901105893068,-0.2127531680223074
3.2009999999997585,0.13204611886695689,-0.23655339752502622
3.4009999999997365,0.08603777226235514,-0.2549717632676468
3.6009999999997144,0.03356946274722822,-0.2562267700577538
3.8009999999996924,-0.014087206212510646,-0.2489216398701642
4.000999999999671,-0.054523175501514254,-0.2356945487232016
4.200999999999738,-0.08484628508053775,-0.19901981823923115
4.400999999999804,-0.09887771254557541,-0.1619321511304128
4.600999999999871,-0.10281754590803968,-0.13034877920713833
4.800999999999938,-0.09812726725742506,-0.10042341002782114
5.000000000000004,-0.08932736990687645,-0.06278398431685334
5.200000000000071,-0.07032080198454356,-0.021562281009926913
5.400000000000138,-0.033746953667608076,0.02200296027458137
5.600000000000205,0.013297724930253668,0.056244372505278396
5.800000000000272,0.06332389357759532,0.07503935686557611
6.000000000000338,0.11798247863409875,0.08275563690317929
6.200000000000405,0.17488445359237423,0.07357360782661435
6.400000000000472,0.23119764235729506,0.05792931673499205
6.600000000000539,0.29037805995821236,0.03584118468046392
6.800000000000606,0.3415197968034834,0.012502102932065877
7.000000000000672,0.39119511078733654,-0.026391975438867638
7.200000000000739,0.4402632544486375,-0.07601402376724373
7.400000000000806,0.47046192758939054,-0.12716982414557126
7.600000000000873,0.4752066513500366,-0.18051500060428655
7.8000000000009395,0.4605598028121766,-0.2368268680702073
8.000000000001005,0.4342360015584376,-0.2951774269426178
8.200000000000895,0.40304467100797436,-0.3498158316153571
8.400000000000784,0.37747113450597836,-0.39666156321628304
8.600000000000673,0.34811542477039475,-0.44720393472893333
8.800000000000562,0.30787167651210057,-0.5022975520235197
9.000000000000451,0.25682966849746636,-0.5512802142651192
9.20000000000034,0.22648800326317148,-0.5860644675108848
9.40000000000023,0.19491540374158497,-0.6000266462887428
9.600000000000119,0.15269788269231194,-0.5996142878946107
9.800000000000008,0.11499216241103834,-0.5908874515927505
10.000999999999896,0.08471910630890848,-0.5799414113967652
10.200999999999786,0.038324343037671044,-0.5624841796729751
10.400999999999675,-0.024370081475357512,-0.5412409347904414
10.600999999999564,-0.10426501196531923,-0.511752341105287
10.800999999999453,-0.17926421281638422,-0.47436085813264295
11.000999999999342,-0.25242000195842645,-0.41936281045946805
11.200999999999231,-0.32242761881045856,-0.3496874649531982
11.40099999999912,-0.3814827345563301,-0.28050235718951805
11.60099999999901,-0.41302799148879055,-0.21591331637389072
11.800999999998899,-0.41001221239082686,-0.15318150018601925
12.000999999998788,-0.38939487751472013,-0.09098518864850112
12.200999999998677,-0.34983344245717646,-0.03039532389713266
12.400999999998566,-0.30372845954447597,0.013639839658019414
12.600999999998455,-0.25478725164416427,0.026144495708432552
12.800999999998345,-0.204819202831459,0.014396657835340552
13.000999999998234,-0.16128687773917852,-0.013067769915641242
13.200999999998123,-0.13936003720056214,-0.0521327808891782
13.400999999998012,-0.13973743698001342,-0.09334069819446579
13.600999999997901,-0.1549597562397726,-0.13706255035653872
13.80099999999779,-0.18975525275325675,-0.18757128192142178
14.00099999999768,-0.2416974421624882,-0.23532647030237014
14.200999999997569,-0.2978559660011513,-0.2678000562126429
14.400999999997458,-0.36632491201612855,-0.28170390475040685
14.600999999997347,-0.43501443975900783,-0.27415549055197685
14.800999999997236,-0.5058350383323824,-0.24909513460475324
15.000999999997125,-0.5768604166054722,-0.21294625338451192
15.200999999997014,-0.6450131343616585,-0.15407249152706615
15.400999999996904,-0.6926475460389905,-0.09227310289342794
15.600999999996793,-0.7139583336757248,-0.03333179569231512
15.800999999996682,-0.705505400641862,0.025418514459625223
16.000999999996573,-0.6741122648992215,0.09116449136405133
16.200999999996817,-0.6372112910879725,0.1526779715849443
16.40099999999706,-0.5887087719128755,0.21045080881958786
16.600999999997306,-0.5310060135586611,0.2519842975394325
16.80099999999755,-0.4802343089618926,0.2620148645428691
17.000999999997795,-0.4184729595798871,0.24481024776851212
17.20099999999804,-0.3520681397963481,0.21502696922585382
17.400999999998284,-0.28797582749101264,0.18173957485214456
17.60099999999853,-0.22266101050734222,0.13814936904403233
17.800999999998773,-0.1568625133118143,0.09200112347954587
18.000999999999017,-0.10356136292454433,0.05000158941572171
18.20099999999926,-0.07578534765571653,0.005013878456048317
18.400999999999506,-0.07893389146143365,-0.048027754447493916
18.60099999999975,-0.09706702730582031,-0.10090218232633295
18.799999999999994,-0.13410517597199562,-0.14684274660408211
19.000000000000238,-0.1869215049290337,-0.1681603913229236
19.200000000000482,-0.24849088883749426,-0.16174164572006697
19.400000000000727,-0.3070163840259799,-0.14026950636150823
19.60000000000097,-0.3653960374980812,-0.1101782120890882
19.800000000001216,-0.42595472912549165,-0.06479200838424282
20.00000000000146,-0.49276298036596444,-0.006204074967021356
