Time (s),X (m),Y (m)
0.001,-0.00036712694553334884,-0.000663019509439443
0.20000000000000015,0.00099306197812433,0.00012408104373291787
0.4000000000000003,0.0028249056746469364,0.0009843832082678397
0.6000000000000004,0.006325887041666611,0.0018569157352664686
0.8000000000000006,0.010299389760067232,0.0021002152243553298
1.0000000000000007,0.011886792970838871,0.0023893508359095466
1.2009999999999785,0.015530952066672907,0.007678391001865111
1.4009999999999565,0.01856053938903424,0.011339691180913289
1.6009999999999345,0.02560075392633114,0.018069589750904686
1.8009999999999124,0.030669620023353213,0.019275218570915992
2.0009999999998906,0.03810394161327118,0.023537082017129857
2.2009999999998686,0.042831436925412726,0.025363354335341554
2.4009999999998466,0.05135456417870975,0.030270934087411064
2.6009999999998246,0.059322683858269644,0.0392221190218653
2.8009999999998025,0.0692806633034986,0.048879431609358294
3.0009999999997805,0.08020947132968291,0.061637909315378665
3.2009999999997585,0.08888680326792657,0.07129500266721232
3.4009999999997365,0.09816168551839455,0.07859229507601866
3.6009999999997144,0.10546439991956404,0.07970442427509243
3.8009999999996924,0.11091025921064222,0.08597482031129863
4.000999999999671,0.1138940560392934,0.08845710243962929
4.200999999999738,0.11925847328494583,0.09211500815808017
4.400999999999804,0.12634463677362487,0.09914038870146226
4.600999999999871,0.131982970337539,0.10358938351731782
4.800999999999938,0.138553712632485,0.11138645165322304
5.000000000000004,0.14295362038860565,0.12046986886352765
5.200000000000071,0.14613756289555427,0.12791725864167378
5.400000000000138,0.15019338400331617,0.13598495249309708
5.600000000000205,0.15824667692006814,0.141683636141612
5.800000000000272,0.1649969142622761,0.14869136575552802
6.000000000000338,0.1693842937982803,0.156686528288969
6.200000000000405,0.17366448540815713,0.15844217239651304
6.400000000000472,0.17806355900478793,0.16233993871402505
6.600000000000539,0.18372509666238787,0.17337934115479028
6.800000000000606,0.1872854027959604,0.18745902445126492
7.000000000000672,0.1912677305739991,0.19578974896285795
7.200000000000739,0.19486228339602635,0.19913215902746575
7.400000000000806,0.1990796658962461,0.2108428897291176
7.600000000000873,0.20310661887253756,0.229758859277247
7.8000000000009395,0.20734160631761153,0.24267343542726535
8.000000000001005,0.20745436313713939,0.2543406154852017
8.200000000000895,0.20409094521303223,0.26814086806066134
8.400000000000784,0.20370000130000906,0.27938024113119214
8.600000000000673,0.20178908113856378,0.29560623688669313
8.800000000000562,0.20031104106242503,0.3138326999387358
9.000000000000451,0.20157526320654987,0.32237311660051154
9.20000000000034,0.20297910766024033,0.326700736602786
9.40000000000023,0.200669110426544,0.3411875551906246
9.600000000000119,0.1987721167455672,0.3551675407819716
9.800000000000008,0.1994015353002204,0.3663781595350971
10.000999999999896,0.19806551866948346,0.3789630377818638
10.200999999999786,0.1924667995035803,0.3926637940360085
10.400999999999675,0.18799240973100706,0.40237038199581215
10.600999999999564,0.18119602439160912,0.41932495166592104
10.800999999999453,0.17440108754523936,0.4365174877854458
11.000999999999342,0.1649498218715637,0.4546301713817204
11.200999999999231,0.15591405177704737,0.473540402046212
11.40099999999912,0.14822138576353938,0.49123195178326157
11.60099999999901,0.14026891103906652,0.5082038349400175
11.800999999998899,0.13578051165298477,0.5224518553064503
12.000999999998788,0.12860181958850334,0.5348537966264877
12.200999999998677,0.11886746939017448,0.5492227587990954
12.400999999998566,0.11071402937034543,0.563903146486056
12.600999999998455,0.09728137467499137,0.5798102011487195
12.800999999998345,0.08877099242320813,0.5940697483032625
13.000999999998234,0.07789444296072519,0.6072612305793625
13.200999999998123,0.0611845593601774,0.6169316311963703
13.400999999998012,0.049236875239908155,0.6275559525747985
13.600999999997901,0.03622938931550418,0.6379516800189842
13.80099999999779,0.019149490026913987,0.6455345419066729
14.00099999999768,0.008842712260144452,0.6519527853104944
14.200999999997569,-0.003793309595246329,0.6583003371153786
14.400999999997458,-0.01672373728644566,0.6638599334535304
14.600999999997347,-0.02929621842098899,0.6711918523150643
14.800999999997236,-0.04123390839415978,0.676300009823812
15.000999999997125,-0.05460659890598725,0.6864539437338409
15.200999999997014,-0.06438328698845926,0.6946123041424597
15.400999999996904,-0.07907517755431218,0.6998419310761862
15.600999999996793,-0.09584991368556747,0.7011054340551718
15.800999999996682,-0.10646999222761963,0.7000859871427265
16.000999999996573,-0.12048621802936346,0.6999631808431815
16.200999999996817,-0.13607566727004927,0.6997607444395207
16.40099999999706,-0.15548339378155895,0.6971850485461886
16.600999999997306,-0.1712878641538394,0.6952757411403248
16.80099999999755,-0.18332369441025662,0.6964153095163854
17.000999999997795,-0.1957436134239688,0.6957301558948651
17.20099999999804,-0.21402054795462833,0.6909867755677996
17.400999999998284,-0.2298380007393779,0.6904826328009415
17.60099999999853,-0.2449922187331657,0.6871923133721087
17.800999999998773,-0.2601738298808729,0.6826380381088476
18.000999999999017,-0.2814449958007085,0.673894266971333
18.20099999999926,-0.3020183259509691,0.6673719851731245
18.400999999999506,-0.3185723717176883,0.6607359909598369
18.60099999999975,-0.3336682260324005,0.6560006062267326
18.799999999999994,-0.34788468935934447,0.651959764627282
19.000000000000238,-0.36303677480897023,0.642665521117413
19.200000000000482,-0.3790145093982503,0.6345789229496829
19.400000000000727,-0.3933850385008995,0.6237043466507245
19.60000000000097,-0.4090808555924188,0.6105204997265778
19.800000000001216,-0.4230586793239536,0.597470576343647
20.00000000000146,-0.43385376595913927,0.584151680161191
