Time (s),X (m),Y (m)
0.001,-0.0005118051130574269,0.0004359202765531096
0.20000000000000015,0.0017724138050461901,-0.0015604779790997208
0.4000000000000003,0.004331808202736496,-0.0029083396244354554
0.6000000000000004,0.012826774645675764,-0.005883961226075583
0.8000000000000006,0.030790377040170257,-0.011193549750719548
1.0000000000000007,0.054029993796363904,-0.02188887397961362
1.2009999999999785,0.07741474266110819,-0.030113745718701034
1.4009999999999565,0.0920898279001668,-0.04909089955814384
1.6009999999999345,0.10616301310322354,-0.06476495939691769
1.8009999999999124,0.10930826108458207,-0.08821147531112654
2.0009999999998906,0.10017167862080925,-0.117949491399318
2.2009999999998686,0.09243068387701778,-0.151056675822961
2.4009999999998466,0.08883957978268078,-0.18160061851439518
2.6009999999998246,0.07853473334301395,-0.213435634850998
2.8009999999998025,0.0584952486966428,-0.24665940066710815
3.0009999999997805,0.021848631095489734,-0.270011297671335
3.2009999999997585,-0.023808092169767932,-0.27400015341682554
3.4009999999997365,-0.07114729827590023,-0.2613193061475263
3.6009999999997144,-0.11248311969424342,-0.24139070062260953
3.8009999999996924,-0.16221899425729822,-0.20882824557288915
4.000999999999671,-0.21683277285713856,-0.17710297679171003
4.200999999999738,-0.2721933587520065,-0.1437809824041527
4.400999999999804,-0.32576750500218654,-0.11386964134512492
4.600999999999871,-0.3833502489115564,-0.08221340729679903
4.800999999999938,-0.4343545792000891,-0.060714531321122596
5.000000000000004,-0.4880626156953546,-0.03896799254892356
5.200000000000071,-0.5486481354340232,-0.010678418061684547
5.400000000000138,-0.6058454607082254,0.029266855956505463
5.600000000000205,-0.6522328853343685,0.06561366896171568
5.800000000000272,-0.6731217815220478,0.10675575990979198
6.000000000000338,-0.6722939122483802,0.15976228282615917
6.200000000000405,-0.653583787514873,0.2140869442953605
6.400000000000472,-0.6189710281728923,0.2509346240792279
6.600000000000539,-0.5766748188136088,0.262719735984148
6.800000000000606,-0.5302458605887562,0.2509093078276016
7.000000000000672,-0.4886091447662417,0.22348878183163412
7.200000000000739,-0.46383455264553025,0.18661249615701084
7.400000000000806,-0.44846231866372255,0.14806936409915586
7.600000000000873,-0.44223076823950375,0.10833260959110243
7.8000000000009395,-0.4395424124325791,0.06503537208007766
8.000000000001005,-0.45082505241509446,0.0065472221775416265
8.200000000000895,-0.46787222997177524,-0.051114287223499866
8.400000000000784,-0.49704662677073425,-0.10786316873714155
8.600000000000673,-0.5430459442746446,-0.15410855141728436
8.800000000000562,-0.5882865738904338,-0.17430043300589657
9.000000000000451,-0.6433596408231005,-0.15967667005181924
9.20000000000034,-0.6918446742427857,-0.12923228337424
9.40000000000023,-0.7175154720534991,-0.0870951222829556
9.600000000000119,-0.7181269580017186,-0.03483316997760669
9.800000000000008,-0.7078966868594564,0.01458801736710403
10.000999999999896,-0.6917129184519859,0.06365211387934551
10.200999999999786,-0.6706782753565043,0.13054455401150353
10.400999999999675,-0.6395627080503551,0.20171693476244382
10.600999999999564,-0.5969810568644847,0.2809243801928892
10.800999999999453,-0.550671924628473,0.3532354439071834
11.000999999999342,-0.4890327159621423,0.39856185606055516
11.200999999999231,-0.42716067859136997,0.4119046868788199
11.40099999999912,-0.36596038250792273,0.40993723266023646
11.60099999999901,-0.2978579324367804,0.3915227817281684
11.800999999998899,-0.22833806986477606,0.36301429717842265
12.000999999998788,-0.1695718941308822,0.32520743180267603
12.200999999998677,-0.13963619137534578,0.28197465960541773
12.400999999998566,-0.13415452014790813,0.23418481370460642
12.600999999998455,-0.1406841247376456,0.19033779347322988
12.800999999998345,-0.1710381756970073,0.17366587323287938
13.000999999998234,-0.2088266279478916,0.173090537383777
13.200999999998123,-0.26523595196799404,0.19034537364632464
13.400999999998012,-0.3213421756245118,0.2108087073403511
13.600999999997901,-0.37103000682021975,0.2459828345320533
13.80099999999779,-0.40002825942963177,0.2969548438937668
14.00099999999768,-0.40974126381668424,0.3531065207859304
14.200999999997569,-0.4049968131714803,0.40827056374185977
14.400999999997458,-0.39680601072151983,0.4597531189499112
14.600999999997347,-0.3787085981175081,0.5164875846879883
14.800999999997236,-0.3521240085512933,0.5754131109317414
15.000999999997125,-0.3201100697831299,0.6351495731801364
15.200999999997014,-0.2909766127575176,0.6938034213561637
15.400999999996904,-0.2505467152289423,0.750313612184993
15.600999999996793,-0.20756876812596106,0.8061764720751045
15.800999999996682,-0.17113661639654182,0.8608049166095167
16.000999999996573,-0.13210015364177954,0.8848459853663504
16.200999999996817,-0.08411139382002934,0.8783207690970262
16.40099999999706,-0.033457522796750634,0.855549552043816
16.600999999997306,0.008606939729835263,0.8093328179533426
16.80099999999755,0.034231261499388065,0.7666975695156174
17.000999999997795,0.04363839284126046,0.7252389505624198
17.20099999999804,0.030743605608990275,0.6691931588836632
17.400999999998284,0.003135957753836221,0.6050077653891246
17.60099999999853,-0.03500579113842289,0.5327901770663869
17.800999999998773,-0.07795461525813263,0.4549019069205328
18.000999999999017,-0.11763108184134441,0.3808498255555624
18.20099999999926,-0.1567579699612043,0.3119321910927866
18.400999999999506,-0.19397594536733107,0.2615765929503816
18.60099999999975,-0.23555446117410384,0.24102266306293976
18.799999999999994,-0.286895128585867,0.24748411774935886
19.000000000000238,-0.34236208202550084,0.26472790615015085
19.200000000000482,-0.39115092812455965,0.30137172065056816
19.400000000000727,-0.4175157793872459,0.3479827044616627
19.60000000000097,-0.4203643173068603,0.4044752504869747
19.800000000001216,-0.402242349029722,0.4652751924038663
20.00000000000146,-0.3759169358762352,0.530571487819877
