Time (s),X (m),Y (m)
0.001,0.0009387665610552813,-0.0008932837685830058
0.20000000000000015,0.0005937661479012619,0.0008072016417366068
0.4000000000000003,0.0038740428714222033,0.0014410043978173056
0.6000000000000004,0.010390269386452558,0.002780853331107199
0.8000000000000006,0.016175584505466703,0.004760209187185919
1.0000000000000007,0.02303631693072562,0.006052409985576529
1.2009999999999785,0.03303921203067078,0.01614174072827976
1.4009999999999565,0.04675377210832681,0.02577577922138583
1.6009999999999345,0.06439498902037208,0.01841320820940289
1.8009999999999124,0.07874793030554358,0.02018622941247153
2.0009999999998906,0.09374666738093115,0.008119849056758064
2.2009999999998686,0.1082739861335419,-0.004296385981130083
2.4009999999998466,0.12055371293518918,-0.021074566028670808
2.6009999999998246,0.13330876214909623,-0.03682438244677913
2.8009999999998025,0.14652109415579226,-0.048664592584608576
3.0009999999997805,0.15899370901045853,-0.06604846634844598
3.2009999999997585,0.1716267701880074,-0.07772209943634037
3.4009999999997365,0.18954130048945061,-0.09500100564092112
3.6009999999997144,0.207081458315026,-0.12053540388881054
3.8009999999996924,0.22828934996771982,-0.11782324213978283
4.000999999999671,0.24393589992457798,-0.11511453920499203
4.200999999999738,0.2586538273193953,-0.11815053485024671
4.400999999999804,0.2720617537151802,-0.1282073750578704
4.600999999999871,0.2858655581813036,-0.14044796963609418
4.800999999999938,0.3010114909403991,-0.1635133326636404
5.000000000000004,0.3179252697184079,-0.18545685783541097
5.200000000000071,0.3351713593125561,-0.204073376568708
5.400000000000138,0.3450578584446054,-0.22408818749284753
5.600000000000205,0.3562290098185166,-0.23391705207667932
5.800000000000272,0.36380974869977345,-0.2498633696444207
6.000000000000338,0.37040190188489075,-0.2554445317728674
6.200000000000405,0.37805819494218545,-0.26329966339383726
6.400000000000472,0.3872615402565019,-0.2867601193164128
6.600000000000539,0.4038121976917275,-0.30389875811163886
6.800000000000606,0.4198745901217145,-0.3219654360370213
7.000000000000672,0.4316099724454113,-0.3523206107030881
7.200000000000739,0.44047902734003846,-0.3827672874238405
7.400000000000806,0.44728420079664283,-0.41397986994839536
7.600000000000873,0.4547763534334252,-0.44677170007096
7.8000000000009395,0.46610502326481523,-0.46799201016800757
8.000000000001005,0.4832820446210573,-0.4778949215009411
8.200000000000895,0.5018230367363073,-0.4842978077824765
8.400000000000784,0.5185996293085953,-0.5008401693158393
8.600000000000673,0.530288499668255,-0.5190011717828502
8.800000000000562,0.5354907966117876,-0.549910155264067
9.000000000000451,0.5481436817718193,-0.5614225846515574
9.20000000000034,0.56507659062987,-0.5696453566969232
9.40000000000023,0.5852833904266787,-0.5701017241863399
9.600000000000119,0.6075887408790381,-0.5689841878210291
9.800000000000008,0.6205789209306879,-0.5843890639697786
10.000999999999896,0.6269028461722701,-0.6046287565113033
10.200999999999786,0.6331857280783728,-0.6210835126517673
10.400999999999675,0.6427445746538499,-0.6337590194003445
10.600999999999564,0.6502502739723066,-0.6568756658553333
10.800999999999453,0.6556383059613403,-0.6775992261807268
11.000999999999342,0.6608239776302197,-0.6930596809435648
11.200999999999231,0.6685835015458247,-0.7170389910772087
11.40099999999912,0.6811034391123276,-0.7432209657307879
11.60099999999901,0.6967631711731567,-0.767682937691034
11.800999999998899,0.7065003432371588,-0.7976585341122296
12.000999999998788,0.7146037896019841,-0.8284388374293644
12.200999999998677,0.726580220673422,-0.8416356999751222
12.400999999998566,0.7452828827160486,-0.8524867518278834
12.600999999998455,0.7699936794038859,-0.8610895869570827
12.800999999998345,0.7945185156821208,-0.8765926815655
13.000999999998234,0.8108131233541217,-0.8966295429793903
13.200999999998123,0.8233971043671445,-0.9220425415668909
13.400999999998012,0.8342015891831818,-0.9458061825853198
13.600999999997901,0.8429243414614306,-0.9676825053420998
13.80099999999779,0.8486142253565917,-0.978095250995589
14.00099999999768,0.8629360473339384,-0.9842586943918835
14.200999999997569,0.8811237172627565,-0.9990439964427054
14.400999999997458,0.8945756435055635,-1.018137191275814
14.600999999997347,0.9077788644902143,-1.0312524752471812
14.800999999997236,0.9215747676034133,-1.0585872013549218
15.000999999997125,0.9308262053079316,-1.082275184091595
15.200999999997014,0.9373399179291949,-1.0948225370300462
15.400999999996904,0.9462908999599834,-1.1003829654598838
15.600999999996793,0.9588396854768585,-1.119886545084961
15.800999999996682,0.967342156325783,-1.1531073549870394
16.000999999996573,0.977721948233823,-1.1765054484378448
16.200999999996817,0.9901478344932151,-1.1986645450613136
16.40099999999706,0.9988794008905207,-1.2209891145830676
16.600999999997306,1.008967735626315,-1.233711179828265
16.80099999999755,1.0178199662278833,-1.2492285274393229
17.000999999997795,1.0301292091328886,-1.277639662243622
17.20099999999804,1.040947473229144,-1.3116224416655264
17.400999999998284,1.048677154602608,-1.3492830404480005
17.60099999999853,1.05869160138711,-1.3831524256636725
17.800999999998773,1.072219717918541,-1.4090573878690258
18.000999999999017,1.0858261829763998,-1.434028056981774
18.20099999999926,1.101006088303837,-1.4523453527051045
18.400999999999506,1.1162578653143822,-1.4714841488014323
18.60099999999975,1.1302013019219674,-1.5107986052444509
18.799999999999994,1.1342545380048175,-1.550400744315654
19.000000000000238,1.135853554035576,-1.572304081872686
19.200000000000482,1.1398035673869418,-1.5916035355311415
19.400000000000727,1.1446030676704537,-1.6214545242380642
19.60000000000097,1.1493071007768032,-1.6488294940952564
19.800000000001216,1.1616629792919193,-1.6828236578123368
20.00000000000146,1.1760258616452461,-1.7035726322031062
