Time (s),X (m),Y (m)
0.001,-0.00023999057263828476,-0.0007901558823345064
0.20000000000000015,0.0009033564794200952,0.0001613888728278597
0.4000000000000003,0.0011407273030404844,-0.00016838323640637536
0.6000000000000004,0.0018022669083775362,0.0001412377031570746
0.8000000000000006,0.002718101942170612,0.0007281435992988886
1.0000000000000007,0.0034719030869749196,0.0010877822108422875
1.2009999999999785,0.004230274682512779,0.0014575546178291461
1.4009999999999565,0.005035327523100145,0.0019529277244439117
1.6009999999999345,0.005885874046426492,0.0025425531973028276
1.8009999999999124,0.0067460040018289934,0.003140724505539118
2.0009999999998906,0.007605252026604338,0.00372687330573217
2.2009999999998686,0.008475292303927767,0.004323938815748576
2.4009999999998466,0.009357036327317138,0.004948632097698576
2.6009999999998246,0.01024878464616121,0.005608708679370571
2.8009999999998025,0.01114937131418966,0.006302101694721414
3.0009999999997805,0.012056605778227474,0.007019311166420331
3.2009999999997585,0.012969617467496215,0.007754113578997764
3.4009999999997365,0.01388760885844311,0.00850543059587611
3.6009999999997144,0.014811092953047444,0.009274750321153609
3.8009999999996924,0.015739244321119873,0.010062706191182592
4.000999999999671,0.01667182351953069,0.010868800521484983
4.200999999999738,0.017608484805183025,0.011692386038270403
4.400999999999804,0.018549021575758013,0.012532197621258645
4.600999999999871,0.019493124985580177,0.013387240437677844
4.800999999999938,0.020440353265958906,0.014256978785461463
5.000000000000004,0.021396819550285114,0.015160590410497485
5.200000000000071,0.02234863503073972,0.016058283591880964
5.400000000000138,0.023302375919958665,0.016969193082131576
5.600000000000205,0.024257898331758832,0.017892864031598336
5.800000000000272,0.02521529182762494,0.01882893518659283
6.000000000000338,0.026174157939509723,0.01977687581422188
6.200000000000405,0.027134157891892025,0.020736285278794637
6.400000000000472,0.028094937966074644,0.021706868956300224
6.600000000000539,0.0290561706826397,0.022688381517546492
6.800000000000606,0.03001733708852498,0.02368044947945147
7.000000000000672,0.030978192226447165,0.02468269991191384
7.200000000000739,0.031937631458610165,0.02569420254785153
7.400000000000806,0.032893298010928516,0.0267133768145229
7.600000000000873,0.03384420011145604,0.027739836014554223
7.8000000000009395,0.034790112449906756,0.028773493235561297
8.000000000001005,0.035730737789287544,0.029814196160286962
8.200000000000895,0.03666575838035246,0.03086184608640192
8.400000000000784,0.03759514921636585,0.031916323910291255
8.600000000000673,0.03851872309684548,0.032977438652384526
8.800000000000562,0.039436238629862154,0.034045007666992234
9.000000000000451,0.04034753470275707,0.03511886754973807
9.20000000000034,0.04125259861373156,0.03619894253220967
9.40000000000023,0.042151216840215895,0.037285057991110857
9.600000000000119,0.04304314394345386,0.038377017136346316
9.800000000000008,0.04392813817482462,0.03947465469692859
10.000999999999896,0.044803749342943164,0.04055747815190475
10.200999999999786,0.045674349661293724,0.04166585273611753
10.400999999999675,0.04653733097110794,0.04277929174503791
10.600999999999564,0.04739246927490097,0.04389765049294224
10.800999999999453,0.048239540788576146,0.04502080402703474
11.000999999999342,0.049078263382216186,0.04614877974738862
11.200999999999231,0.04990862974027607,0.04728156306839989
11.40099999999912,0.05073051393324018,0.048419032405201255
11.60099999999901,0.05154371126371893,0.049561037433307656
11.800999999998899,0.05234802035909376,0.050707427884067464
12.000999999998788,0.053143245947665146,0.051858069928251926
12.200999999998677,0.053929196547514255,0.05301283315430516
12.400999999998566,0.05470568606387644,0.054171601617331866
12.600999999998455,0.055472535039746876,0.05533430105047658
12.800999999998345,0.05622956160925629,0.056500810889955934
13.000999999998234,0.056976701643555096,0.05767105818830169
13.200999999998123,0.057713884340508115,0.05884495006020515
13.400999999998012,0.05844093912409167,0.06002236504392095
13.600999999997901,0.059157695648952076,0.06120318457712665
13.80099999999779,0.05986400706194063,0.06238732491483831
14.00099999999768,0.06055980975358447,0.06357467522208518
14.200999999997569,0.06124496516933762,0.06476511469943651
14.400999999997458,0.061919402157725324,0.06595855679788959
14.600999999997347,0.06258315124916111,0.06715496020119066
14.800999999997236,0.06323605344967888,0.06835420575996391
15.000999999997125,0.06387797073231044,0.06955626114107885
15.200999999997014,0.06450882824350447,0.07076108008046039
15.400999999996904,0.06512856018683061,0.07196854211102698
15.600999999996793,0.06573704204306206,0.07317853017845712
15.800999999996682,0.06633415112055821,0.07439093056607884
16.000999999996573,0.06691976905869232,0.07560562984939245
16.200999999996817,0.0674937825164662,0.07682251397227581
16.40099999999706,0.06805608310956254,0.07804146852109023
16.600999999997306,0.06860656701598337,0.07926237924986376
16.80099999999755,0.069145134725805,0.08048513238068662
17.000999999997795,0.06967179492782759,0.08170964147525529
17.20099999999804,0.07018657853743221,0.08293580360994347
17.400999999998284,0.07068802742743822,0.08416372125909462
17.60099999999853,0.07116556755851625,0.08539370865934393
17.800999999998773,0.07161692409368192,0.08662518551816166
18.000999999999017,0.0720420523956439,0.08785778774731566
18.20099999999926,0.07244102433033316,0.08909135905035122
18.400999999999506,0.0728136342539353,0.09032567039652513
18.60099999999975,0.0731604375268744,0.09156053552219853
18.799999999999994,0.07347498076988282,0.09281673410949083
19.000000000000238,0.07375765943938932,0.09405365535157671
19.200000000000482,0.07400528157899229,0.09529201412025495
19.400000000000727,0.07421873516555424,0.0965318547222506
19.60000000000097,0.07439960916324267,0.09777316958762679
19.800000000001216,0.07454869345375097,0.0990159543493256
20.00000000000146,0.0746667261781874,0.10026015751303437
