Time (s),X (m),Y (m)
0.001,-9.270868745296317e-05,0.0008932837685830061
0.20000000000000015,0.0020641472436414275,-0.0014995392498654537
0.4000000000000003,0.005429626955953043,0.0014048623127682271
0.6000000000000004,0.011652422220790253,0.01772674683181464
0.8000000000000006,0.021812357907633865,0.023439153950765308
1.0000000000000007,0.04126704822929414,0.03616309076426134
1.2009999999999785,0.062311294209001104,0.04701675743007788
1.4009999999999565,0.08658380580153556,0.06795984259343371
1.6009999999999345,0.11237225791068507,0.07032395410254745
1.8009999999999124,0.1424110337146869,0.07352845601130804
2.0009999999998906,0.17565963278808927,0.07225984094351745
2.2009999999998686,0.2041818950936775,0.053710080281933
2.4009999999998466,0.22877580532072508,0.02743553729725742
2.6009999999998246,0.251242725788019,-0.018599237767247697
2.8009999999998025,0.274216522864074,-0.054973340216562895
3.0009999999997805,0.2978276479572162,-0.09383493570129234
3.2009999999997585,0.32052993179753725,-0.13517224196196695
3.4009999999997365,0.3458842514594609,-0.1704729258010266
3.6009999999997144,0.373643276658288,-0.17822071197369957
3.8009999999996924,0.40503422049905863,-0.19216042586145646
4.000999999999671,0.435905782276935,-0.2023271897786188
4.200999999999738,0.4642585203825528,-0.2196713601231858
4.400999999999804,0.4930504354381353,-0.23789602275850147
4.600999999999871,0.5210631750470794,-0.2545667985724074
4.800999999999938,0.5450525272285759,-0.2759585995267295
5.000000000000004,0.5628843408350038,-0.3164533971439998
5.200000000000071,0.5832993224991172,-0.34764095281354057
5.400000000000138,0.6045760703716343,-0.3790142010984089
5.600000000000205,0.6268135443928045,-0.3915361505565428
5.800000000000272,0.655419599386624,-0.3940542495098324
6.000000000000338,0.6869854801990574,-0.38557553234854247
6.200000000000405,0.7129501069369145,-0.40399416359619233
6.400000000000472,0.7359024231944795,-0.4460610762564057
6.600000000000539,0.760017265423258,-0.4838449164332519
6.800000000000606,0.7839404888927473,-0.5017333848359579
7.000000000000672,0.8033711220412987,-0.5344167114760742
7.200000000000739,0.8190022925573991,-0.5704566985489741
7.400000000000806,0.8329880724478679,-0.6155842504508391
7.600000000000873,0.8448162134913931,-0.6678895368455761
7.8000000000009395,0.8612051202213997,-0.7136830342680729
8.000000000001005,0.8806353858312993,-0.7500440654890714
8.200000000000895,0.8991511057953132,-0.7861756516938877
8.400000000000784,0.9189377606445459,-0.8202275561831893
8.600000000000673,0.9357523078885752,-0.8563086890120812
8.800000000000562,0.9405068720744888,-0.8950500119364169
9.000000000000451,0.94004784502575,-0.9406529747204853
9.20000000000034,0.9425734117810034,-0.9866294646401195
9.40000000000023,0.9488038001569349,-1.03882319900754
9.600000000000119,0.9476873648554394,-1.1049225982155264
9.800000000000008,0.9502022222925346,-1.1655499755775738
10.000999999999896,0.9571547664043566,-1.227489962168737
10.200999999999786,0.9631155468656397,-1.293689852167873
10.400999999999675,0.9776796664481964,-1.3574677769433543
10.600999999999564,0.9988507848607979,-1.4159118105275608
10.800999999999453,1.014241282365007,-1.4746215701562464
11.000999999999342,1.037320437167631,-1.5260978280024553
11.200999999999231,1.046805338552114,-1.5827536477672224
11.40099999999912,1.0606666114604637,-1.6388704215910717
11.60099999999901,1.065179847607227,-1.6965856090343576
11.800999999998899,1.039141265229566,-1.750344534571323
12.000999999998788,1.0245775605851462,-1.8005734808467482
12.200999999998677,1.0102423426881681,-1.8488025441844258
12.400999999998566,0.9911068380536557,-1.893618562822375
12.600999999998455,0.9720806585904399,-1.940383420629088
12.800999999998345,0.9551566056871174,-1.9865893118993112
13.000999999998234,0.9237515722476577,-2.028967528087238
13.200999999998123,0.8940136226637413,-2.067451635244768
13.400999999998012,0.8555137470448961,-2.1029490325912943
13.600999999997901,0.8022825632178312,-2.137652071067152
13.80099999999779,0.7497543130031141,-2.1713478783089877
14.00099999999768,0.7035327970042777,-2.214475167040759
14.200999999997569,0.6472893704880779,-2.2483249302399972
14.400999999997458,0.5877563799915404,-2.268918540476697
14.600999999997347,0.518845222697213,-2.2787136604332883
14.800999999997236,0.4633021071020591,-2.2891278281106877
15.000999999997125,0.41040854961133727,-2.3026600662681047
15.200999999997014,0.3509067769462263,-2.320881490701559
15.400999999996904,0.29737997414906436,-2.3465568631380096
15.600999999996793,0.2507860370710736,-2.3692006137406976
15.800999999996682,0.1985603272413552,-2.3819127299576435
16.000999999996573,0.15456987077558335,-2.4012142651084356
16.200999999996817,0.10860576426696643,-2.4229578649258943
16.40099999999706,0.06351906761263483,-2.451134609443206
16.600999999997306,0.018086339048339475,-2.4800537817083144
16.80099999999755,-0.04557785931766742,-2.498054352849027
17.000999999997795,-0.10540944431968816,-2.5074998569800915
17.20099999999804,-0.16723127497272255,-2.519256828854587
17.400999999998284,-0.22454464344762576,-2.5326483553891928
17.60099999999853,-0.27641558330278077,-2.5416533189767834
17.800999999998773,-0.30072120898035454,-2.555799067179472
18.000999999999017,-0.30755583881692244,-2.5804145578450863
18.20099999999926,-0.3261245236764614,-2.608966528270613
18.400999999999506,-0.3677615130496186,-2.634761498492506
18.60099999999975,-0.4059696802378959,-2.6631761146700725
18.799999999999994,-0.4208848566735472,-2.6937177499770653
19.000000000000238,-0.453383780092456,-2.7273931097195048
19.200000000000482,-0.4968018051281744,-2.7603042434426235
19.400000000000727,-0.5314491369849625,-2.794650963818788
19.60000000000097,-0.5769415101981042,-2.827196116291247
19.800000000001216,-0.626687395485534,-2.854309805984794
20.00000000000146,-0.68177962917684,-2.8730859212551145
