Time (s),X (m),Y (m)
0.001,0.0006021427340131596,0.0010158048217711127
0.20000000000000015,0.0008417018728568758,6.067855900313346e-05
0.4000000000000003,0.0012496028093754753,-1.5855753260524278e-05
0.6000000000000004,0.001891037184403608,0.0001652923942905597
0.8000000000000006,0.002714106800898027,0.0002975843175210487
1.0000000000000007,0.003707178684626056,5.4598718338720804e-05
1.2009999999999785,0.004862033205173492,0.0001770522750325385
1.4009999999999565,0.0061065345364257695,0.00039613802626155167
1.6009999999999345,0.007371836127762798,0.0006147431164940994
1.8009999999999124,0.008641343733932695,0.000867390594916956
2.0009999999998906,0.009932591334023206,0.0011491340773108188
2.2009999999998686,0.011243609952334688,0.0014406311560205285
2.4009999999998466,0.012546756320661975,0.0017316746854500055
2.6009999999998246,0.013838716947940862,0.002043985396750506
2.8009999999998025,0.01514181091918541,0.002373537379738132
3.0009999999997805,0.016421174770492052,0.0027055897937178536
3.2009999999997585,0.01766720308130647,0.003032993188744602
3.4009999999997365,0.018889377061225437,0.0033618162207349226
3.6009999999997144,0.02010000633176075,0.0036958907947113456
3.8009999999996924,0.021303356519677533,0.0040301652333938716
4.000999999999671,0.022528626920429475,0.004347893826718797
4.200999999999738,0.023784778130884567,0.004641105541801055
4.400999999999804,0.025083171563225874,0.004909848055671924
4.600999999999871,0.026426553429142827,0.00515579873831765
4.800999999999938,0.027761787853663445,0.005384042556466212
5.000000000000004,0.02902161240421435,0.005606440760472145
5.200000000000071,0.03021487469503974,0.0057985051468256495
5.400000000000138,0.031336349665007306,0.005985033854476008
5.600000000000205,0.03236568058723309,0.00616829884868917
5.800000000000272,0.0333017773726836,0.006348082098970344
6.000000000000338,0.034156931113614786,0.0065240074308167365
6.200000000000405,0.03497406378845763,0.006696181470324255
6.400000000000472,0.03575631787602528,0.006864723844303801
6.600000000000539,0.03650274237810879,0.007028693663713488
6.800000000000606,0.03722109778389252,0.007187491787725517
7.000000000000672,0.037915142269915186,0.007339513432196967
7.200000000000739,0.03858411832565522,0.007484892806000924
7.400000000000806,0.03922728881153549,0.007623491147608436
7.600000000000873,0.03984459037879858,0.007755009839182584
7.8000000000009395,0.04043664979680013,0.007879433495211358
8.000000000001005,0.04100447531107678,0.00799601299439337
8.200000000000895,0.04154717012122989,0.008101593177544058
8.400000000000784,0.04206394836947736,0.008197751835028905
8.600000000000673,0.04255890001911469,0.008285157954640248
8.800000000000562,0.04303950712740153,0.008363774229857464
9.000000000000451,0.04350314898282516,0.008436884345279802
9.20000000000034,0.043947041726917685,0.008505944135755773
9.40000000000023,0.04437875723432429,0.008572414553395273
9.600000000000119,0.04482224710372535,0.008641614773807847
9.800000000000008,0.04527435365539975,0.008725903579916584
10.000999999999896,0.04574277155509202,0.008818103390473246
10.200999999999786,0.046209105031839996,0.008934114703794602
10.400999999999675,0.04667869563705238,0.00906560004996894
10.600999999999564,0.04714027331386018,0.009213504290386327
10.800999999999453,0.047585502380333225,0.009379168838133849
11.000999999999342,0.04800529480690438,0.009560569496122759
11.200999999999231,0.04839593552242176,0.009755811382453666
11.40099999999912,0.04960678452883967,0.01011537780159992
11.60099999999901,0.050472961755096496,0.010559118430394329
11.800999999998899,0.05151768096172242,0.011086314526406984
12.000999999998788,0.05261797030841361,0.011283875938307418
12.200999999998677,0.053576746909215836,0.011961338372098281
12.400999999998566,0.054286557237650114,0.012403296604875377
12.600999999998455,0.055348795491454585,0.01331092174891789
12.800999999998345,0.05635978263061294,0.014156879145060837
13.000999999998234,0.05714265596326964,0.015657445581517482
13.200999999998123,0.0578609766327116,0.016297720696475674
13.400999999998012,0.05823033366888699,0.017236539287957153
13.600999999997901,0.05883382624728187,0.018423281812710725
13.80099999999779,0.05932596032536847,0.019587146846405414
14.00099999999768,0.059097218622011435,0.020946797746655286
14.200999999997569,0.058775127799958964,0.022327683282071138
14.400999999997458,0.05843506597589855,0.023810192863144508
14.600999999997347,0.0578507848179635,0.025290954213762058
14.800999999997236,0.05733811380188357,0.02655686145167484
15.000999999997125,0.056857935059328096,0.027923407950872406
15.200999999997014,0.05629237109544524,0.029696792156999836
15.400999999996904,0.055677959541666266,0.03129841851405081
15.600999999996793,0.05528056736036322,0.032829204149795496
15.800999999996682,0.05470358055047916,0.03456658128618103
16.000999999996573,0.05398859179799267,0.036416395185187356
16.200999999996817,0.053576568889044274,0.03817315590351714
16.40099999999706,0.05316036986571061,0.03999716818168554
16.600999999997306,0.05275284858797351,0.041848627507676824
16.80099999999755,0.05235015417291745,0.04370916703004995
17.000999999997795,0.0519440490695697,0.04552906282289584
17.20099999999804,0.051535967726354964,0.04730098613204815
17.400999999998284,0.051133143052215585,0.04903548130530635
17.60099999999853,0.050743864158596684,0.05075010446694826
17.800999999998773,0.050371818324318626,0.05245625074839318
18.000999999999017,0.05001976519794996,0.054159692393311226
18.20099999999926,0.04968918856668151,0.05586150719983107
18.400999999999506,0.049383511843728044,0.05757135781867752
18.60099999999975,0.04910428656801663,0.059294419457122986
18.799999999999994,0.04883835291806143,0.06101829698037627
19.000000000000238,0.04861722679300885,0.0627446030595215
19.200000000000482,0.04842219626079693,0.064400818247593
19.400000000000727,0.048248569178980606,0.06595067943548835
19.60000000000097,0.048096446653655145,0.06740084324679425
19.800000000001216,0.04796506185930225,0.0687624618951819
20.00000000000146,0.04784514880008176,0.0700629753479596
