Time (s),X (m),Y (m)
0.001,-0.0004702548317818469,0.0005157376242541224
0.20000000000000015,0.0017079387545507853,-0.0011243486128700681
0.4000000000000003,0.003972431824975185,-0.00048230282363798354
0.6000000000000004,0.008487289349766686,0.0008184339480739897
0.8000000000000006,0.006480322347970705,0.005510179517815106
1.0000000000000007,0.004866544474831727,0.012862940970297899
1.2009999999999785,0.010677861461538008,0.012234982174306921
1.4009999999999565,0.010925055979020869,0.01063766059216715
1.6009999999999345,0.031110863954424497,0.003554634782700273
1.8009999999999124,0.056149175343918695,-0.007150939001703191
2.0009999999998906,0.0738040709545656,-0.013732481067516199
2.2009999999998686,0.08538291461360446,-0.01755357981856305
2.4009999999998466,0.10219678283883933,-0.02231993532492907
2.6009999999998246,0.11855777676833933,-0.026832229675768968
2.8009999999998025,0.14230260850097803,-0.039762889802227586
3.0009999999997805,0.16294282748917632,-0.04300167327694984
3.2009999999997585,0.18879106450567237,-0.04670658970996986
3.4009999999997365,0.21786962278210814,-0.06084196351586293
3.6009999999997144,0.2447968863642861,-0.07376130496950138
3.8009999999996924,0.2810392989548512,-0.09056641597731467
4.000999999999671,0.31774180978828553,-0.10429728386188546
4.200999999999738,0.35799653543807797,-0.11990061947377896
4.400999999999804,0.41634945995648304,-0.14959093274314456
4.600999999999871,0.47067120184970884,-0.18258098642646634
4.800999999999938,0.5317315461061183,-0.2147343565654343
5.000000000000004,0.5871066058222834,-0.23843739822512053
5.200000000000071,0.6429271948595429,-0.2693013573976454
5.400000000000138,0.7032128989977453,-0.30430632502322685
5.600000000000205,0.7658313542597531,-0.3399678819488477
5.800000000000272,0.8243124918787442,-0.37355652916609816
6.000000000000338,0.871476631278679,-0.41082912527137916
6.200000000000405,0.90477791932391,-0.447528499963814
6.400000000000472,0.9244327533585371,-0.4854855729872644
6.600000000000539,0.9317096835729882,-0.5238127349076546
6.800000000000606,0.9225966826382557,-0.5718148270150458
7.000000000000672,0.9011085787628395,-0.6276538830645192
7.200000000000739,0.8714356666706394,-0.6825494968531927
7.400000000000806,0.8490329252056933,-0.7365639594206284
7.600000000000873,0.8052380042028335,-0.7893172372935541
7.8000000000009395,0.7537167863935741,-0.8308857766394142
8.000000000001005,0.7047452604639503,-0.8510341733509393
8.200000000000895,0.6513083896081833,-0.8537053477339162
8.400000000000784,0.5927846347336134,-0.8372484290456408
8.600000000000673,0.533769109491698,-0.8060656090405308
8.800000000000562,0.4772228294257154,-0.7673532919384246
9.000000000000451,0.42163791706275244,-0.7381129139832188
9.20000000000034,0.3751935920514797,-0.6933632678584953
9.40000000000023,0.34996977260705503,-0.649011384889462
9.600000000000119,0.342416420144885,-0.604214599023705
9.800000000000008,0.3464310313084733,-0.5613517390009957
10.000999999999896,0.35912705553223423,-0.5189736236989737
10.200999999999786,0.38090088519035886,-0.46927794129594996
10.400999999999675,0.3996624766308572,-0.4116920991991465
10.600999999999564,0.4249507634495908,-0.34174577031148823
10.800999999999453,0.45009735875502943,-0.27187721597184106
11.000999999999342,0.47780506102224973,-0.19825037847714747
11.200999999999231,0.5105663750108493,-0.12894506969253408
11.40099999999912,0.5440135628812534,-0.06214735393497967
11.60099999999901,0.573862900215971,-0.0011224528936255459
11.800999999998899,0.6062879089902745,0.044635157880402426
12.000999999998788,0.657526697358951,0.06223553194263254
12.200999999998677,0.7189825071422292,0.048345978792094735
12.400999999998566,0.7845598925466604,0.025956073780564314
12.600999999998455,0.8438919018793036,0.00182309221718666
12.800999999998345,0.9035483168903962,-0.021538489024736464
13.000999999998234,0.9639168665900644,-0.04333361974552142
13.200999999998123,1.0245880491059134,-0.06787730729853987
13.400999999998012,1.0886161947832476,-0.09764323641264115
13.600999999997901,1.160364045320022,-0.1290812009570832
13.80099999999779,1.2278075032068103,-0.1512995276381979
14.00099999999768,1.3001669488186884,-0.19125948038023757
14.200999999997569,1.3644439392849361,-0.2450961339589569
14.400999999997458,1.41525397391187,-0.29823228034125604
14.600999999997347,1.4449765444749842,-0.34892423466389
14.800999999997236,1.4586708968751891,-0.39801257185370337
15.000999999997125,1.45843856932194,-0.4559985055867625
15.200999999997014,1.4466386043179122,-0.5140101622571004
15.400999999996904,1.4322873320139842,-0.5686718056763111
15.600999999996793,1.4155745748095303,-0.633873988427174
15.800999999996682,1.3946452652583046,-0.6962147350980816
16.000999999996573,1.3631572732313202,-0.7648578068483746
16.200999999996817,1.3327399867951417,-0.8362958973478495
16.40099999999706,1.2959138262939882,-0.9053775661395632
16.600999999997306,1.2664406703705002,-0.9685092418061507
16.80099999999755,1.2141615797237613,-1.0067309959283812
17.000999999997795,1.1490003095336192,-1.0175635382797041
17.20099999999804,1.07360708380908,-1.0046375064614055
17.400999999998284,0.999356147861006,-0.9857046226167432
17.60099999999853,0.9293693999924229,-0.9609333903415571
17.800999999998773,0.8610174351128101,-0.928181202180098
18.000999999999017,0.7897991684120451,-0.8922208241976818
18.20099999999926,0.7217791307863286,-0.8526272107714208
18.400999999999506,0.6592418033237211,-0.8188338914631941
18.60099999999975,0.6000243351995791,-0.7966601114550607
18.799999999999994,0.5577727154952524,-0.7394871051441502
19.000000000000238,0.5447825209683542,-0.6740470425736925
19.200000000000482,0.5580587151746027,-0.6031099636809363
19.400000000000727,0.593249757033822,-0.5252145165319257
19.60000000000097,0.636576586259096,-0.4553233823929086
19.800000000001216,0.6735427111786583,-0.39884067005644197
20.00000000000146,0.7265918986966535,-0.37159784120922185
