Time (s),X (m),Y (m)
0.001,-0.0005118051130574255,-0.0004359202765531099
0.20000000000000015,0.0023994012107601877,0.0006171817139512172
0.4000000000000003,0.0027535316736320213,0.003339844187995965
0.6000000000000004,0.003504591245094417,0.006758815267198051
0.8000000000000006,0.019961268072867064,0.009251952082532239
1.0000000000000007,0.04010639973710956,0.010480264732813665
1.2009999999999785,0.07703294685364372,0.011770268133555965
1.4009999999999565,0.11286563258615348,0.013049404070206369
1.6009999999999345,0.13788228297412936,0.011499602065227611
1.8009999999999124,0.16704311136317485,0.004415935173241906
2.0009999999998906,0.2023317278450514,-0.004922854571123643
2.2009999999998686,0.23611468324990056,-0.018785195753523318
2.4009999999998466,0.2673054687894753,-0.03436157559039023
2.6009999999998246,0.30355741125974645,-0.054026211132818205
2.8009999999998025,0.33637308512862246,-0.07850809097247471
3.0009999999997805,0.3687121400599081,-0.10409735842454139
3.2009999999997585,0.40597285086974555,-0.13297622644531418
3.4009999999997365,0.4421957359523567,-0.16189970720166758
3.6009999999997144,0.4745451936737258,-0.1950762819634174
3.8009999999996924,0.502024627341242,-0.22944223072553846
4.000999999999671,0.5276084824543881,-0.26391166473581246
4.200999999999738,0.5571980765125377,-0.29441601704791837
4.400999999999804,0.5849935353722591,-0.3260921978850304
4.600999999999871,0.6141439388468013,-0.36316005279372127
4.800999999999938,0.6499090264279707,-0.4042972102703178
5.000000000000004,0.6856040363945676,-0.4506793246938407
5.200000000000071,0.7195231757692114,-0.4999573868521345
5.400000000000138,0.7499285534257858,-0.5431790395117501
5.600000000000205,0.7804687462066782,-0.5804665199538481
5.800000000000272,0.8131167631878856,-0.6306994360043866
6.000000000000338,0.8516426378918839,-0.6885873370343163
6.200000000000405,0.8871960558556221,-0.7385637274521971
6.400000000000472,0.9201297757344988,-0.787631044723241
6.600000000000539,0.9464336307776989,-0.8447239922731526
6.800000000000606,0.9622917804607459,-0.8882398645716573
7.000000000000672,0.9618710172850461,-0.9327833067542727
7.200000000000739,0.9428084430525193,-0.9789201209229196
7.400000000000806,0.9125774020869274,-1.0202588066914737
7.600000000000873,0.8781245672439125,-1.053491534274333
7.8000000000009395,0.8444301660706672,-1.077738370593253
8.000000000001005,0.8008992612211789,-1.1059907501955224
8.200000000000895,0.7512076993420403,-1.1334058976656958
8.400000000000784,0.6937501794080898,-1.1491648424496292
8.600000000000673,0.6403947331238649,-1.1457076139863294
8.800000000000562,0.588518430937176,-1.1276453377598636
9.000000000000451,0.537728958855387,-1.1031805036518774
9.20000000000034,0.49389024957927885,-1.0653536934009487
9.40000000000023,0.44389555237504963,-1.0161413631238208
9.600000000000119,0.3908091112005895,-0.9634335478803858
9.800000000000008,0.3290634457976634,-0.9066459687916827
10.000999999999896,0.2657177073374115,-0.8466418799893395
10.200999999999786,0.20668223738629288,-0.7874874397518897
10.400999999999675,0.15228714463931878,-0.7276656112582411
10.600999999999564,0.09520052036335332,-0.6688205130605827
10.800999999999453,0.03177611695849525,-0.6113017618674309
11.000999999999342,-0.049089813404618036,-0.5583701601719637
11.200999999999231,-0.12446951553016274,-0.502952080208489
11.40099999999912,-0.19210395951278614,-0.4436084511585405
11.60099999999901,-0.2514767437354901,-0.38833939548192736
11.800999999998899,-0.3059219577413702,-0.3318450171835185
12.000999999998788,-0.3604438668309851,-0.2678157240140174
12.200999999998677,-0.40840001941579546,-0.20427412537324918
12.400999999998566,-0.4579286535435224,-0.12074385834181806
12.600999999998455,-0.49950556309671357,-0.04366284381937189
12.800999999998345,-0.5317444509249847,0.031215505570666477
13.000999999998234,-0.5521911093323693,0.10682571904289874
13.200999999998123,-0.5540757622089467,0.17848280448921824
13.400999999998012,-0.5429519484640573,0.23888449613122065
13.600999999997901,-0.514195006094461,0.29307761261935017
13.80099999999779,-0.47584440548176604,0.34689265277498416
14.00099999999768,-0.4355558802916862,0.4021509626124127
14.200999999997569,-0.3979770243843605,0.454436700029347
14.400999999997458,-0.35480398636192734,0.5040817686354119
14.600999999997347,-0.30294707958316147,0.5575802765971504
14.800999999997236,-0.24534096815670603,0.6122703113934551
15.000999999997125,-0.1839378562868301,0.6735592275284402
15.200999999997014,-0.1260014995400506,0.7400518653113834
15.400999999996904,-0.07440745611815472,0.7955091870848569
15.600999999996793,-0.031185211276129214,0.8398428593262407
15.800999999996682,0.00997928526902428,0.8829874140874706
16.000999999996573,0.047965318603832914,0.9339245626722552
16.200999999996817,0.08803257658477555,0.9878783916325301
16.40099999999706,0.13374244570766258,1.0382250812911473
16.600999999997306,0.18499728318944278,1.0871238226737883
16.80099999999755,0.24441438869628263,1.1520642793783884
17.000999999997795,0.3020356355545643,1.2044333532517593
17.20099999999804,0.35489563925768247,1.2568517221879099
17.400999999998284,0.4129072158806634,1.3133844683360734
17.60099999999853,0.4789576874336172,1.3757761778260857
17.800999999998773,0.5461794245981169,1.442805761712801
18.000999999999017,0.6135642939478622,1.5147268768104416
18.20099999999926,0.6798148187771349,1.5826638710183019
18.400999999999506,0.7466246008893466,1.652682398751263
18.60099999999975,0.8147471477766122,1.71283276571301
18.799999999999994,0.8795014769810935,1.7626916063086513
19.000000000000238,0.9456602670269745,1.818134087674231
19.200000000000482,1.0160857297682524,1.8776180965578615
19.400000000000727,1.0893388808306521,1.9409696696557388
19.60000000000097,1.1631143232348198,2.004465836909391
19.800000000001216,1.2426433396168062,2.0668319033149083
20.00000000000146,1.3241616064012125,2.1270633635027365
