Time (s),X (m),Y (m)
0.001,0.0014388337585722719,0.00017911379721200063
0.20000000000000015,0.0005537823423727639,0.00012533959693631396
0.4000000000000003,0.002539009902765147,0.002765593555470661
0.6000000000000004,0.0019492936681576455,0.006413763790043863
0.8000000000000006,-0.00044152255277477004,0.010405308879071904
1.0000000000000007,0.0010579345062578195,0.014864485734287999
1.2009999999999785,-0.003198901779979914,0.01896752674727306
1.4009999999999565,0.004554293198406982,0.020889451229677444
1.6009999999999345,0.013008004008305839,0.022239016832610554
1.8009999999999124,0.02062451296921512,0.02160355020275759
2.0009999999998906,0.021146077418553885,0.024132662287041577
2.2009999999998686,0.03355621078422768,0.01994437160380033
2.4009999999998466,0.0460157684484525,0.013638435590939208
2.6009999999998246,0.06679597662023026,0.008271456296545118
2.8009999999998025,0.06834166687746748,0.005334205566801235
3.0009999999997805,0.07687585629791803,0.001319081194874702
3.2009999999997585,0.09301633575681886,-0.0026435394749909436
3.4009999999997365,0.10834908698974254,-0.008981168257615925
3.6009999999997144,0.1377004018418034,-0.01762581604046378
3.8009999999996924,0.16519892552751003,-0.026579289311007625
4.000999999999671,0.17753843674609165,-0.03577815666092313
4.200999999999738,0.1822705985825856,-0.04206702628251056
4.400999999999804,0.20255361802531408,-0.048132410657723904
4.600999999999871,0.21683121029898425,-0.051240498357086474
4.800999999999938,0.2379849926642181,-0.05242698245575584
5.000000000000004,0.26622540213846213,-0.06023733518755747
5.200000000000071,0.29938415697907694,-0.07755468864966975
5.400000000000138,0.33282056758511913,-0.09916080699455483
5.600000000000205,0.36531252926687435,-0.12297280959817715
5.800000000000272,0.398399808090467,-0.15078737678128962
6.000000000000338,0.42549434272176007,-0.17359905647802545
6.200000000000405,0.452826403065298,-0.19878015505826233
6.400000000000472,0.47719581332726,-0.21684642922200978
6.600000000000539,0.4969065367214941,-0.2369593290699672
6.800000000000606,0.5177761611518447,-0.2596823274535856
7.000000000000672,0.5330846659516877,-0.288318299378165
7.200000000000739,0.5408479600176189,-0.3204458218303498
7.400000000000806,0.5435438850415153,-0.3390825558244025
7.600000000000873,0.5490883796909674,-0.3617723728511185
7.8000000000009395,0.5591389272419339,-0.3947010464207522
8.000000000001005,0.571655602371405,-0.42900920508019935
8.200000000000895,0.5821418134926547,-0.4527049145819113
8.400000000000784,0.5864568463304045,-0.4816112343449435
8.600000000000673,0.576994761999325,-0.5070392994931292
8.800000000000562,0.5546558127782734,-0.5374506157879103
9.000000000000451,0.5254538021690592,-0.5739599426915096
9.20000000000034,0.4997750089503569,-0.6077654719360276
9.40000000000023,0.4687068721111773,-0.6464762631011917
9.600000000000119,0.4378537373977463,-0.6852673628785153
9.800000000000008,0.4034963346781851,-0.7231199225021719
10.000999999999896,0.3693211995145872,-0.7593633368783725
10.200999999999786,0.34318403846822076,-0.7881964945601762
10.400999999999675,0.3199463486325823,-0.8199573582788379
10.600999999999564,0.2954155300851971,-0.8513343783238386
10.800999999999453,0.26972144380249513,-0.8818221243777177
11.000999999999342,0.24922812933215008,-0.9077613692355482
11.200999999999231,0.23328618347579833,-0.9347327928293604
11.40099999999912,0.21428273577139825,-0.964454842092715
11.60099999999901,0.1983968226393974,-0.9887969799503932
11.800999999998899,0.17696521752820055,-1.0169465903174661
12.000999999998788,0.14820706656117222,-1.0507134007197998
12.200999999998677,0.12085121254939277,-1.0784828930657266
12.400999999998566,0.08657017802839119,-1.1172959808051897
12.600999999998455,0.05421009946597015,-1.1552745781696845
12.800999999998345,0.017142742523646365,-1.1942086974634507
13.000999999998234,-0.018749656680980546,-1.2305772746277743
13.200999999998123,-0.059359069081261165,-1.2696654937771503
13.400999999998012,-0.08613733600154545,-1.2998443171306011
13.600999999997901,-0.10657935257972112,-1.3245033398362385
13.80099999999779,-0.13217507800447728,-1.3517825143050315
14.00099999999768,-0.1603077719983945,-1.3809752006354268
14.200999999997569,-0.193072077147601,-1.4103967500874195
14.400999999997458,-0.22192782376181905,-1.4392865337718428
14.600999999997347,-0.24675890475029794,-1.464008267099991
14.800999999997236,-0.2778184264301948,-1.484827743553375
15.000999999997125,-0.31114088715774846,-1.509279004295948
15.200999999997014,-0.34469116382056925,-1.5384567734497825
15.400999999996904,-0.3647507718929657,-1.5596787188306491
15.600999999996793,-0.38976978396330375,-1.564133723106607
15.800999999996682,-0.41918872634078563,-1.5604140561195818
16.000999999996573,-0.4608696710845917,-1.5481694505974688
16.200999999996817,-0.4953676010885966,-1.5315653924751897
16.40099999999706,-0.535579389485286,-1.5114947106800556
16.600999999997306,-0.5720685048140063,-1.4861831080264158
16.80099999999755,-0.6101856573497878,-1.4573273934670914
17.000999999997795,-0.6424067294044759,-1.4307207775366024
17.20099999999804,-0.6769353311371414,-1.402451810958238
17.400999999998284,-0.7082335595365529,-1.3716115568158425
17.60099999999853,-0.7499291584715121,-1.3392132081670307
17.800999999998773,-0.7916387459759906,-1.309334873914028
18.000999999999017,-0.8261154408604579,-1.282267361765997
18.20099999999926,-0.8615476730306931,-1.2532259237726107
18.400999999999506,-0.9022104025902843,-1.2217197173877197
18.60099999999975,-0.9391636711946456,-1.1873907533758346
18.799999999999994,-0.9819789198537241,-1.1506590244694046
19.000000000000238,-1.0176070191949418,-1.1152180779990772
19.200000000000482,-1.053291360298143,-1.082012098914585
19.400000000000727,-1.0862274866163975,-1.051138766600963
19.60000000000097,-1.1206254422618909,-1.0217518636356195
19.800000000001216,-1.157896597911973,-0.9910656293675033
20.00000000000146,-1.1992569881638016,-0.9555522285430889
