Time (s),X (m),Y (m)
0.001,-0.0005118051130574255,-0.0004359202765531099
0.20000000000000015,0.002245528404958451,0.0004989675856407904
0.4000000000000003,0.0014372506590064693,0.0020741835501908398
0.6000000000000004,0.010552608196524737,0.004865806252163734
0.8000000000000006,0.027809604532541287,0.0056917556749211985
1.0000000000000007,0.0384597640749481,0.00519637377272301
1.2009999999999785,0.05297469545407024,-0.0031891695398762595
1.4009999999999565,0.08277426925362687,-0.02025171285498838
1.6009999999999345,0.10849827241293956,-0.03733037166758594
1.8009999999999124,0.12378285136972356,-0.053194023535165696
2.0009999999998906,0.13750826119249054,-0.06927473139591261
2.2009999999998686,0.16292478689092127,-0.0906143282784502
2.4009999999998466,0.18618831356727325,-0.11576862714746626
2.6009999999998246,0.20933821541135095,-0.1421934887314163
2.8009999999998025,0.24126416396864925,-0.1727805592119639
3.0009999999997805,0.26941409926302173,-0.20301036295704097
3.2009999999997585,0.3050054881372556,-0.22995523339339996
3.4009999999997365,0.333246194640583,-0.25529497405277507
3.6009999999997144,0.3676765309240057,-0.283537475709094
3.8009999999996924,0.4003988611101847,-0.31810800953905843
4.000999999999671,0.43144345739545326,-0.3561527913269378
4.200999999999738,0.46805089477935824,-0.39610233330438493
4.400999999999804,0.5040054586988619,-0.44430851888320266
4.600999999999871,0.5221559902048637,-0.4926784563834958
4.800999999999938,0.5292882057255729,-0.5368604454226974
5.000000000000004,0.5280581287632026,-0.5758737561557328
5.200000000000071,0.5148938394295811,-0.6222480445111345
5.400000000000138,0.4928691225463154,-0.6618760931907433
5.600000000000205,0.4655705881930506,-0.7003539124533421
5.800000000000272,0.43477408982636,-0.7562122470774022
6.000000000000338,0.3964017078080712,-0.8127923559554003
6.200000000000405,0.35227992622530935,-0.8717928279479251
6.400000000000472,0.3067186404225039,-0.9203109906571194
6.600000000000539,0.2560219162525851,-0.9699789842548026
6.800000000000606,0.19917154141199084,-1.017386291778446
7.000000000000672,0.14912118140941633,-1.058149528710899
7.200000000000739,0.0968174252501043,-1.08297139911283
7.400000000000806,0.04634025814267895,-1.0765507303716888
7.600000000000873,-0.0087569662198651,-1.0424884037261568
7.8000000000009395,-0.054208445255926864,-0.99843463850501
8.000000000001005,-0.10168655557946224,-0.9445099705641054
8.200000000000895,-0.14633894357982094,-0.8823786847558491
8.400000000000784,-0.1776625629209887,-0.8146767744572975
8.600000000000673,-0.18195111385247603,-0.7585217617173374
8.800000000000562,-0.1623112973105591,-0.7056379517268637
9.000000000000451,-0.1248748486129207,-0.6530314382818843
9.20000000000034,-0.08735207818850957,-0.6067530542046211
9.40000000000023,-0.044069268197486536,-0.5807319728177087
9.600000000000119,-0.0119938859317423,-0.5808337671604874
9.800000000000008,0.02594121577421942,-0.6084321574458612
10.000999999999896,0.06981864690121975,-0.6471525557802533
10.200999999999786,0.11536922611740053,-0.6915879979017945
10.400999999999675,0.1662524867281985,-0.7408835906937773
10.600999999999564,0.2182727084645796,-0.7918366112072615
10.800999999999453,0.2659505301507142,-0.8447632889764215
11.000999999999342,0.31740995772546904,-0.8980314952820537
11.200999999999231,0.3697861911703058,-0.9547169345377363
11.40099999999912,0.42426718638753524,-1.0151405112510352
11.60099999999901,0.4783398571387796,-1.07481122169453
11.800999999998899,0.5417515542643284,-1.136550822091067
12.000999999998788,0.6155277198820053,-1.198659498667818
12.200999999998677,0.6877517171416073,-1.2583883620338467
12.400999999998566,0.7481319964091868,-1.3168874408238234
12.600999999998455,0.8087100273512583,-1.380143896128466
12.800999999998345,0.8718070531029467,-1.4477126069987505
13.000999999998234,0.9417741399160325,-1.523852787667312
13.200999999998123,1.0153915734271068,-1.6012084852779556
13.400999999998012,1.0826405337195721,-1.6735694688142735
13.600999999997901,1.1549663684876328,-1.7474036930299341
13.80099999999779,1.2301972188970915,-1.8208019538791653
14.00099999999768,1.3070769651585668,-1.8932764708281453
14.200999999997569,1.3896386008709412,-1.9658908340115169
14.400999999997458,1.470170885859887,-2.0377418599620714
14.600999999997347,1.546177351964859,-2.111962416797071
14.800999999997236,1.6221473189508202,-2.1859185903764695
15.000999999997125,1.7049777043317171,-2.2599603381990576
15.200999999997014,1.7794838635739467,-2.3328968056456554
15.400999999996904,1.854816151193333,-2.408057740174625
15.600999999996793,1.9343352641900906,-2.489038644555812
15.800999999996682,2.009892512919089,-2.5694469269902527
16.000999999996573,2.089610440781899,-2.657038768582497
16.200999999996817,2.170974521834073,-2.750829281854652
16.40099999999706,2.253024042480853,-2.843334954710556
16.600999999997306,2.3365471716682285,-2.932078522269817
16.80099999999755,2.421226923295902,-3.01347202390787
17.000999999997795,2.513036902679775,-3.079176099878202
17.20099999999804,2.601446440249129,-3.1330693127792695
17.400999999998284,2.6947549875229004,-3.1718640757362233
17.60099999999853,2.780399661749003,-3.211510053166131
17.800999999998773,2.867951876911236,-3.257921545019265
18.000999999999017,2.9515495271977126,-3.314503949735151
18.20099999999926,3.044387460171192,-3.383833091674696
18.400999999999506,3.138081910990315,-3.462092821612735
18.60099999999975,3.2319739305894943,-3.5489111693987176
18.799999999999994,3.319425196901803,-3.636357045431643
19.000000000000238,3.404658704929947,-3.7210165873143635
19.200000000000482,3.4973448654768076,-3.8094066544466716
19.400000000000727,3.583940089331832,-3.904931269122063
19.60000000000097,3.664452844640874,-4.005988932933407
19.800000000001216,3.728792881716085,-4.096799090367712
20.00000000000146,3.7713857900437486,-4.177841641461729
