Time (s),X (m),Y (m)
0.001,0.001086048446240603,0.0007901558823345071
0.20000000000000015,0.000931674807709208,-4.618986172783865e-05
0.4000000000000003,0.009992936498701461,0.008251337644305768
0.6000000000000004,0.022287249600568167,0.01547532869570702
0.8000000000000006,0.03256435451355169,0.019232029701328413
1.0000000000000007,0.04652816339213594,0.02822829884624779
1.2009999999999785,0.06520851765802284,0.043838839158989215
1.4009999999999565,0.08290974187385168,0.06139322178624605
1.6009999999999345,0.1009972832468732,0.07600570420300079
1.8009999999999124,0.1250427812717966,0.09386993839809507
2.0009999999998906,0.15068995502597743,0.11278784281119193
2.2009999999998686,0.17715689595637543,0.13026014685148116
2.4009999999998466,0.20522467403697442,0.1511364815850166
2.6009999999998246,0.22956548792129727,0.16166162020946218
2.8009999999998025,0.2528888097498427,0.1766158658602194
3.0009999999997805,0.280074383186612,0.19556257261224108
3.2009999999997585,0.30922399819132185,0.20511665017287264
3.4009999999997365,0.33487775374779677,0.22879917433332392
3.6009999999997144,0.3630951631021552,0.2504740556439628
3.8009999999996924,0.40148454880530543,0.28297278451695773
4.000999999999671,0.44030567816045585,0.31392717830532185
4.200999999999738,0.47995717904416546,0.34610106404510665
4.400999999999804,0.5186919157431639,0.3782785559691812
4.600999999999871,0.5579902223440704,0.41391801805070944
4.800999999999938,0.5854924753972206,0.45037985674232794
5.000000000000004,0.6045624809590461,0.4840690677617519
5.200000000000071,0.6202384178535784,0.5139449506118992
5.400000000000138,0.6390248094702445,0.5354774362430549
5.600000000000205,0.6595549723181916,0.562493299920207
5.800000000000272,0.6833068979948068,0.597487630067962
6.000000000000338,0.7164258546617,0.6385548283086662
6.200000000000405,0.7551655065986327,0.6934417784811284
6.400000000000472,0.7927257194503298,0.750391411585046
6.600000000000539,0.8324608567760287,0.804328944580533
6.800000000000606,0.8756858009084756,0.85226501134072
7.000000000000672,0.9174271340201625,0.8973269524064807
7.200000000000739,0.9581305306782235,0.948595221760183
7.400000000000806,0.9949134401770222,1.0043925570099037
7.600000000000873,1.0281123063137898,1.0721247090193293
7.8000000000009395,1.065642781248551,1.134845946146939
8.000000000001005,1.1046887491599653,1.1866089354047042
8.200000000000895,1.1431562374435285,1.2342249182905787
8.400000000000784,1.1922953358987824,1.2827188984474032
8.600000000000673,1.2483518250866112,1.328424727250836
8.800000000000562,1.3105549134545509,1.3780727591631823
9.000000000000451,1.372897967185479,1.4345987886897051
9.20000000000034,1.4401955423308277,1.4850937215362643
9.40000000000023,1.5057370718088638,1.530376713473419
9.600000000000119,1.5690392630804169,1.5728509957291703
9.800000000000008,1.6317470710978776,1.6201766135352127
10.000999999999896,1.6909274245748298,1.662772655033039
10.200999999999786,1.7330467144474195,1.7286859082039499
10.400999999999675,1.7574185212238425,1.7981675741695669
10.600999999999564,1.7676678409017,1.8638599185073366
10.800999999999453,1.7671256939004083,1.9360057411404
11.000999999999342,1.7686058400176392,2.0130578422737586
11.200999999999231,1.7909405495712714,2.0788694336146065
11.40099999999912,1.8194719591712147,2.1400732871354124
11.60099999999901,1.8493886006665436,2.192163827890608
11.800999999998899,1.8889576702556434,2.2434227032735867
12.000999999998788,1.9348830964959416,2.296452572465381
12.200999999998677,1.988356558253477,2.35193440918788
12.400999999998566,2.0350585289140195,2.4159835855333505
12.600999999998455,2.0672603987071243,2.4813578591857586
12.800999999998345,2.076704968779692,2.5465890521197854
13.000999999998234,2.0730650345387236,2.6211747962943512
13.200999999998123,2.065253808334654,2.689984351470939
13.400999999998012,2.064951149895236,2.7570416749681086
13.600999999997901,2.0729026692313735,2.807548839616709
13.80099999999779,2.0879765803481085,2.865996892691368
14.00099999999768,2.106268991682286,2.9130845571342454
14.200999999997569,2.1260602612337682,2.9658684262406596
14.400999999997458,2.1383068618722287,3.0328014065025215
14.600999999997347,2.1414871267957265,3.1089393921563366
14.800999999997236,2.1535999701837207,3.166650423217688
15.000999999997125,2.1809081927058003,3.223465332068347
15.200999999997014,2.2078827246002737,3.2854576188732163
15.400999999996904,2.230333586628681,3.35008830354383
15.600999999996793,2.2597659398663072,3.416828618016757
15.800999999996682,2.292784643251264,3.488265927908569
16.000999999996573,2.332291413850446,3.558765094684517
16.200999999996817,2.384515423777033,3.629377905836143
16.40099999999706,2.4484695977261826,3.680534877960037
16.600999999997306,2.5218915638956427,3.7339509887966824
16.80099999999755,2.584695255065817,3.786342177467709
17.000999999997795,2.630293943303669,3.840771337020104
17.20099999999804,2.6619054472330284,3.9050094409178837
17.400999999998284,2.694044888423734,3.9752154883074535
17.60099999999853,2.732197572966175,4.037859968515698
17.800999999998773,2.7703048631881892,4.111227905436358
18.000999999999017,2.8081106341537465,4.19101677828948
18.20099999999926,2.8412414460595374,4.254752148213809
18.400999999999506,2.871673400971885,4.322316701368456
18.60099999999975,2.8984483859575807,4.396840818871558
18.799999999999994,2.9197429074989683,4.460822181983831
19.000000000000238,2.9493457500342815,4.50858784202445
19.200000000000482,2.994017830285471,4.552722587030945
19.400000000000727,3.0452885331920756,4.598825795208
19.60000000000097,3.0865079881330106,4.647091407479744
19.800000000001216,3.1129730551793218,4.709458076036146
20.00000000000146,3.1368868329016175,4.770333191698978
