Time (s),X (m),Y (m)
0.001,-0.0005118051130574255,-0.0004359202765531099
0.20000000000000015,0.0008339779109697457,-1.375090184001607e-05
0.4000000000000003,0.0018858255741594984,0.0007873348227398667
0.6000000000000004,0.005031171672826657,0.0022170695804895955
0.8000000000000006,0.00821976538323204,0.0053855683484348256
1.0000000000000007,0.009950751134179247,0.00530304385125511
1.2009999999999785,0.012341500906505456,0.006919482967562663
1.4009999999999565,0.01395739490294937,0.007050926015905196
1.6009999999999345,0.016935377447522663,0.008495773295126413
1.8009999999999124,0.020453917515919958,0.01127182530914451
2.0009999999998906,0.02557249602066513,0.013151314409485006
2.2009999999998686,0.02981576284461074,0.015788375191932925
2.4009999999998466,0.032364229674854104,0.01793303847529486
2.6009999999998246,0.0379508377339259,0.022206189010238995
2.8009999999998025,0.044135627479805664,0.026057250312919885
3.0009999999997805,0.048892088972877105,0.029888601285537657
3.2009999999997585,0.05429918186925927,0.03522653980486624
3.4009999999997365,0.05923859689184186,0.03924871719733576
3.6009999999997144,0.06239370540629049,0.045458832889843044
3.8009999999996924,0.0655325107639866,0.051003707049816466
4.000999999999671,0.07061028372399565,0.055486597887530714
4.200999999999738,0.07647315999975063,0.06094626638144473
4.400999999999804,0.08134310966153346,0.06394631309551677
4.600999999999871,0.08444928849692221,0.062352519336119586
4.800999999999938,0.08923701971508241,0.06746848898501251
5.000000000000004,0.09285033512379996,0.07154110274675779
5.200000000000071,0.09464664432496223,0.07649598923760853
5.400000000000138,0.09590691798643351,0.08384063184047491
5.600000000000205,0.09887533628123771,0.08942019390413812
5.800000000000272,0.09900447240848374,0.09535927192825062
6.000000000000338,0.09939484811345839,0.09944003126941359
6.200000000000405,0.10103497511506893,0.10433142695919531
6.400000000000472,0.10204549398117033,0.10759534450221998
6.600000000000539,0.10114052952372123,0.11324799031076983
6.800000000000606,0.09991489389169399,0.11854211966884957
7.000000000000672,0.09846325120475224,0.12476405081973801
7.200000000000739,0.09652656811529266,0.13059132430031767
7.400000000000806,0.09337491163490141,0.13700238376302118
7.600000000000873,0.08972716725942394,0.14282649930512087
7.8000000000009395,0.08722863780768322,0.148479198775491
8.000000000001005,0.08481736230874098,0.15379190652306857
8.200000000000895,0.08154647726039833,0.15978062096681425
8.400000000000784,0.07766375112444983,0.1679517878371403
8.600000000000673,0.07474269289667958,0.17363347413652533
8.800000000000562,0.07117097214640451,0.1788560581884603
9.000000000000451,0.06917314386769226,0.18247294069255982
9.20000000000034,0.06639064934982757,0.18928205825904587
9.40000000000023,0.06360961989164672,0.1966970850666249
9.600000000000119,0.06104953471906109,0.20079373169208628
9.800000000000008,0.05718234375400172,0.20904640635346605
10.000999999999896,0.05114905340436176,0.22000675345378568
10.200999999999786,0.046927312781092564,0.23005861629137914
10.400999999999675,0.04177173846457097,0.23902168580910457
10.600999999999564,0.037340798403570866,0.2489732283730089
10.800999999999453,0.03474684415152121,0.2551889329492664
11.000999999999342,0.03010963366342652,0.26391051161850204
11.200999999999231,0.024011636418098024,0.27200679837398395
11.40099999999912,0.01888743716289637,0.28052146131054123
11.60099999999901,0.009670830155276854,0.28976897443375665
11.800999999998899,0.003437021171090467,0.2980486681643987
12.000999999998788,-0.00435695133610043,0.30645890224920547
12.200999999998677,-0.012937175154720227,0.3147695062495763
12.400999999998566,-0.021775858799419484,0.3215667426905832
12.600999999998455,-0.030706341970688878,0.3302195692545434
12.800999999998345,-0.04052039238429475,0.3397838245097668
13.000999999998234,-0.047985977897235424,0.3485366218764818
13.200999999998123,-0.05694426074938044,0.3560854861059122
13.400999999998012,-0.06813064517865976,0.3625257419618781
13.600999999997901,-0.07799826993202151,0.3697913689244893
13.80099999999779,-0.08687932358784776,0.3774183589444123
14.00099999999768,-0.09608209082018765,0.3821669658297697
14.200999999997569,-0.10723684012637912,0.38544867411211203
14.400999999997458,-0.11457516746357468,0.3900434422067696
14.600999999997347,-0.12174026962379374,0.3944341677129653
14.800999999997236,-0.12755142886426996,0.3973440543558017
15.000999999997125,-0.13523086475866605,0.39954584632784945
15.200999999997014,-0.13930537492135528,0.4038339225271892
15.400999999996904,-0.15170363459310343,0.4043054433746243
15.600999999996793,-0.16198142581760394,0.4050140150462954
15.800999999996682,-0.1701553529803276,0.4062872061641947
16.000999999996573,-0.17752748868228818,0.4067510511438881
16.200999999996817,-0.18552252024077218,0.4076916009006022
16.40099999999706,-0.19317304564756438,0.40889566618556294
16.600999999997306,-0.20153900723286367,0.4100305713231306
16.80099999999755,-0.20784911018416355,0.40850507295583194
17.000999999997795,-0.2163141938894414,0.40582585049227476
17.20099999999804,-0.2225211076329787,0.40396813975771195
17.400999999998284,-0.23012140570690656,0.4039779074697747
17.60099999999853,-0.23688379795896694,0.40288125815171044
17.800999999998773,-0.24453750984971562,0.39979520761542847
18.000999999999017,-0.252816034978363,0.39887732002545523
18.20099999999926,-0.26262472882679405,0.3967546247816776
18.400999999999506,-0.26883479824296613,0.39579052854270225
18.60099999999975,-0.27967059789990645,0.3927686270428772
18.799999999999994,-0.2874842154746323,0.39137511485070475
19.000000000000238,-0.2957798869102128,0.3892444143040257
19.200000000000482,-0.3030982330701568,0.38695915359040456
19.400000000000727,-0.30874856979864174,0.38559271360731034
19.60000000000097,-0.3197789450475608,0.38238413643399516
19.800000000001216,-0.32693680497395355,0.3791658897526566
20.00000000000146,-0.33368251308615665,0.3773840015958289
