Time (s),X (m),Y (m)
0.001,0.00024391513958915793,0.0010158048217711127
0.20000000000000015,0.001138550850646664,-0.0006845067315360995
0.4000000000000003,0.0036307933864406037,0.0021858516928959333
0.6000000000000004,0.009324917514866892,0.0019132740155105034
0.8000000000000006,0.013416050286792672,-0.004927055529857755
1.0000000000000007,0.01580477397321758,-0.01248020653779234
1.2009999999999785,0.011582208602545224,-0.031092676066258294
1.4009999999999565,0.004929271136510051,-0.056280776282626
1.6009999999999345,0.004880162742326471,-0.08166886691766803
1.8009999999999124,0.01871673799844817,-0.10808835426818059
2.0009999999998906,0.034981758705932356,-0.14465903434439994
2.2009999999998686,0.04609333995018026,-0.184450324053656
2.4009999999998466,0.03614048702039552,-0.22503983538272543
2.6009999999998246,0.014443478204371293,-0.2596080266697205
2.8009999999998025,-0.007911230608628162,-0.29351517734743165
3.0009999999997805,-0.03259306205369176,-0.3253279662173236
3.2009999999997585,-0.05556003932390926,-0.3568913391931911
3.4009999999997365,-0.07622159635263406,-0.3911785420400277
3.6009999999997144,-0.09978168134445323,-0.41510690147807733
3.8009999999996924,-0.13251285537553595,-0.4338513450254604
4.000999999999671,-0.1668000108785012,-0.4562761852450216
4.200999999999738,-0.20013453125840153,-0.48795275097373264
4.400999999999804,-0.2364014834809474,-0.5161347339953937
4.600999999999871,-0.27857135083136275,-0.5231048907094693
4.800999999999938,-0.31828547897131987,-0.5132286026258492
5.000000000000004,-0.3435223116966857,-0.4749526710295067
5.200000000000071,-0.3724444182844504,-0.4367664186736862
5.400000000000138,-0.4033437119515274,-0.4027870431064908
5.600000000000205,-0.42018654357870244,-0.3617089342227971
5.800000000000272,-0.42716778401564437,-0.31574484439303335
6.000000000000338,-0.43163694824758037,-0.26317003181037857
6.200000000000405,-0.41489881179785093,-0.21312054599307673
6.400000000000472,-0.3798893181240872,-0.16822147461134365
6.600000000000539,-0.33647497278456656,-0.14166263861595788
6.800000000000606,-0.29119081137369557,-0.12394651898064335
7.000000000000672,-0.2441169225588708,-0.09112902370832043
7.200000000000739,-0.18854491466139472,-0.05115886933066795
7.400000000000806,-0.13356646939304165,-0.03675911622287675
7.600000000000873,-0.07763564311293837,-0.047532387464077
7.8000000000009395,-0.017036607621116133,-0.055232707324845344
8.000000000001005,0.038956745563746654,-0.07296232624641143
8.200000000000895,0.0913822426522699,-0.09477318113750129
8.400000000000784,0.1369690389028365,-0.11291489033348848
8.600000000000673,0.18652131505934288,-0.12181265601633658
8.800000000000562,0.24144884628657698,-0.12223700640065534
9.000000000000451,0.289993709079001,-0.13751468175173717
9.20000000000034,0.33314656331110054,-0.15999314267453243
9.40000000000023,0.3682771211250202,-0.18825073900323877
9.600000000000119,0.4014677147032816,-0.21759581238323447
9.800000000000008,0.4234735731879051,-0.25724376594090426
10.000999999999896,0.42562499509749546,-0.30506235366430834
10.200999999999786,0.4283017914886809,-0.35234463925997833
10.400999999999675,0.4232937768362415,-0.4009004075437287
10.600999999999564,0.41504659408702294,-0.44666324815535313
10.800999999999453,0.3999952362173242,-0.4866248788284058
11.000999999999342,0.3740050004958387,-0.5131365442538152
11.200999999999231,0.33820938544936513,-0.5246254007701423
11.40099999999912,0.2944557396005,-0.5142956067104797
11.60099999999901,0.24887077954396392,-0.48698530795366923
11.800999999998899,0.19914141744628808,-0.46376535671519725
12.000999999998788,0.1499731480691278,-0.44269700521454164
12.200999999998677,0.10026931181947632,-0.4205104716425385
12.400999999998566,0.04845304872811108,-0.40354754446895386
12.600999999998455,-0.004409231598347628,-0.3882607604880662
12.800999999998345,-0.0544216215235266,-0.3676356401762995
13.000999999998234,-0.088558426192903,-0.3299460279819115
13.200999999998123,-0.12415102439431018,-0.29591798649384443
13.400999999998012,-0.16583416205159204,-0.2652424985083506
13.600999999997901,-0.19998773812811196,-0.22713232746387899
13.80099999999779,-0.22959729480008287,-0.18984413770418668
14.00099999999768,-0.2681346570169578,-0.1496041481335382
14.200999999997569,-0.2820118083159965,-0.1019445629505247
14.400999999997458,-0.28081513196594365,-0.049306288321739736
14.600999999997347,-0.2635543539343463,-0.00120682409286365
14.800999999997236,-0.22676340738070108,0.03921941482271
15.000999999997125,-0.18157566975709602,0.07464616505116414
15.200999999997014,-0.13372578543479577,0.09737686105580835
15.400999999996904,-0.08215623892547387,0.10370940922318556
15.600999999996793,-0.02768644561579869,0.09564359434407356
15.800999999996682,0.02144899945464154,0.08143736328264925
16.000999999996573,0.06288485965796224,0.04439330233095471
16.200999999996817,0.10668736483676645,0.005930780615630765
16.40099999999706,0.14354695467872808,-0.03684567169809415
16.600999999997306,0.16007864188899384,-0.0849177162369579
16.80099999999755,0.15467094206581705,-0.13010110132681257
17.000999999997795,0.1387170879856661,-0.17111582139113354
17.20099999999804,0.1259255190258202,-0.21944055262336315
17.400999999998284,0.10626151128634923,-0.2612258407121295
17.60099999999853,0.07967825742687656,-0.2742071149048562
17.800999999998773,0.05160489174788943,-0.25905355881427916
18.000999999999017,0.01693255357739443,-0.23562035657522823
18.20099999999926,-0.016455807421902943,-0.20226412221380372
18.400999999999506,-0.048673785516549745,-0.16898605760506946
18.60099999999975,-0.08680465644767629,-0.13624515858781303
18.799999999999994,-0.12735979344300177,-0.10326039190281851
19.000000000000238,-0.15561358348541288,-0.06943224295643265
19.200000000000482,-0.16198029477980389,-0.028930719401352684
19.400000000000727,-0.1485087912841662,0.01342729725505443
19.60000000000097,-0.1263050211441663,0.05556599458648432
19.800000000001216,-0.09828733451285737,0.09215997176864445
20.00000000000146,-0.06674674133790975,0.12719956335056412
