Time (s),X (m),Y (m)
0.001,0.001152392079647418,0.0007293631428462583
0.20000000000000015,0.0021342107608836535,0.0010014551815666437
0.4000000000000003,0.010048852465343266,0.006551626794941215
0.6000000000000004,0.020237525499627283,0.00907147056238538
0.8000000000000006,0.026230201645385757,0.010329253086392582
1.0000000000000007,0.029364291563729016,0.005209746112147301
1.2009999999999785,0.04314551269468837,0.01707018577228109
1.4009999999999565,0.05956600157386447,0.04680721174680671
1.6009999999999345,0.06910335536780486,0.0715766865194184
1.8009999999999124,0.08582912766696628,0.0949480312930516
2.0009999999998906,0.10700116029983409,0.10859957493279178
2.2009999999998686,0.12722272908060617,0.11743361081801275
2.4009999999998466,0.15514380536035932,0.13658386274784262
2.6009999999998246,0.18858871667002147,0.16152569527504623
2.8009999999998025,0.2263078558951635,0.19161028986186274
3.0009999999997805,0.27524199591480786,0.22592457675829464
3.2009999999997585,0.3195732709511416,0.25559984396482094
3.4009999999997365,0.36034476003448285,0.2738155569143018
3.6009999999997144,0.4057206441564123,0.28142096845031006
3.8009999999996924,0.45371222905164055,0.28147214739858134
4.000999999999671,0.4946269383307659,0.26377279419009214
4.200999999999738,0.5328015778447397,0.2384920113357064
4.400999999999804,0.5783828777268947,0.21009097712761957
4.600999999999871,0.6249485826171439,0.17688969544160887
4.800999999999938,0.668394701115833,0.1406812172610337
5.000000000000004,0.7193172574000726,0.0939741046620412
5.200000000000071,0.7663063237681171,0.043533768673845966
5.400000000000138,0.8162556227559262,-0.013766129365624642
5.600000000000205,0.8755924758472539,-0.07504971665964333
5.800000000000272,0.9362963828263645,-0.14193584416575722
6.000000000000338,0.9887967827269298,-0.21108525857051078
6.200000000000405,1.0283887322750087,-0.28402452010862506
6.400000000000472,1.048602431827681,-0.349797570677748
6.600000000000539,1.0676563688263676,-0.41932276595487505
6.800000000000606,1.0836772074457077,-0.48960091967268177
7.000000000000672,1.0873606560564981,-0.5508560894011414
7.200000000000739,1.0740691431684322,-0.5953060656614952
7.400000000000806,1.05282003064089,-0.6290633663338899
7.600000000000873,1.0139640619727506,-0.664292766307943
7.8000000000009395,0.9589439766647744,-0.7097945235116734
8.000000000001005,0.8978029078410186,-0.7523852030702158
8.200000000000895,0.8283848075723717,-0.8022478104020102
8.400000000000784,0.7584116650444083,-0.8465486713230311
8.600000000000673,0.6881132363884057,-0.8874674968204601
8.800000000000562,0.6230661989040397,-0.9372700951340459
9.000000000000451,0.5724316195515438,-0.9863304013237302
9.20000000000034,0.5246377793437147,-1.042384960568252
9.40000000000023,0.4724191934393125,-1.1065558024340278
9.600000000000119,0.4102320730225386,-1.1707332246545936
9.800000000000008,0.34340841504805464,-1.2255108305518403
10.000999999999896,0.26349602199611255,-1.2864336755477013
10.200999999999786,0.18329460634031844,-1.344317288498249
10.400999999999675,0.09728821882186837,-1.4002873168772114
10.600999999999564,0.014951391300565584,-1.4554812857467834
10.800999999999453,-0.049931452720236504,-1.5018488288721519
11.000999999999342,-0.12075342738537412,-1.5379217408698431
11.200999999999231,-0.19587459799628681,-1.5585307674651738
11.40099999999912,-0.2647893484963144,-1.5661226527746661
11.60099999999901,-0.33255781567764686,-1.5723775423355653
11.800999999998899,-0.4049062207346084,-1.5768823189436194
12.000999999998788,-0.479186348017268,-1.5767730494253729
12.200999999998677,-0.5541821524323595,-1.5759485692507293
12.400999999998566,-0.6452825377908736,-1.5589819768024797
12.600999999998455,-0.7342836844323211,-1.5192267150781367
12.800999999998345,-0.817892445141658,-1.458220252269685
13.000999999998234,-0.8891453429286735,-1.3874699044054304
13.200999999998123,-0.9560509835564757,-1.3122012425842993
13.400999999998012,-1.017171913385053,-1.2305844199372626
13.600999999997901,-1.0694293333915368,-1.129145801591561
13.80099999999779,-1.1020914038054639,-1.0247482902395677
14.00099999999768,-1.0982092243766663,-0.9286377658974849
14.200999999997569,-1.074317086306557,-0.8365170222651012
14.400999999997458,-1.0389902310964307,-0.7640597086911799
14.600999999997347,-0.9907250968705148,-0.7017708092312224
14.800999999997236,-0.9289402274438492,-0.6432983935578701
15.000999999997125,-0.8607701252982898,-0.5919357716349168
15.200999999997014,-0.7871458178774827,-0.5380847924707006
15.400999999996904,-0.7133248129025388,-0.48309847692256935
15.600999999996793,-0.6321488293521462,-0.41674751535990434
15.800999999996682,-0.5486115512693879,-0.34709091961463295
16.000999999996573,-0.4635880204259736,-0.28099135702953865
16.200999999996817,-0.379468099300148,-0.21923394221953307
16.40099999999706,-0.29189701204478097,-0.15119661771032264
16.600999999997306,-0.2035186187416207,-0.07800943175468282
16.80099999999755,-0.11445382252406584,-0.0032396626294981593
17.000999999997795,-0.01943772318734071,0.0698079752283754
17.20099999999804,0.06880338757539904,0.13258068148169372
17.400999999998284,0.1567900283766354,0.17678447073093792
17.60099999999853,0.23485527820800287,0.1950781993616079
17.800999999998773,0.3028648494492924,0.1777190049674527
18.000999999999017,0.35254291346802985,0.14042035150188534
18.20099999999926,0.40002484464588056,0.08968883396727165
18.400999999999506,0.4530024206336358,0.021137195849906143
18.60099999999975,0.5167956630539805,-0.05941014875317291
18.799999999999994,0.5705356086537128,-0.14045882263764004
19.000000000000238,0.5991439965005904,-0.2098173748653881
19.200000000000482,0.5968198162087901,-0.2748935296647278
19.400000000000727,0.5740177702337806,-0.3401656746134588
19.60000000000097,0.5328706762045605,-0.4042143222784492
19.800000000001216,0.4782665136857728,-0.4604690352241456
20.00000000000146,0.41233874309409796,-0.5122247581722837
