Time (s),X (m),Y (m)
0.001,0.0014505791105779379,-8.989899140956135e-05
0.20000000000000015,0.00022883614757884203,0.00033090603531377947
0.4000000000000003,0.011111076147060821,-0.0025812971327920605
0.6000000000000004,0.018519951305126903,-0.007338013663737156
0.8000000000000006,0.03424264022776396,-0.01672390569004236
1.0000000000000007,0.05276064618376264,-0.02604652655589627
1.2009999999999785,0.0623674091000157,-0.02785188450417693
1.4009999999999565,0.06484464989184657,-0.029553854237628425
1.6009999999999345,0.07347774520820803,-0.0433512147603457
1.8009999999999124,0.07952167750164589,-0.06641356126422807
2.0009999999998906,0.07882715464428447,-0.09104360875645484
2.2009999999998686,0.07495799530664789,-0.11343857320904528
2.4009999999998466,0.06992521157768863,-0.12517883961283036
2.6009999999998246,0.06076150132073262,-0.1433454633278416
2.8009999999998025,0.04404142984153671,-0.1716061217087261
3.0009999999997805,0.012186816087333399,-0.209417371545771
3.2009999999997585,-0.012226729014673223,-0.2448855185509989
3.4009999999997365,-0.0296394451409169,-0.2688621396749472
3.6009999999997144,-0.05762587959935502,-0.2804667352873615
3.8009999999996924,-0.0953797394427373,-0.273528809746381
4.000999999999671,-0.1312675417141309,-0.2550608866829719
4.200999999999738,-0.1723861925309865,-0.22479361440054701
4.400999999999804,-0.2157956322638013,-0.19055621451454707
4.600999999999871,-0.26314273621303114,-0.1628468909105598
4.800999999999938,-0.30827548959790824,-0.13076284484941772
5.000000000000004,-0.34492418422518034,-0.08157209805726105
5.200000000000071,-0.3604293717990575,-0.028434012223484923
5.400000000000138,-0.3555133214966539,0.02686897930117003
5.600000000000205,-0.33313130396619467,0.0865243616766716
5.800000000000272,-0.30681607392020077,0.139299547345813
6.000000000000338,-0.2740256013350439,0.19413741614271743
6.200000000000405,-0.23732013794966483,0.25384041474231905
6.400000000000472,-0.19805408729295246,0.30817077254514613
6.600000000000539,-0.1580232414632615,0.3491062913351554
6.800000000000606,-0.1160579861467614,0.363700461413896
7.000000000000672,-0.06656580169038806,0.35384468812244546
7.200000000000739,-0.019335918602738113,0.3372994302727302
7.400000000000806,0.028373820576471486,0.31693013418900523
7.600000000000873,0.08026345785142817,0.28672952670226576
7.8000000000009395,0.13248927681562334,0.25313909851846866
8.000000000001005,0.17946088363751683,0.2204635361748672
8.200000000000895,0.22522868106439048,0.18850529747195666
8.400000000000784,0.2765761059896442,0.15541337998395513
8.600000000000673,0.3324156536521523,0.1244917572960403
8.800000000000562,0.39985372404349057,0.09345241752306722
9.000000000000451,0.4652121756357938,0.06220160530773517
9.20000000000034,0.5220213824739682,0.032434322235590604
9.40000000000023,0.5821731728448047,-0.0008915891924993326
9.600000000000119,0.6478738632345216,-0.03729312022787861
9.800000000000008,0.7131303413272856,-0.08039582185550224
10.000999999999896,0.7823793399747894,-0.1315943636373452
10.200999999999786,0.8547641786135547,-0.18272729055719836
10.400999999999675,0.9241695318201181,-0.22874276982570835
10.600999999999564,0.9882602298034839,-0.27057927612955684
10.800999999999453,1.0544939338776416,-0.322142390005589
11.000999999999342,1.0908621014595161,-0.3876966695844058
11.200999999999231,1.0946289274337175,-0.4544462551767102
11.40099999999912,1.0854221417679537,-0.5180219622378455
11.60099999999901,1.065270876670788,-0.5664430339994737
11.800999999998899,1.0187722426084744,-0.6170098092257773
12.000999999998788,0.9606775582127918,-0.6595996535512779
12.200999999998677,0.9012864542527611,-0.6819249195950834
12.400999999998566,0.8407410336324065,-0.6774433476533009
12.600999999998455,0.7807606104552466,-0.6571742028521081
12.800999999998345,0.7131601991239915,-0.6232110055051902
13.000999999998234,0.6495617237682744,-0.5877167727949528
13.200999999998123,0.5760643780928593,-0.5454924272988915
13.400999999998012,0.503940745831764,-0.5042274702106071
13.600999999997901,0.4328794518957506,-0.4581255138566703
13.80099999999779,0.36683574888288834,-0.4132520818830366
14.00099999999768,0.30428166341861496,-0.376079622236399
14.200999999997569,0.24144218881112725,-0.3392038004212671
14.400999999997458,0.18080398965105032,-0.30123616589089525
14.600999999997347,0.11597506668770081,-0.24866249838261356
14.800999999997236,0.06454705501540205,-0.18792657990701714
15.000999999997125,0.04334357461478328,-0.12154970894177619
15.200999999997014,0.04432442353776151,-0.0537049896537542
15.400999999996904,0.06175101869291225,0.010564028209096975
15.600999999996793,0.09030469053438735,0.07741367307193975
15.800999999996682,0.1272324621014667,0.14438077098132748
16.000999999996573,0.16763061426290085,0.209427094680204
16.200999999996817,0.23036159094707898,0.267916751152632
16.40099999999706,0.29653628991857467,0.29184243331477405
16.600999999997306,0.35338197111651587,0.29012221048586345
16.80099999999755,0.41436244307421316,0.26979458739390566
17.000999999997795,0.47464142871133347,0.2393537363424937
17.20099999999804,0.5343969398815053,0.20438526637368226
17.400999999998284,0.6005719717881389,0.15939435696814808
17.60099999999853,0.672418523224195,0.10905422652997294
17.800999999998773,0.7460758017152108,0.05719468531013782
18.000999999999017,0.8152673268243941,0.002296925366214229
18.20099999999926,0.8832751498161606,-0.05843506421167405
18.400999999999506,0.9452659092269207,-0.1213591798956351
18.60099999999975,0.9760244155438392,-0.17973723387615786
18.799999999999994,0.975086368211321,-0.24048053261649602
19.000000000000238,0.9572212672224124,-0.3030276573963793
19.200000000000482,0.9264751508585991,-0.3626273077164991
19.400000000000727,0.8827843519493754,-0.4014460698254392
19.60000000000097,0.8374176495712562,-0.4201271229160787
19.800000000001216,0.790435362660423,-0.4173758613637821
20.00000000000146,0.7363265718923617,-0.39803915186608574
