Time (s),X (m),Y (m)
0.001,0.0010146588340248276,-0.0008449350584490237
0.20000000000000015,2.7191496911521358e-05,0.00035719657278148983
0.4000000000000003,0.002436079994680653,1.713283807614587e-05
0.6000000000000004,0.015133180068882486,-0.01883622911398894
0.8000000000000006,0.030798812466681588,-0.032494014393338766
1.0000000000000007,0.04600123794647877,-0.04346190943750536
1.2009999999999785,0.0611441055906978,-0.06539153557245027
1.4009999999999565,0.07601175054248874,-0.07941004890545743
1.6009999999999345,0.09044109252072713,-0.09638223074123548
1.8009999999999124,0.10514831249493105,-0.11863167069584678
2.0009999999998906,0.11576229183266676,-0.1363393501306524
2.2009999999998686,0.11653689276170284,-0.1629860572087414
2.4009999999998466,0.11303511930834612,-0.20852003271924063
2.6009999999998246,0.11406836129087237,-0.2435919833957186
2.8009999999998025,0.12129086485026931,-0.26787872571286764
3.0009999999997805,0.12785308429859232,-0.2904725872527874
3.2009999999997585,0.14030159951318835,-0.30908917908390865
3.4009999999997365,0.15405066164798012,-0.32679979368453504
3.6009999999997144,0.16928348948927358,-0.3494905008425527
3.8009999999996924,0.18215352836427623,-0.37950428502105904
4.000999999999671,0.19539896809021748,-0.3990778773678584
4.200999999999738,0.20985607843089202,-0.41224361146647204
4.400999999999804,0.22755867029823434,-0.42331087997125416
4.600999999999871,0.24648894278670969,-0.43094201448672503
4.800999999999938,0.27013113326842214,-0.44188483994774996
5.000000000000004,0.28904467729086225,-0.46067279664346183
5.200000000000071,0.3034889347465463,-0.4849793491978495
5.400000000000138,0.318527984869787,-0.5159063787436798
5.600000000000205,0.3289142720984806,-0.5555855359974577
5.800000000000272,0.34510371930370803,-0.5963321034054498
6.000000000000338,0.3574401088220431,-0.6246816100534027
6.200000000000405,0.36752031529705276,-0.6680534708223316
6.400000000000472,0.38047002985005396,-0.7159768044286627
6.600000000000539,0.4005917480407254,-0.75966218138852
6.800000000000606,0.4159216626330413,-0.8013419312598475
7.000000000000672,0.42882559152674665,-0.8498020231273543
7.200000000000739,0.4420868296739038,-0.891619317500876
7.400000000000806,0.4586188051473933,-0.9171103485187568
7.600000000000873,0.47855320122311784,-0.9359463264046386
7.8000000000009395,0.49843082753999307,-0.9548606161507042
8.000000000001005,0.5191473596865368,-0.9756578317052936
8.200000000000895,0.5430848729661428,-1.0126207341080435
8.400000000000784,0.5688539782678935,-1.0556661620751449
8.600000000000673,0.5963145956255583,-1.0863836401696858
8.800000000000562,0.624135010875862,-1.107036781150928
9.000000000000451,0.6469207611059699,-1.1287052086095772
9.20000000000034,0.6721634787321317,-1.152680474340453
9.40000000000023,0.6945295454402539,-1.1883938064188653
9.600000000000119,0.7104552892743085,-1.237953832449915
9.800000000000008,0.724581592092629,-1.2802657248903
10.000999999999896,0.7406228297179936,-1.3285115762934838
10.200999999999786,0.7528989090634305,-1.3734461981702837
10.400999999999675,0.7616118476109035,-1.4093387685803034
10.600999999999564,0.7768324059916745,-1.4434399737809351
10.800999999999453,0.7900699543952527,-1.4868854451801778
11.000999999999342,0.8020298565598083,-1.5312865156245004
11.200999999999231,0.8198221594683522,-1.572668152429731
11.40099999999912,0.8238419063441308,-1.6284840187906662
11.60099999999901,0.8193326462617081,-1.6928513764064606
11.800999999998899,0.8126407576529336,-1.763864344247826
12.000999999998788,0.810807037197919,-1.8387905299283311
12.200999999998677,0.8103544585950806,-1.9075914414486588
12.400999999998566,0.8091194998543799,-1.9713224458470668
12.600999999998455,0.8059129946526458,-2.0319005840375026
12.800999999998345,0.7921862538083634,-2.0927602396717875
13.000999999998234,0.754221364957233,-2.1548969678010828
13.200999999998123,0.7177639963796593,-2.2140924017844643
13.400999999998012,0.6874158159565551,-2.272488223243529
13.600999999997901,0.6398540551393944,-2.3280679089501666
13.80099999999779,0.605900910046275,-2.374442191841004
14.00099999999768,0.5595145665417981,-2.4074573217200674
14.200999999997569,0.5136424795522232,-2.432457374266929
14.400999999997458,0.4696216687183017,-2.453008123260704
14.600999999997347,0.43561347564491637,-2.4739561153453073
14.800999999997236,0.39296860857381694,-2.4868414131043015
15.000999999997125,0.3420661045723617,-2.4943282340132535
15.200999999997014,0.28516860353772455,-2.5020980741467778
15.400999999996904,0.23021611444575932,-2.511947512647825
15.600999999996793,0.17853476560089576,-2.5220146937857337
15.800999999996682,0.13044259919254728,-2.533348790912529
16.000999999996573,0.07533880567897386,-2.5448598320760816
16.200999999996817,0.01869434106595819,-2.5581078907375217
16.40099999999706,-0.05017302622015176,-2.57434496665595
16.600999999997306,-0.11885320274356101,-2.591011320686042
16.80099999999755,-0.17836171255631655,-2.6068094286461143
17.000999999997795,-0.24468401545838997,-2.616432178855149
17.20099999999804,-0.31396634118725547,-2.620927896061915
17.400999999998284,-0.3669177166854775,-2.631113630543377
17.60099999999853,-0.4143764067731747,-2.653659685904292
17.800999999998773,-0.45994866207372087,-2.683133642262509
18.000999999999017,-0.5091958881992452,-2.7123534348935467
18.20099999999926,-0.5472224817565607,-2.739597860410487
18.400999999999506,-0.5835074444341414,-2.7626509673749315
18.60099999999975,-0.6246409198547532,-2.780696907959737
18.799999999999994,-0.6662764890464925,-2.7947728817826074
19.000000000000238,-0.7036054888562134,-2.813208011183544
19.200000000000482,-0.7392034992561957,-2.8336136806343646
19.400000000000727,-0.7860414406027335,-2.850810387811547
19.60000000000097,-0.8459510175699834,-2.8547071724248823
19.800000000001216,-0.9172160213254219,-2.853991649009746
20.00000000000146,-0.9896549175540471,-2.8337783709560656
