Time (s),X (m),Y (m)
0.001,-0.00060452123697562,-8.989899140956103e-05
0.20000000000000015,0.0013653478490703746,1.3816128638628645e-05
0.4000000000000003,0.0021478175953896714,0.0015713580609388047
0.6000000000000004,0.0027217069098448305,0.0045641980835724166
0.8000000000000006,-0.005929901081597696,0.006842900895390718
1.0000000000000007,-0.009532239666096181,0.009911237382727606
1.2009999999999785,-0.007630912320029197,0.012087632656152045
1.4009999999999565,0.0014513061948052952,0.011662405247858719
1.6009999999999345,0.01169498526483091,0.013010374454674194
1.8009999999999124,0.021386888510255348,0.014176993105106776
2.0009999999998906,0.021349943123752983,0.017077195373600897
2.2009999999998686,0.023338689594814672,0.019130846057147207
2.4009999999998466,0.02438377031436533,0.019441084980587723
2.6009999999998246,0.035350456539439204,0.021861340999635506
2.8009999999998025,0.04715036587949747,0.02455796269775518
3.0009999999997805,0.05864117754717328,0.021089363432915453
3.2009999999997585,0.06785358692003914,0.013161579801472246
3.4009999999997365,0.08004687414612185,0.012324798567925519
3.6009999999997144,0.10263071466467694,0.009815934282456269
3.8009999999996924,0.12005048418059602,0.007142149123505555
4.000999999999671,0.12667559456042304,0.008719333791453794
4.200999999999738,0.13753671529478984,0.013339215029931429
4.400999999999804,0.14758992049083486,0.016327374353067654
4.600999999999871,0.1726636866995396,0.01273445170688716
4.800999999999938,0.19490504251020668,0.008592759109663629
5.000000000000004,0.21131086270131647,0.0009936504239973275
5.200000000000071,0.2300780260204334,-0.01104845150874428
5.400000000000138,0.25054615261343227,-0.025972897493787336
5.600000000000205,0.27291322202495233,-0.0409620350900097
5.800000000000272,0.2950345216827925,-0.05541761147726453
6.000000000000338,0.3149893881167603,-0.06819146118465859
6.200000000000405,0.3296028947115497,-0.07887439672995843
6.400000000000472,0.3458653938294542,-0.08719124194075453
6.600000000000539,0.36512976152907617,-0.0931884050275295
6.800000000000606,0.3809485518711757,-0.10065528606250292
7.000000000000672,0.3993430865394183,-0.10865822380400629
7.200000000000739,0.4176915748265511,-0.11950874891403694
7.400000000000806,0.43967343347773885,-0.13626165862208486
7.600000000000873,0.466314222347077,-0.15395025916455038
7.8000000000009395,0.49424587298355227,-0.17384130600123157
8.000000000001005,0.5214060861199523,-0.19088873240608448
8.200000000000895,0.5422214547447716,-0.2025776158791681
8.400000000000784,0.5684253811012646,-0.21834131734535248
8.600000000000673,0.5994854769170904,-0.23526599817842048
8.800000000000562,0.6299504813677088,-0.25444052616123025
9.000000000000451,0.6578999041386621,-0.2758938562848919
9.20000000000034,0.6834426454219634,-0.29457634550243245
9.40000000000023,0.7057053241602688,-0.3093143790982063
9.600000000000119,0.7234767486134356,-0.319311611179862
9.800000000000008,0.7341508791030675,-0.3286857524988512
10.000999999999896,0.7456770341067873,-0.33346314699804624
10.200999999999786,0.7596844951457931,-0.34089880509488085
10.400999999999675,0.7751218218928403,-0.3474549322600709
10.600999999999564,0.7933769024832529,-0.3557656721119047
10.800999999999453,0.8167877663227201,-0.3644821296710162
11.000999999999342,0.8393275608569704,-0.3785674983448981
11.200999999999231,0.8644018470167684,-0.3904102309633406
11.40099999999912,0.8871479161571276,-0.4010662567102118
11.60099999999901,0.903690992188916,-0.4089678971730272
11.800999999998899,0.9252239456455961,-0.4239651399210585
12.000999999998788,0.9504879626844487,-0.4379418797890369
12.200999999998677,0.9710064704221509,-0.45528679564043484
12.400999999998566,0.9939902251702237,-0.4731120352688683
12.600999999998455,1.027455936005748,-0.4903424639766016
12.800999999998345,1.0566717373547745,-0.5071737899898086
13.000999999998234,1.0798404345299024,-0.5181430593108686
13.200999999998123,1.11171407698373,-0.530369725406733
13.400999999998012,1.1389194574793196,-0.5457827782157259
13.600999999997901,1.1633962854414255,-0.559612423688707
13.80099999999779,1.198340109227359,-0.5771105093205773
14.00099999999768,1.236018587826498,-0.5924727662326853
14.200999999997569,1.2652775818936077,-0.6063075023470589
14.400999999997458,1.293234626230865,-0.6185718230548357
14.600999999997347,1.322622177440281,-0.6347990601254668
14.800999999997236,1.3463776927708533,-0.6518342238749982
15.000999999997125,1.372337035777636,-0.6695351946836218
15.200999999997014,1.3942653751569078,-0.6850381892070062
15.400999999996904,1.419741965276553,-0.7007463755125809
15.600999999996793,1.4446447812939627,-0.7121654181809435
15.800999999996682,1.479785043230658,-0.7278564171338221
16.000999999996573,1.5084375799080987,-0.7481411502497992
16.200999999996817,1.5383471779952027,-0.7680076126116708
16.40099999999706,1.5655292047401956,-0.7859889551910006
16.600999999997306,1.5887800404756325,-0.798841691895746
16.80099999999755,1.621166715534126,-0.8195143232295032
17.000999999997795,1.6551945521399967,-0.8403881155137455
17.20099999999804,1.6859682418405466,-0.8606920265604482
17.400999999998284,1.7266604291955476,-0.8785142978556871
17.60099999999853,1.7628200499116558,-0.894801881737609
17.800999999998773,1.7869987200967905,-0.9078526678708944
18.000999999999017,1.8203232958950946,-0.927745520655314
18.20099999999926,1.8519800763973915,-0.9484147366530234
18.400999999999506,1.884109571743097,-0.9668008641313417
18.60099999999975,1.909847136116938,-0.9796173837411916
18.799999999999994,1.9339082574046034,-0.9928022481206572
19.000000000000238,1.952360126739282,-1.001375127541727
19.200000000000482,1.9834519357919558,-1.0076805507620863
19.400000000000727,2.007692797088535,-1.0154520844462207
19.60000000000097,2.0309029259091225,-1.02520510285256
19.800000000001216,2.0571626033355326,-1.0380787673893253
20.00000000000146,2.0866388065855537,-1.052136778179904
