Time (s),X (m),Y (m)
0.001,0.0013578629866597446,-0.0004359202765531099
0.20000000000000015,0.00268354394693593,-0.0007515047325723928
0.4000000000000003,0.010707068426980066,-0.006619865397501735
0.6000000000000004,0.02089871179390517,-0.012118814537387177
0.8000000000000006,0.03736684056834588,-0.022249095494406644
1.0000000000000007,0.05621816597172522,-0.03220003091137435
1.2009999999999785,0.07468221985456215,-0.04345373273392454
1.4009999999999565,0.09584119315940283,-0.054349370735889656
1.6009999999999345,0.12104060624225119,-0.0727094162032198
1.8009999999999124,0.13870261896506983,-0.0925841948489506
2.0009999999998906,0.14383241670596617,-0.122518657675328
2.2009999999998686,0.14658834021042608,-0.15883235426381165
2.4009999999998466,0.13690994545089208,-0.19247886775397427
2.6009999999998246,0.1091548144638941,-0.2258338555194746
2.8009999999998025,0.06436551821414749,-0.24728792630177768
3.0009999999997805,0.014245387982556264,-0.2515516297557169
3.2009999999997585,-0.02470754875609939,-0.24212927488120242
3.4009999999997365,-0.06269248977596012,-0.22715025090342617
3.6009999999997144,-0.09505518276913404,-0.19986091304509557
3.8009999999996924,-0.11593493278811882,-0.16564707181277444
4.000999999999671,-0.12798157283875278,-0.13610171807990049
4.200999999999738,-0.1281884947735135,-0.10291024273398919
4.400999999999804,-0.11860982745992393,-0.06116122316940446
4.600999999999871,-0.10924374762829715,-0.023915756573504476
4.800999999999938,-0.09505971990933797,0.010596351250471644
5.000000000000004,-0.0770627615924022,0.058620200336093234
5.200000000000071,-0.06471327640481175,0.10438144211310328
5.400000000000138,-0.04730626621889904,0.1490850803253964
5.600000000000205,-0.03070029263166962,0.1957617083754489
5.800000000000272,-0.013638173257053158,0.251099672452891
6.000000000000338,0.006465838962829563,0.30105209447454845
6.200000000000405,0.03242770896268183,0.35841522584530633
6.400000000000472,0.06243714348472275,0.4199116634908427
6.600000000000539,0.09545901196089233,0.4805547753524592
6.800000000000606,0.11759189700040625,0.5285629213723629
7.000000000000672,0.1498994289855397,0.5541528837330925
7.200000000000739,0.19381219102109273,0.5560888391037467
7.400000000000806,0.2466178068432772,0.5394820917102655
7.600000000000873,0.30333616381545586,0.5164593820979922
7.8000000000009395,0.3588421846084945,0.48879504921758027
8.000000000001005,0.40170985462023,0.4437357185970747
8.200000000000895,0.42173834724639025,0.393345516578904
8.400000000000784,0.42411929706995377,0.34485636855964275
8.600000000000673,0.42422216022566045,0.30022092555582913
8.800000000000562,0.40019455595591974,0.2531245749082575
9.000000000000451,0.36006586733036605,0.2040834908243222
9.20000000000034,0.3089165658690274,0.1529274114286414
9.40000000000023,0.2628821268695976,0.10671624937317957
9.600000000000119,0.2099575184165675,0.09258283169372068
9.800000000000008,0.1508137767060604,0.10229258355458941
10.000999999999896,0.09210473553288918,0.13896720302214158
10.200999999999786,0.04993652436050017,0.19135084756095988
10.400999999999675,0.03728717282952092,0.24380877310898522
10.600999999999564,0.04909683144731111,0.29613351636554497
10.800999999999453,0.07317780041035063,0.35248080499330575
11.000999999999342,0.11865075642932993,0.39979286459398816
11.200999999999231,0.15767435177349026,0.4292885464593732
11.40099999999912,0.2091367112571274,0.43488836174836193
11.60099999999901,0.2627881004885775,0.43196293932475166
11.800999999998899,0.32186473849665154,0.4216427576261224
12.000999999998788,0.3926784118567739,0.4059736848396793
12.200999999998677,0.4745217138372375,0.3786772365247606
12.400999999998566,0.5640277769304486,0.3413368554323854
12.600999999998455,0.6428001694543736,0.30712876728370253
12.800999999998345,0.7123332836597064,0.2760225396103979
13.000999999998234,0.7798770268306843,0.24868542418241787
13.200999999998123,0.8392454039725161,0.2130158710938376
13.400999999998012,0.8706106482798693,0.1687048777297423
13.600999999997901,0.8749133323495493,0.11361743465230453
13.80099999999779,0.863901701455015,0.051889053521141384
14.00099999999768,0.8341837549779542,-0.023828918151105234
14.200999999997569,0.7993671286420099,-0.10106312853272836
14.400999999997458,0.7617023813840355,-0.17113292851101777
14.600999999997347,0.7255690087262099,-0.24479697261843375
14.800999999997236,0.6920055318353229,-0.31611527589601024
15.000999999997125,0.6461848448606505,-0.38977293721474654
15.200999999997014,0.5769732312062854,-0.44937542526479407
15.400999999996904,0.5039334545561741,-0.4790400406880089
15.600999999996793,0.4351776578787499,-0.4770977091381783
15.800999999996682,0.3718786046951627,-0.45363448378773263
16.000999999996573,0.33384016846067216,-0.42058378031537025
16.200999999996817,0.32683064889263447,-0.37977932762286926
16.40099999999706,0.34652193884195814,-0.3422471197135062
16.600999999997306,0.37924081437812224,-0.3300783534067149
16.80099999999755,0.41838508680264125,-0.3338631235323317
17.000999999997795,0.4781044074004927,-0.35856649495969467
17.20099999999804,0.5456676566837615,-0.3874276610273252
17.400999999998284,0.610912253706922,-0.41146215073879977
17.60099999999853,0.6667402532591978,-0.42614451793702157
17.800999999998773,0.7342502147298392,-0.45347380457372793
18.000999999999017,0.8011785416950616,-0.48341329537325956
18.20099999999926,0.8659975937702125,-0.5196093344364415
18.400999999999506,0.9125767806871151,-0.5569274141191538
18.60099999999975,0.9357827470226483,-0.6103504210954285
18.799999999999994,0.9445084819145844,-0.6697760910192962
19.000000000000238,0.9393620228315981,-0.719943753671332
19.200000000000482,0.921928787315741,-0.7731202189756289
19.400000000000727,0.8837024490168542,-0.8271200894664934
19.60000000000097,0.8267206038092373,-0.8648412309469873
19.800000000001216,0.7687539066266704,-0.8789705746317124
20.00000000000146,0.7120043496120378,-0.8779596928584078
