Time (s),X (m),Y (m)
0.001,0.0014505791105779379,-8.989899140956135e-05
0.20000000000000015,0.0008818346272795432,-5.613189832489646e-05
0.4000000000000003,0.00188536335742358,-0.000335899944068653
0.6000000000000004,0.002929206619598673,-0.0005381392968295939
0.8000000000000006,0.008688393433905336,-0.0009373225568242476
1.0000000000000007,0.014295259509126572,-0.0017591755187244128
1.2009999999999785,0.01661972042819458,-0.0029659908829118
1.4009999999999565,0.01897972928233859,-0.003867257508533082
1.6009999999999345,0.021043822118802125,-0.003827115242305666
1.8009999999999124,0.024951351970253718,-0.005033105536106792
2.0009999999998906,0.029661544596767273,-0.006091339042200927
2.2009999999998686,0.03175143538049881,-0.007603295105572806
2.4009999999998466,0.03788690620714943,-0.010493492826296533
2.6009999999998246,0.04097833569015109,-0.01266324223939145
2.8009999999998025,0.04688606515164809,-0.015561111371711251
3.0009999999997805,0.050644174872030094,-0.01808530562715305
3.2009999999997585,0.05260224032368763,-0.0189047662513074
3.4009999999997365,0.055427320636085325,-0.020506436158353573
3.6009999999997144,0.05851904420257724,-0.020853172283926743
3.8009999999996924,0.06241579682417439,-0.02330318004754067
4.000999999999671,0.0648033530331659,-0.02625393800701073
4.200999999999738,0.06691097490131552,-0.029328433169367823
4.400999999999804,0.0719281144836418,-0.03128170820134579
4.600999999999871,0.07806192048617208,-0.034450875608452856
4.800999999999938,0.08369798773625631,-0.03630327580190155
5.000000000000004,0.0913369915684893,-0.04067382364979911
5.200000000000071,0.0970246419130945,-0.043281328557084574
5.400000000000138,0.10232628512176276,-0.04589270732048476
5.600000000000205,0.10911906097767805,-0.049205878842665654
5.800000000000272,0.11444466625792485,-0.053335159019330475
6.000000000000338,0.11992310009436434,-0.056130087068734444
6.200000000000405,0.12615195332088375,-0.0603100038849761
6.400000000000472,0.1340656269104252,-0.0643839130688051
6.600000000000539,0.14114102848336324,-0.06860688018280316
6.800000000000606,0.14829714844044847,-0.07133804969064547
7.000000000000672,0.15253710841483487,-0.07463501055642603
7.200000000000739,0.15863462938324796,-0.07757166469050371
7.400000000000806,0.16740995712648124,-0.08153322574392767
7.600000000000873,0.17594264640493484,-0.08544307105774478
7.8000000000009395,0.18264405891827865,-0.08763814919272485
8.000000000001005,0.18718307332868422,-0.09104027997834196
8.200000000000895,0.19436604194401913,-0.09437475938060826
8.400000000000784,0.2003521644586292,-0.09845801640192794
8.600000000000673,0.21168098248786682,-0.10324826863800671
8.800000000000562,0.2200381225086111,-0.10810224474579545
9.000000000000451,0.22772436908462368,-0.11111472486910381
9.20000000000034,0.23418478084436398,-0.1144419648715339
9.40000000000023,0.24424799455364404,-0.12216848702295191
9.600000000000119,0.25513876454563916,-0.12726749441846785
9.800000000000008,0.2658242807488645,-0.1339187507999606
10.000999999999896,0.27846305913818264,-0.14016896913802404
10.200999999999786,0.2895848461139311,-0.1459644077088202
10.400999999999675,0.2982393610284717,-0.1517561891286194
10.600999999999564,0.30674765409599203,-0.1581875237260322
10.800999999999453,0.314695971548602,-0.16210726872257628
11.000999999999342,0.3227294683821168,-0.1671320490310208
11.200999999999231,0.3312230907850165,-0.17097870240223473
11.40099999999912,0.33840452168950796,-0.17754336086073966
11.60099999999901,0.34473875909163515,-0.18141982030441073
11.800999999998899,0.3511363045081847,-0.18286931248160196
12.000999999998788,0.3561356338648503,-0.186463813362445
12.200999999998677,0.36098672304144214,-0.19402280066321817
12.400999999998566,0.36659435531932316,-0.2031686884533115
12.600999999998455,0.3699705845634457,-0.20477739176339585
12.800999999998345,0.37266334918583754,-0.21367910237295826
13.000999999998234,0.3757686320298789,-0.22091288228089503
13.200999999998123,0.3771060264376931,-0.22793240214406427
13.400999999998012,0.37786413000262603,-0.23162065123556821
13.600999999997901,0.3766850328578925,-0.23966551151690907
13.80099999999779,0.3770638257115647,-0.2469587081696858
14.00099999999768,0.37438398691834834,-0.25677617997865465
14.200999999997569,0.37208567471091014,-0.2681184497752387
14.400999999997458,0.37003446579154003,-0.27737244414766304
14.600999999997347,0.3671197172501343,-0.28614391376185855
14.800999999997236,0.3624879957051758,-0.29340371053187103
15.000999999997125,0.36054784712371774,-0.30227131285478137
15.200999999997014,0.35633447450852795,-0.3106461824444238
15.400999999996904,0.35261208795220034,-0.31949457137589593
15.600999999996793,0.3475097543258272,-0.3305275959930593
15.800999999996682,0.3454777310915846,-0.33703605792796487
16.000999999996573,0.34023231419574673,-0.3427469480792926
16.200999999996817,0.33488567013652754,-0.34994301504769987
16.40099999999706,0.32881466422093464,-0.3620372252049455
16.600999999997306,0.3234698009135686,-0.37231602096930216
16.80099999999755,0.3198502177258119,-0.3840784712886891
17.000999999997795,0.3152463838640017,-0.39355741536556105
17.20099999999804,0.3117664117647789,-0.4030150032902144
17.400999999998284,0.30806019519618677,-0.40948001675612333
17.60099999999853,0.30252922265972537,-0.4204552902421271
17.800999999998773,0.29794349052431407,-0.4309139923685306
18.000999999999017,0.29314038489672783,-0.44349614859392705
18.20099999999926,0.2866655543440921,-0.4573277666480404
18.400999999999506,0.27797811763600716,-0.46995848988660127
18.60099999999975,0.2731356695505129,-0.4790202388682351
18.799999999999994,0.2707618085114436,-0.48693518404775654
19.000000000000238,0.26695643818721615,-0.49337478095478976
19.200000000000482,0.2628318581506095,-0.5018905535856449
19.400000000000727,0.2576776336711004,-0.5138246215228934
19.60000000000097,0.2504486553122484,-0.5268053742997749
19.800000000001216,0.24303500207602388,-0.5390748666400077
20.00000000000146,0.23457960549871795,-0.5512070903298384
