Time (s),X (m),Y (m)
0.001,0.0006899943756669482,0.0009963285817120476
0.20000000000000015,0.0016030541303466823,0.0010076798427990166
0.4000000000000003,0.00929108575767655,0.004628458018345457
0.6000000000000004,0.02068998257848464,0.007677347649411762
0.8000000000000006,0.03217588839342647,0.01116857849315378
1.0000000000000007,0.05279290464364616,0.013889293949754971
1.2009999999999785,0.08513175757459843,0.010661055420750559
1.4009999999999565,0.1245170290471198,-0.00238386766105557
1.6009999999999345,0.15760067914289458,-0.020097980856153073
1.8009999999999124,0.1817036176777846,-0.04001083163495584
2.0009999999998906,0.19821521667934525,-0.05905405703248125
2.2009999999998686,0.21024121568562684,-0.08437379651388348
2.4009999999998466,0.21202787555794836,-0.10697838472297223
2.6009999999998246,0.20566751512894307,-0.11655922471816516
2.8009999999998025,0.1786961876940056,-0.12134049256381438
3.0009999999997805,0.14519258158726664,-0.12182144983400382
3.2009999999997585,0.11475586337152188,-0.11695886452733012
3.4009999999997365,0.09003849313369292,-0.10078099144751075
3.6009999999997144,0.07144664656987776,-0.0672049135449598
3.8009999999996924,0.0486756072340148,-0.022489092158832262
4.000999999999671,0.027057203582004283,0.022359718431845504
4.200999999999738,0.011581094763248024,0.06026757783917672
4.400999999999804,0.002837864455783182,0.09780511483986729
4.600999999999871,0.0033094349048225463,0.1321737039626729
4.800999999999938,0.013548203705170701,0.15405917437983702
5.000000000000004,0.03705814616210545,0.17789382121194766
5.200000000000071,0.07622143149446418,0.19365394251743223
5.400000000000138,0.12362686805965205,0.2061778501599926
5.600000000000205,0.18038772074812223,0.2217964497604664
5.800000000000272,0.2166501620824667,0.23369650511310902
6.000000000000338,0.23634336710081358,0.23024158238956852
6.200000000000405,0.24593260865838204,0.21313660804206988
6.400000000000472,0.2354646600723332,0.18522045740183463
6.600000000000539,0.20583844586506422,0.15884433209619733
6.800000000000606,0.1697209230334951,0.1394769259260971
7.000000000000672,0.1312168512380911,0.11262761292041092
7.200000000000739,0.09014334406711433,0.09659747745464231
7.400000000000806,0.0486074955968908,0.0719736670588642
7.600000000000873,0.006801167127059347,0.04917141363147166
7.8000000000009395,-0.04083853679532742,0.01687030962769217
8.000000000001005,-0.08761638348144682,-0.004204476829876354
8.200000000000895,-0.14114452633542743,-0.019162913335446275
8.400000000000784,-0.20799805198712112,-0.037909391355118276
8.600000000000673,-0.2785221886472699,-0.057693591594116495
8.800000000000562,-0.3273582803467682,-0.06363396583967885
9.000000000000451,-0.370441476659906,-0.04723536802907182
9.20000000000034,-0.4071200223942553,-0.013757166780824682
9.40000000000023,-0.44446386893761813,0.032467667409784434
9.600000000000119,-0.4631399939759527,0.0836069444519767
9.800000000000008,-0.49196753890127964,0.14321641566221463
10.000999999999896,-0.5181208814369763,0.19969314684698908
10.200999999999786,-0.5385765535184923,0.24992229205983302
10.400999999999675,-0.5372020960539922,0.29841195086376254
10.600999999999564,-0.5137604564214284,0.3549033594181791
10.800999999999453,-0.4681308310295117,0.395862517238295
11.000999999999342,-0.4126633886073541,0.42475323060303877
11.200999999999231,-0.35705145127283633,0.4610865395568051
11.40099999999912,-0.31277993379074714,0.5030368122764757
11.60099999999901,-0.28537824778841564,0.5487100099844613
11.800999999998899,-0.2658734674315992,0.5939618622698954
12.000999999998788,-0.23902193972323454,0.6483933108569062
12.200999999998677,-0.2003186749885276,0.6926548047165477
12.400999999998566,-0.14479594709837207,0.7323712917242023
12.600999999998455,-0.07415139735443846,0.7661416651797346
12.800999999998345,-0.002184130481248938,0.7899007440769167
13.000999999998234,0.0599196809834255,0.8006705659864238
13.200999999998123,0.10944533007313019,0.7894348716195793
13.400999999998012,0.14688747648686679,0.7557616636880632
13.600999999997901,0.17864917104274347,0.7086927328884856
13.80099999999779,0.21149781354900996,0.6413808108493155
14.00099999999768,0.2370826832873148,0.5555906701767646
14.200999999997569,0.26015722439696476,0.46640721924492157
14.400999999997458,0.26904344248454465,0.3738145605701003
14.600999999997347,0.26778741002163514,0.3056238594211553
14.800999999997236,0.24823019512072844,0.2591047817072972
15.000999999997125,0.21547162343526116,0.21771171137779965
15.200999999997014,0.1773140461462566,0.17377503264965272
15.400999999996904,0.12969999830628393,0.1284195281788488
15.600999999996793,0.07718444202890451,0.09176513879849033
15.800999999996682,0.014607166078934503,0.05923867102596896
16.000999999996573,-0.0568900072483396,0.02844456589024066
16.200999999996817,-0.12067299021033016,0.004330324317305759
16.40099999999706,-0.1851639209188982,-0.0112587075479925
16.600999999997306,-0.2450955109782904,0.006675391490064864
16.80099999999755,-0.2977385331417635,0.04977158015314252
17.000999999997795,-0.3297923727916704,0.1031246609990667
17.20099999999804,-0.3580927380187687,0.16800352252925102
17.400999999998284,-0.36965355424622903,0.23276392662312667
17.60099999999853,-0.3722291832139555,0.29514169133700263
17.800999999998773,-0.40030438085593606,0.36178095768520846
18.000999999999017,-0.43812464180304683,0.43815260754113294
18.20099999999926,-0.46709878725846227,0.5190110252162877
18.400999999999506,-0.5002849230807845,0.596183540979835
18.60099999999975,-0.5309513165234054,0.6727928532657641
18.799999999999994,-0.572242052247041,0.7524820176868764
19.000000000000238,-0.6198289434307394,0.8403687616198183
19.200000000000482,-0.655551973983554,0.9295426939676178
19.400000000000727,-0.6833333420097097,1.0162801609703023
19.60000000000097,-0.704986887889259,1.1048014992275983
19.800000000001216,-0.7317594402341449,1.194550243711426
20.00000000000146,-0.7711327189335392,1.286593890085916
