Time (s),X (m),Y (m)
0.001,-0.0004702548317818469,-0.0005157376242541218
0.20000000000000015,0.0013392937374106166,0.0003234355640820713
0.4000000000000003,0.003933431911358289,0.0007506694404845029
0.6000000000000004,0.008802934659475613,0.0033261248192736313
0.8000000000000006,0.016229133233585817,0.004887068193787867
1.0000000000000007,0.018809880682828697,0.003221499885506739
1.2009999999999785,0.024055816407378187,0.003014134292078691
1.4009999999999565,0.02988393564557367,0.005882812790977393
1.6009999999999345,0.0330308400873715,0.007292074112719196
1.8009999999999124,0.03756570117823279,0.010467413623146187
2.0009999999998906,0.04258976391460088,0.011096493224518809
2.2009999999998686,0.055691174184591165,0.020510123331931363
2.4009999999998466,0.06642537560381648,0.029596714679184736
2.6009999999998246,0.06773641648982628,0.03918489322602986
2.8009999999998025,0.07209752101849923,0.04870921687434914
3.0009999999997805,0.07849341692115652,0.05498110902335556
3.2009999999997585,0.08294109546165544,0.05427439371169558
3.4009999999997365,0.08915735561499731,0.06606118526513449
3.6009999999997144,0.09485387029658635,0.06796334021206496
3.8009999999996924,0.0998540728364336,0.06289287787464096
4.000999999999671,0.10490988780431877,0.07000164970845241
4.200999999999738,0.1137855036116151,0.07678936748523182
4.400999999999804,0.12048121039804566,0.08184812199085376
4.600999999999871,0.12721716909071967,0.09499603363876995
4.800999999999938,0.1325522081510931,0.11137121079559191
5.000000000000004,0.13827753989755,0.13021624769816603
5.200000000000071,0.1456495691943006,0.14306706500316593
5.400000000000138,0.15411012316053108,0.1530858663113347
5.600000000000205,0.15645422866511385,0.17550879739269007
5.800000000000272,0.16047911517433902,0.19155939344546716
6.000000000000338,0.16456375423340477,0.20741690205519442
6.200000000000405,0.1678903285994461,0.22282211132689697
6.400000000000472,0.17012247875263167,0.2446027802923293
6.600000000000539,0.17179630858712813,0.2602333041488688
6.800000000000606,0.17340707558733354,0.27218558666019554
7.000000000000672,0.17692977754320569,0.2938194942821927
7.200000000000739,0.18142727171332854,0.3121997875258472
7.400000000000806,0.18577540148437022,0.32705141344137345
7.600000000000873,0.18587987378434603,0.3393908557015704
7.8000000000009395,0.18506433955572035,0.35834660435659105
8.000000000001005,0.1826654864715112,0.38612695829977184
8.200000000000895,0.18002995681587722,0.41113285076737727
8.400000000000784,0.1784317351425576,0.4369687564636949
8.600000000000673,0.1815568500765679,0.4556454730575187
8.800000000000562,0.18192716429265934,0.47599959860784324
9.000000000000451,0.17708693290316815,0.5037984210869914
9.20000000000034,0.17836551726861302,0.5289438725983672
9.40000000000023,0.17931048808556269,0.5527488043023776
9.600000000000119,0.18209056506891147,0.5743533533107821
9.800000000000008,0.18448535925502976,0.5889710434018157
10.000999999999896,0.19057599324240318,0.6038577978745759
10.200999999999786,0.19268097495469097,0.6175349636732268
10.400999999999675,0.1956675364709026,0.637267441305987
10.600999999999564,0.20260124535058546,0.6619756158177841
10.800999999999453,0.21066631502093167,0.6854858341175397
11.000999999999342,0.22355357686215627,0.7011362921173527
11.200999999999231,0.23279581595168655,0.7158601471888524
11.40099999999912,0.23996048980899648,0.7331533806392225
11.60099999999901,0.24729801928043013,0.7506339404213861
11.800999999998899,0.24947767614446265,0.7719712114774329
12.000999999998788,0.2533872325384519,0.7860315519465567
12.200999999998677,0.25029470846206003,0.8028925538898861
12.400999999998566,0.2471528651999612,0.8235824186415498
12.600999999998455,0.24529726643247735,0.8387957725373674
12.800999999998345,0.24692469623936725,0.8589419664405566
13.000999999998234,0.24986862825099843,0.8778817772516759
13.200999999998123,0.2522931997422669,0.8984732873677477
13.400999999998012,0.25822435869614546,0.9275565866495382
13.600999999997901,0.26361914677713233,0.9504991975238944
13.80099999999779,0.269549249184165,0.9682599903426596
14.00099999999768,0.2803787413090646,0.9878132702023885
14.200999999997569,0.28823371079645216,1.0111748165330419
14.400999999997458,0.2907158142843998,1.0383175769364896
14.600999999997347,0.28554561735188666,1.0616705042767764
14.800999999997236,0.2834372229087859,1.086796106665494
15.000999999997125,0.28329949521887593,1.1116870129511862
15.200999999997014,0.28697093744325475,1.1317751204586748
15.400999999996904,0.2870862273607868,1.148197118372531
15.600999999996793,0.2885440770120834,1.168565416762896
15.800999999996682,0.2922724794006009,1.1898906071779267
16.000999999996573,0.29611496967679835,1.2032191684468867
16.200999999996817,0.2979142878752891,1.22271864937784
16.40099999999706,0.30342375222448803,1.2462353364466972
16.600999999997306,0.3124795288284151,1.2656879734485778
16.80099999999755,0.3227767795629173,1.2790352577370683
17.000999999997795,0.32603738277238087,1.303661393054542
17.20099999999804,0.3240761354436683,1.3295773145509935
17.400999999998284,0.32419778946569644,1.3537443992037594
17.60099999999853,0.33150038137687604,1.3753054054843754
17.800999999998773,0.34481790134153234,1.3913763877922802
18.000999999999017,0.35373673426326824,1.4172021214091681
18.20099999999926,0.36191941005658607,1.434798223214144
18.400999999999506,0.36766404645980005,1.461079586140006
18.60099999999975,0.3773765868431784,1.479287668029634
18.799999999999994,0.38636699976763217,1.4983011699574498
19.000000000000238,0.4014376826857952,1.5229290603068208
19.200000000000482,0.4161269606817579,1.544027996353165
19.400000000000727,0.43040618638429984,1.5603837311619897
19.60000000000097,0.43533148797941273,1.5743414670145037
19.800000000001216,0.4392091807781986,1.602089792575887
20.00000000000146,0.4385369880180727,1.6313262203352834
