Time (s),X (m),Y (m)
0.001,0.001267963995250183,-0.0005916298972236683
0.20000000000000015,0.0009580516619125319,-0.0002046899079315814
0.4000000000000003,0.002172166569573784,-0.0008748758202092472
0.6000000000000004,0.005712342485527063,-0.0036601669537352486
0.8000000000000006,0.008080828947200995,-0.0053970182651381
1.0000000000000007,0.0077611486732303185,-0.004482602515375982
1.2009999999999785,0.010271629422742087,-0.004725303524919225
1.4009999999999565,0.013956141518277775,-0.0060770350307109864
1.6009999999999345,0.019794755012402507,-0.007130155712599258
1.8009999999999124,0.024473310998920025,-0.008324444692084
2.0009999999998906,0.028366431375000827,-0.008224240682451044
2.2009999999998686,0.03411601857878737,-0.01066881246223142
2.4009999999998466,0.04000409858476571,-0.013097112268993375
2.6009999999998246,0.04953971031601833,-0.013529699438695105
2.8009999999998025,0.06248823375714979,-0.017714524446546472
3.0009999999997805,0.07498664144139418,-0.021442798383704276
3.2009999999997585,0.08678023870734196,-0.025500882738910605
3.4009999999997365,0.09983838525949089,-0.028334389732121226
3.6009999999997144,0.10717610680382428,-0.03141121442006627
3.8009999999996924,0.1168127564411698,-0.034620779745567105
4.000999999999671,0.13116889613548438,-0.04049333429129566
4.200999999999738,0.1412305968640227,-0.042047520592734644
4.400999999999804,0.1491743107735605,-0.04500811619440437
4.600999999999871,0.16007309897936214,-0.04809548861570642
4.800999999999938,0.1676368357146454,-0.049356429336773394
5.000000000000004,0.1675887811681253,-0.04767025148757743
5.200000000000071,0.17117798630762043,-0.044233551225803545
5.400000000000138,0.18081853180521168,-0.04455905465113526
5.600000000000205,0.19340022018004083,-0.04636918096720576
5.800000000000272,0.20058564885011032,-0.04683891562700327
6.000000000000338,0.21295727233014233,-0.04977646184219191
6.200000000000405,0.21886195290604832,-0.05257455929156401
6.400000000000472,0.23134807914169356,-0.05542940009423395
6.600000000000539,0.2420508177735466,-0.058474456069590654
6.800000000000606,0.2540503906347123,-0.06093367399260345
7.000000000000672,0.2662540078773139,-0.06485047391210053
7.200000000000739,0.2788415693626581,-0.06706895940348058
7.400000000000806,0.29346360217035805,-0.0710506016361037
7.600000000000873,0.3067137508490118,-0.07252679439733813
7.8000000000009395,0.3180190009247567,-0.07441344746312333
8.000000000001005,0.3272108968491366,-0.07767372898124109
8.200000000000895,0.3422492477054212,-0.08015183814294911
8.400000000000784,0.35132542425994656,-0.07948821172902908
8.600000000000673,0.3689628920393784,-0.08360504940204035
8.800000000000562,0.3821783700319504,-0.08644978160284668
9.000000000000451,0.3978278677337072,-0.08861864394373943
9.20000000000034,0.40826755434230644,-0.09199080172110868
9.40000000000023,0.41862937144560497,-0.09479244086470326
9.600000000000119,0.4284706806102878,-0.09552125521645656
9.800000000000008,0.44237448358394715,-0.10015983406951004
10.000999999999896,0.4596029791233445,-0.10325764373418894
10.200999999999786,0.4738620040244972,-0.10513721822686195
10.400999999999675,0.4875895413388249,-0.10962181195153249
10.600999999999564,0.49932245770871947,-0.11047072213976224
10.800999999999453,0.5088762114525042,-0.11397345247563134
11.000999999999342,0.5146967196590352,-0.11370589895981298
11.200999999999231,0.5305877478444198,-0.11759976513312478
11.40099999999912,0.5416283714356058,-0.12015889874372954
11.60099999999901,0.5485598515234698,-0.11997525323482296
11.800999999998899,0.5582851380765417,-0.11959810911822942
12.000999999998788,0.5730329925736751,-0.12465312030157917
12.200999999998677,0.5863765030978292,-0.1243471350492906
12.400999999998566,0.6002454166723278,-0.1270400673217885
12.600999999998455,0.6128823917101829,-0.12801603634205141
12.800999999998345,0.6274813744122822,-0.13056959534407606
13.000999999998234,0.6461790800285974,-0.137930434826666
13.200999999998123,0.6624084088075487,-0.14214466951583604
13.400999999998012,0.6708573023149716,-0.1428506594447459
13.600999999997901,0.6815927640996439,-0.14292128059920958
13.80099999999779,0.6961567361310729,-0.1439679917705411
14.00099999999768,0.7039572177199739,-0.14249133852346638
14.200999999997569,0.7172579548417021,-0.14526937397306297
14.400999999997458,0.7304900192212306,-0.1486249682055293
14.600999999997347,0.7432199462970281,-0.15032728599803125
14.800999999997236,0.7520943564977177,-0.15004244027438918
15.000999999997125,0.7646996087612676,-0.1518372769935214
15.200999999997014,0.7761359177429167,-0.15397533261244684
15.400999999996904,0.7883685158393339,-0.15530078269594524
15.600999999996793,0.8011856397862417,-0.15523200806028947
15.800999999996682,0.8141585358604577,-0.15707707234882576
16.000999999996573,0.8274265630738005,-0.15976514350652712
16.200999999996817,0.8454377820193025,-0.16845181895574968
16.40099999999706,0.8596383367765547,-0.17099889503514742
16.600999999997306,0.8705515523366287,-0.17346984700077744
16.80099999999755,0.8878462507208927,-0.1755641207327429
17.000999999997795,0.8975824331544479,-0.17639593016505867
17.20099999999804,0.906124666427934,-0.17621200481254146
17.400999999998284,0.9186492767160488,-0.1773678489370481
17.60099999999853,0.9330921256567161,-0.17887559593833896
17.800999999998773,0.9424411493001542,-0.17766542728096835
18.000999999999017,0.9563153694770764,-0.17838312178656662
18.20099999999926,0.9697924272492402,-0.17693533919084822
18.400999999999506,0.9830883586087172,-0.17660102573744316
18.60099999999975,0.9978371463730203,-0.17940230721428246
18.799999999999994,1.0183650504973938,-0.18508265675573213
19.000000000000238,1.0267467406451265,-0.18704417297900153
19.200000000000482,1.041705008617277,-0.18912311146689872
19.400000000000727,1.0589333676681503,-0.19120503553669502
19.60000000000097,1.069897860540263,-0.19204775715026345
19.800000000001216,1.0879864662903562,-0.1960040620392586
20.00000000000146,1.096188017408402,-0.19617056823240736
