Time (s),X (m),Y (m)
0.001,0.0009387665610552813,0.0008932837685830061
0.20000000000000015,0.0006358922416259884,0.0001660483296426159
0.4000000000000003,0.004496006759772137,-0.002211229491774446
0.6000000000000004,0.018811762627937424,-0.001781223490897705
0.8000000000000006,0.038607986771012404,0.001486015672543385
1.0000000000000007,0.06225714062192248,0.0046312575586113375
1.2009999999999785,0.09032129840607327,-0.0023178500980691433
1.4009999999999565,0.10604899998940889,-0.012594155393532994
1.6009999999999345,0.10940690939199647,-0.023551102088910234
1.8009999999999124,0.11703048366123177,-0.04137576633683616
2.0009999999998906,0.12485635062941046,-0.0642837218217523
2.2009999999998686,0.13375950149477445,-0.08925375245739407
2.4009999999998466,0.14262077577871116,-0.11833488020885635
2.6009999999998246,0.16236806367929496,-0.15639485834590292
2.8009999999998025,0.18857564945910343,-0.19860084605713166
3.0009999999997805,0.21464089389119748,-0.24442614190978934
3.2009999999997585,0.23304864711204062,-0.29449953115807065
3.4009999999997365,0.25281849937734086,-0.3478022716456167
3.6009999999997144,0.2777580238811302,-0.4016054119391443
3.8009999999996924,0.29826687540699126,-0.45720424206619803
4.000999999999671,0.3124337847585543,-0.5005811299577095
4.200999999999738,0.3198715696720795,-0.5330164396361295
4.400999999999804,0.3168960257991327,-0.5602322312539415
4.600999999999871,0.29824692279936876,-0.5781793770182728
4.800999999999938,0.2687230240014874,-0.6007191245809146
5.000000000000004,0.2411335725555776,-0.6183758662391827
5.200000000000071,0.2050332318195609,-0.6386163784257938
5.400000000000138,0.15943535516227933,-0.6717757231325485
5.600000000000205,0.11009026202295169,-0.701866515288778
5.800000000000272,0.0602755238768499,-0.7398542352451061
6.000000000000338,-0.0023547907839988435,-0.792237381195437
6.200000000000405,-0.06729880261577961,-0.8352058556244639
6.400000000000472,-0.14162139504405324,-0.8762893334750673
6.600000000000539,-0.21294868787063942,-0.9119739943854538
6.800000000000606,-0.2794844379606831,-0.9435415529792858
7.000000000000672,-0.32823817654116577,-0.9630055661585228
7.200000000000739,-0.37033097307591223,-0.9657107342099701
7.400000000000806,-0.404665768903223,-0.9496831963624759
7.600000000000873,-0.4440417307992094,-0.9185115306398769
7.8000000000009395,-0.49309774258799355,-0.8853173049151417
8.000000000001005,-0.5369446648462711,-0.8447687144041367
8.200000000000895,-0.5716382026708045,-0.7993409818329851
8.400000000000784,-0.5966466724960529,-0.734025254850188
8.600000000000673,-0.6107682423118835,-0.6731029163152342
8.800000000000562,-0.6041609467905118,-0.6202888707128082
9.000000000000451,-0.5802000360287941,-0.5886650615808942
9.20000000000034,-0.541379344610232,-0.5655891292301599
9.40000000000023,-0.4904007816164009,-0.5522559485072116
9.600000000000119,-0.42806138005496824,-0.5422109298225397
9.800000000000008,-0.36389822725529797,-0.5477484628873301
10.000999999999896,-0.30368388295250043,-0.5737623396430463
10.200999999999786,-0.26048901075402864,-0.6127268357175452
10.400999999999675,-0.2223063998504134,-0.6593508883920451
10.600999999999564,-0.18852477325359063,-0.7102512913420438
10.800999999999453,-0.15886058761620214,-0.763046406288993
11.000999999999342,-0.12245441630969923,-0.8218433851464306
11.200999999999231,-0.07718907962793309,-0.8880950648713883
11.40099999999912,-0.032256918349413174,-0.9579564144022001
11.60099999999901,0.03530566496859057,-1.0225377810579157
11.800999999998899,0.09600060285455753,-1.0867046172332593
12.000999999998788,0.15630051260809869,-1.1547602407924855
12.200999999998677,0.23087035473500608,-1.2195225921394581
12.400999999998566,0.30094726314365405,-1.2773098256790643
12.600999999998455,0.36306769427899244,-1.341609111774348
12.800999999998345,0.40894413570574045,-1.412123130995419
13.000999999998234,0.45102678132932367,-1.480277139229562
13.200999999998123,0.49515034592755147,-1.5547545836098142
13.400999999998012,0.5484152775796299,-1.6259317001053921
13.600999999997901,0.6233039810360628,-1.6883107232186882
13.80099999999779,0.7042012891224874,-1.7280445785142533
14.00099999999768,0.7958900469720515,-1.7402450255572466
14.200999999997569,0.8914834816078976,-1.7372555665216873
14.400999999997458,0.9829770936453794,-1.7127663909655237
14.600999999997347,1.0748148801371238,-1.672744931152471
14.800999999997236,1.1650156924992043,-1.6256067070564801
15.000999999997125,1.2505119814556092,-1.593574218197026
15.200999999997014,1.3398487956877694,-1.5667146566572288
15.400999999996904,1.414646675369899,-1.5616439092345074
15.600999999996793,1.4627675862866947,-1.5871863375471407
15.800999999996682,1.493043613998093,-1.6306308819739241
16.000999999996573,1.492634931290037,-1.6788627981195883
16.200999999996817,1.4639604363223602,-1.7147754395171346
16.40099999999706,1.4181478217670929,-1.7425075786459205
16.600999999997306,1.3550378565535948,-1.761744473810231
16.80099999999755,1.289395103145087,-1.7609306935367677
17.000999999997795,1.2394974806094707,-1.740294647424153
17.20099999999804,1.2108765123624763,-1.7123357313941263
17.400999999998284,1.1983136924513726,-1.6698581029120112
17.60099999999853,1.2057489665693655,-1.6287780754546568
17.800999999998773,1.2284474247056487,-1.5934411090352543
18.000999999999017,1.259680587035187,-1.568313730695681
18.20099999999926,1.2935772334816165,-1.550766051804185
18.400999999999506,1.331256686030722,-1.5524360234719836
18.60099999999975,1.3509685638719924,-1.5713256984446573
18.799999999999994,1.368851351968242,-1.603225389002377
19.000000000000238,1.3808157707928312,-1.6444988991229896
19.200000000000482,1.391450000238631,-1.6815606955152487
19.400000000000727,1.3936883652876428,-1.7198748919556803
19.60000000000097,1.3768681005625518,-1.7504652221816095
19.800000000001216,1.3495735823833588,-1.7939171908932352
20.00000000000146,1.3138126224313256,-1.830892367878792
