Time (s),X (m),Y (m)
0.001,0.0014505791105779379,-8.989899140956135e-05
0.20000000000000015,0.0005391926865764223,8.679978866517247e-05
0.4000000000000003,-0.000358506750880134,-0.0007515526285837024
0.6000000000000004,-0.0002778917223227061,-0.004276722079842065
0.8000000000000006,-0.0002700142123463367,-0.00458263849466621
1.0000000000000007,0.004826694581768509,-0.00314206021583961
1.2009999999999785,0.018998881501377216,-0.002585312247365447
1.4009999999999565,0.034716655062069,-0.011140115245728818
1.6009999999999345,0.055381848632712456,-0.020438190958234268
1.8009999999999124,0.0698386614553291,-0.030356677736103566
2.0009999999998906,0.0818673270283052,-0.03815690988231827
2.2009999999998686,0.10668874665905768,-0.05140030078065135
2.4009999999998466,0.12332506816535811,-0.06010963205072017
2.6009999999998246,0.14533198523167074,-0.07260026366504872
2.8009999999998025,0.17108051320322687,-0.08650404437523239
3.0009999999997805,0.19189930853650597,-0.09324833320893959
3.2009999999997585,0.2134327756226225,-0.10504046751311384
3.4009999999997365,0.23949687745736162,-0.12158236402268092
3.6009999999997144,0.2663538372827265,-0.14401547434814144
3.8009999999996924,0.2962420201099285,-0.16445169381058905
4.000999999999671,0.3334632405464846,-0.18289637687222698
4.200999999999738,0.37417405595470227,-0.20583192284642882
4.400999999999804,0.41430026984951945,-0.23225710510822276
4.600999999999871,0.45916343230442896,-0.26209558920921733
4.800999999999938,0.5049505158970722,-0.2968070144936671
5.000000000000004,0.543736602272198,-0.331095476908014
5.200000000000071,0.5771944125549442,-0.3580721242276115
5.400000000000138,0.6064232093764195,-0.3679453459535486
5.600000000000205,0.6329120695537449,-0.37701874140814595
5.800000000000272,0.6663418224911467,-0.39974493886212087
6.000000000000338,0.704812926197739,-0.4308847183063324
6.200000000000405,0.7490443555403249,-0.4705097515156454
6.400000000000472,0.797270503511183,-0.5119705527605375
6.600000000000539,0.8420759593865265,-0.5512329490576648
6.800000000000606,0.8643931594970552,-0.5958130636665259
7.000000000000672,0.86267355824147,-0.6394340113881061
7.200000000000739,0.8499136322209092,-0.6788230313654212
7.400000000000806,0.8294643876750152,-0.7155562701605991
7.600000000000873,0.8057896907496713,-0.749912457250714
7.8000000000009395,0.7787206530714673,-0.7903741361724937
8.000000000001005,0.7389748598587895,-0.8399248857693505
8.200000000000895,0.6935860266486468,-0.8902964765379986
8.400000000000784,0.6514370614975296,-0.9262643954709018
8.600000000000673,0.6180664771814175,-0.9360339634159752
8.800000000000562,0.5777192493893748,-0.922505453912774
9.000000000000451,0.5338087726276988,-0.8975327451992826
9.20000000000034,0.4905236920530111,-0.867514118804224
9.40000000000023,0.44627536577721955,-0.8313642187906732
9.600000000000119,0.40222898336654583,-0.7862362321539692
9.800000000000008,0.35921903408152106,-0.7271036661481198
10.000999999999896,0.33670494002102946,-0.6726347118802923
10.200999999999786,0.3363217865186808,-0.6241878299256995
10.400999999999675,0.34949976346824513,-0.582525043711187
10.600999999999564,0.3684866840771481,-0.5377317439563867
10.800999999999453,0.3857093993733071,-0.500541293091849
11.000999999999342,0.4042893643270066,-0.4630266837665695
11.200999999999231,0.4202921416665386,-0.42823733937160385
11.40099999999912,0.4386374755161203,-0.3818528453730285
11.60099999999901,0.46428421719392354,-0.3310843631296523
11.800999999998899,0.4877953150192212,-0.2905388764292533
12.000999999998788,0.5066447408939974,-0.24874773961532026
12.200999999998677,0.5310879576409067,-0.1973837023637328
12.400999999998566,0.5530583533669883,-0.15894515687639352
12.600999999998455,0.5680593978647672,-0.125519700413911
12.800999999998345,0.5797901490393175,-0.09198320301273483
13.000999999998234,0.5975766202914572,-0.055446167947300465
13.200999999998123,0.6175197915165593,-0.014932351002991937
13.400999999998012,0.6396282175581743,0.030485407506209754
13.600999999997901,0.6684838643294961,0.08400827123770034
13.80099999999779,0.707006582439094,0.13783388935950064
14.00099999999768,0.7452930884573993,0.18839445672001007
14.200999999997569,0.7882464277529166,0.21686530093549433
14.400999999997458,0.8358032583790596,0.2143167649503261
14.600999999997347,0.8834876820142159,0.1942169260652521
14.800999999997236,0.9322700674328936,0.16207587315566738
15.000999999997125,0.9822546797497125,0.11816006379587968
15.200999999997014,1.0344998061563289,0.06687710763860741
15.400999999996904,1.0833370197501138,0.01952994302292533
15.600999999996793,1.1195932621076055,-0.03689217395607741
15.800999999996682,1.1453081954031141,-0.1019093522691441
16.000999999996573,1.1581076863911433,-0.15550313077748498
16.200999999996817,1.153585810881855,-0.20249133441975822
16.40099999999706,1.1335026654027327,-0.25706201136993667
16.600999999997306,1.1044507430233663,-0.3136496169870937
16.80099999999755,1.0707504455167267,-0.3750410966340773
17.000999999997795,1.039951094056088,-0.42928249411891517
17.20099999999804,1.009320557572143,-0.47645593335963926
17.400999999998284,0.9752220473466979,-0.5311209193226403
17.60099999999853,0.9397013133061358,-0.585313287524827
17.800999999998773,0.9018207371727652,-0.637909671477011
18.000999999999017,0.8579812017934252,-0.6971359859129311
18.20099999999926,0.8152240044470292,-0.7578171429146277
18.400999999999506,0.7782107771220143,-0.8155085607747167
18.60099999999975,0.7494269999745713,-0.8669053372552599
18.799999999999994,0.7172352233228562,-0.910693125043016
19.000000000000238,0.6824324147205442,-0.9662170767999816
19.200000000000482,0.6438887836074938,-1.026194726656146
19.400000000000727,0.6088791937065877,-1.0861339724335037
19.60000000000097,0.5627667126453062,-1.1400221843632588
19.800000000001216,0.514100530664714,-1.1728176705663675
20.00000000000146,0.4838484774671878,-1.1834541617631504
