Time (s),X (m),Y (m)
0.001,-0.00060452123697562,8.989899140956135e-05
0.20000000000000015,0.000892919934720384,-0.00010261716165918254
0.4000000000000003,0.0012997138715146665,-7.939097722902464e-05
0.6000000000000004,0.002135455770924966,-0.0002587078450183475
0.8000000000000006,0.0032383044122037204,-0.000574952597849787
1.0000000000000007,0.004686953930130271,-0.0007625110285420251
1.2009999999999785,0.006174412596916771,-0.0009381279628487797
1.4009999999999565,0.007792853367178768,-0.0009726500038057124
1.6009999999999345,0.00957869016486365,-0.000984635523119499
1.8009999999999124,0.011349366928821988,-0.0009115134278753866
2.0009999999998906,0.01316880950894418,-0.0007831108774500023
2.2009999999998686,0.015010290044571594,-0.0006108938863777338
2.4009999999998466,0.016734670077873815,-0.00038959620276686615
2.6009999999998246,0.018711957985562563,-0.0001800679326087221
2.8009999999998025,0.02071565737676828,-2.282280884782235e-05
3.0009999999997805,0.022642589839257276,0.00023680122217711416
3.2009999999997585,0.024438837384339347,0.0005531960559910737
3.4009999999997365,0.026359952822818274,0.0009168787994512164
3.6009999999997144,0.028340202842409557,0.0012919854593523158
3.8009999999996924,0.030433530213635047,0.0017316932530571554
4.000999999999671,0.03254778024279134,0.0021827915148737564
4.200999999999738,0.034634605685669895,0.002753726052847874
4.400999999999804,0.036834726751067234,0.0033503623171728123
4.600999999999871,0.03912356400513293,0.004004356843031743
4.800999999999938,0.04130003334654426,0.004727959986899723
5.000000000000004,0.04394029775947235,0.005513780780336947
5.200000000000071,0.046448401194156386,0.00637370586886212
5.400000000000138,0.048964565988492234,0.007336746727283883
5.600000000000205,0.05171929820072551,0.008259299806509515
5.800000000000272,0.054475339952404465,0.009427796985403287
6.000000000000338,0.05719796038626747,0.010572304172964331
6.200000000000405,0.06017549729198219,0.011830410036231654
6.400000000000472,0.06325437958646757,0.013258282687638843
6.600000000000539,0.06637041879695173,0.014883443058744398
6.800000000000606,0.06952246293185446,0.016536463707672887
7.000000000000672,0.07258593517926167,0.018371940339127875
7.200000000000739,0.07584587661548844,0.02031319608888856
7.400000000000806,0.07917570384677577,0.02252230440736082
7.600000000000873,0.08245369104344596,0.024712408201474724
7.8000000000009395,0.08606942796376729,0.027167007106797734
8.000000000001005,0.08948467045084942,0.029606478996796897
8.200000000000895,0.09291073135784618,0.03214353209562981
8.400000000000784,0.0963729878887601,0.03474497021103321
8.600000000000673,0.10012190889894115,0.037640044749882307
8.800000000000562,0.10376298311350511,0.04044844825199824
9.000000000000451,0.10737449707989682,0.04340734591864404
9.20000000000034,0.11128538990295798,0.04671177595971366
9.40000000000023,0.11510735946359542,0.049918065906495876
9.600000000000119,0.118781467864324,0.05303532763244446
9.800000000000008,0.12274198477563114,0.05638131046663143
10.000999999999896,0.1263263796753974,0.05929705288675811
10.200999999999786,0.130313493403026,0.06294106274404233
10.400999999999675,0.13394692065879463,0.06613208746319811
10.600999999999564,0.13794854037773474,0.06961568389130779
10.800999999999453,0.14187205172301806,0.0730208550914614
11.000999999999342,0.1454986036721904,0.07628575136194107
11.200999999999231,0.14899108076846862,0.07954203439633437
11.40099999999912,0.15296744522204972,0.08332615499596799
11.60099999999901,0.15641585672790528,0.08654894292391567
11.800999999998899,0.16069217529978655,0.090992226458241
12.000999999998788,0.16463682051945183,0.0948234107124913
12.200999999998677,0.1684491379413864,0.09870591424870269
12.400999999998566,0.17205749230193762,0.10221835347158609
12.600999999998455,0.17608605201026423,0.10660729241075796
12.800999999998345,0.17958478438523137,0.11025096534172978
13.000999999998234,0.18292853894000433,0.1136875720424803
13.200999999998123,0.18612935041379713,0.11719550021404555
13.400999999998012,0.18941293473983034,0.12067693277521686
13.600999999997901,0.19281412200082268,0.1244872912419624
13.80099999999779,0.1962080985296547,0.1283676873171976
14.00099999999768,0.19951622724881962,0.13209053346523816
14.200999999997569,0.2031774093539903,0.13667976760141107
14.400999999997458,0.20725868268599135,0.14146947764087628
14.600999999997347,0.2112741402742074,0.1464813943042325
14.800999999997236,0.2153104624326429,0.15153463705809248
15.000999999997125,0.21966977303684118,0.1568289655391884
15.200999999997014,0.2233855548133775,0.16171452450339135
15.400999999996904,0.22741536381383365,0.1670814310404191
15.600999999996793,0.2314257204897018,0.1724625537606871
15.800999999996682,0.2350359725560689,0.17727414775628944
16.000999999996573,0.23876980723508265,0.18255760034544025
16.200999999996817,0.24239419560669279,0.18791165491228784
16.40099999999706,0.24669924961701,0.19491617810466563
16.600999999997306,0.2507675695321898,0.20183810845646696
16.80099999999755,0.2549264119436069,0.20864281349394365
17.000999999997795,0.25864272560178586,0.21412808866331032
17.20099999999804,0.26208165286638296,0.2192895096673194
17.400999999998284,0.2657063349103213,0.22503793266104852
17.60099999999853,0.2694069140114115,0.23136796526602016
17.800999999998773,0.273484316041501,0.23973885747710375
18.000999999999017,0.27707906806683064,0.24589932419777685
18.20099999999926,0.28116331436995384,0.25334738014150754
18.400999999999506,0.284607642408772,0.2604276112786183
18.60099999999975,0.2878267447902124,0.26777004426781936
18.799999999999994,0.2911131879716214,0.27644114041240997
19.000000000000238,0.29461698362833344,0.2852707049289617
19.200000000000482,0.2976054054519569,0.2938165833538393
19.400000000000727,0.30086007756449235,0.30325575381027237
19.60000000000097,0.3034787568835623,0.3111994600314876
19.800000000001216,0.3057830570327609,0.3200632752017412
20.00000000000146,0.3078775116235769,0.32911252355056103
