Time (s),X (m),Y (m)
0.001,-0.00023999057263828476,-0.0007901558823345064
0.20000000000000015,0.0019521889011277732,0.0012851276579675427
0.4000000000000003,0.0009813642301795152,0.0018603228327975583
0.6000000000000004,0.0021414257829077284,0.002698062411738486
0.8000000000000006,0.0003523975479380113,0.00031629280621665054
1.0000000000000007,0.0025686852175057086,-0.0023478704015394386
1.2009999999999785,0.015950495959120518,-0.00861937380479912
1.4009999999999565,0.03416898951324329,-0.020895185800503837
1.6009999999999345,0.04911553282923553,-0.0374721844856344
1.8009999999999124,0.06449600279872586,-0.05420246267765531
2.0009999999998906,0.07882913096125208,-0.07504171704893317
2.2009999999998686,0.08141993704083557,-0.09350856822692524
2.4009999999998466,0.10008652789617657,-0.11511281398463996
2.6009999999998246,0.11720063622000307,-0.1381174754223917
2.8009999999998025,0.1433423644827885,-0.16726132761978052
3.0009999999997805,0.16696900912304494,-0.19932938843767406
3.2009999999997585,0.18426367273413571,-0.23378082521476184
3.4009999999997365,0.1987717609627729,-0.26581928770203894
3.6009999999997144,0.2008902973924541,-0.29711224373894596
3.8009999999996924,0.20488652362134085,-0.32504148707360747
4.000999999999671,0.21720374770615836,-0.35674840271329794
4.200999999999738,0.23184464718463396,-0.39150405579979686
4.400999999999804,0.25562254689781183,-0.42921362171098637
4.600999999999871,0.2885075726183016,-0.47481612933989503
4.800999999999938,0.31499837705619743,-0.5241380688494842
5.000000000000004,0.3498611390959325,-0.5748681917518575
5.200000000000071,0.3783554015978834,-0.6274044926510819
5.400000000000138,0.40867538769330497,-0.6823057341830784
5.600000000000205,0.44250756728862345,-0.7324000841305358
5.800000000000272,0.47173291209367035,-0.7794794848048682
6.000000000000338,0.49886966540706124,-0.8253251479293173
6.200000000000405,0.529828273436684,-0.8660190683985554
6.400000000000472,0.5763067318394173,-0.9114170097712877
6.600000000000539,0.6198950424033683,-0.9592517139468258
6.800000000000606,0.6694690580473545,-1.005760819695556
7.000000000000672,0.7140723486876609,-1.0467245320825762
7.200000000000739,0.7632873395372949,-1.0909527556249057
7.400000000000806,0.8072499577304011,-1.1441112778872224
7.600000000000873,0.8526858771920561,-1.1976344912853156
7.8000000000009395,0.8934382083476362,-1.244788550313222
8.000000000001005,0.9405298361297603,-1.297117831000944
8.200000000000895,0.9895734665219078,-1.3596500982412048
8.400000000000784,1.0271673152190826,-1.4207174996992806
8.600000000000673,1.0599743164972677,-1.4861389968840641
8.800000000000562,1.1018209569758612,-1.5520502229535684
9.000000000000451,1.139784907858742,-1.6184411627408541
9.20000000000034,1.1796692946587404,-1.6816653143537241
9.40000000000023,1.2296312885370762,-1.7310288606987045
9.600000000000119,1.2817722309912798,-1.7709519803239004
9.800000000000008,1.3364549957978102,-1.8165209512259703
10.000999999999896,1.385931347035813,-1.869623216059718
10.200999999999786,1.4377490935157584,-1.9315977466095486
10.400999999999675,1.4909157404825581,-1.9961891482906442
10.600999999999564,1.5542929639504317,-2.045020809987883
10.800999999999453,1.6332235560543413,-2.0715635918197237
11.000999999999342,1.6980417593726305,-2.0869674848496507
11.200999999999231,1.755934485623918,-2.0973548559650466
11.40099999999912,1.8161407052564853,-2.113689160102224
11.60099999999901,1.8829376945508902,-2.1414686899593995
11.800999999998899,1.9413245152376448,-2.178864434336126
12.000999999998788,1.9960042621669212,-2.2242698255377067
12.200999999998677,2.0528458631338005,-2.278496091132842
12.400999999998566,2.119773826905532,-2.3382659088520863
12.600999999998455,2.1863574048750927,-2.3908598796135503
12.800999999998345,2.2524826902774433,-2.420993096170006
13.000999999998234,2.3227541793845683,-2.430385839402007
13.200999999998123,2.3975186289697357,-2.427702413534279
13.400999999998012,2.476661185838653,-2.4143349852116467
13.600999999997901,2.568984243411747,-2.395035975138154
13.80099999999779,2.6460121398056766,-2.379236970043105
14.00099999999768,2.7055591169144764,-2.383468403107362
14.200999999997569,2.7537146065572844,-2.410389159160887
14.400999999997458,2.80782841943307,-2.451062223442334
14.600999999997347,2.8618984464816943,-2.5031540179241687
14.800999999997236,2.930525675969134,-2.560994583544798
15.000999999997125,2.994145044421297,-2.6156718575095734
15.200999999997014,3.0642139632275756,-2.6766197968118424
15.400999999996904,3.124058719200614,-2.735879675023206
15.600999999996793,3.186775009235845,-2.7955369525645337
15.800999999996682,3.2541422981816885,-2.8682834971654168
16.000999999996573,3.3346937540730996,-2.9544732299379204
16.200999999996817,3.4053828703873976,-3.0371645970567838
16.40099999999706,3.469713875445174,-3.1079038484575894
16.600999999997306,3.530312405261989,-3.1719171467806864
16.80099999999755,3.6075860620795863,-3.2347068746784653
17.000999999997795,3.680890074635167,-3.2917612281457824
17.20099999999804,3.7517795866765775,-3.3451843119740055
17.400999999998284,3.8064945245654074,-3.406609082306427
17.60099999999853,3.8584313422745153,-3.4787344583722892
17.800999999998773,3.9079288759556103,-3.556331422950331
18.000999999999017,3.968238521830738,-3.6371295045427714
18.20099999999926,4.034407864151001,-3.7220915387056133
18.400999999999506,4.097793282263105,-3.8156644078346997
18.60099999999975,4.1528319639951645,-3.9086278619655133
18.799999999999994,4.1974924735276185,-4.0058255660543365
19.000000000000238,4.227299058388324,-4.094909962437129
19.200000000000482,4.216169977434423,-4.158323973140283
19.400000000000727,4.176328663981131,-4.202048850044971
19.60000000000097,4.1242391890436,-4.244248562496205
19.800000000001216,4.083439869126583,-4.313087068496281
20.00000000000146,4.0652042214832305,-4.390385807638123
