Time (s),X (m),Y (m)
0.001,0.0006021427340131596,-0.0010158048217711122
0.20000000000000015,0.0008992441120634654,-0.00012461702220710523
0.4000000000000003,0.0016114301729764082,-0.0004595893395700628
0.6000000000000004,0.001486218586883956,0.0013337847377626177
0.8000000000000006,0.003551260603696329,0.0006028529095371556
1.0000000000000007,0.006075981039811606,-0.00026348414820555544
1.2009999999999785,0.009116480694442378,0.002067756686271847
1.4009999999999565,0.011757150590716392,0.002312357638715372
1.6009999999999345,0.015393321626821893,0.003100373569089057
1.8009999999999124,0.01938669782071157,0.00871030339762535
2.0009999999998906,0.022221013899739947,0.008756396374010456
2.2009999999998686,0.025558719126857265,0.007611090284514232
2.4009999999998466,0.030187749683525694,0.011072670282875867
2.6009999999998246,0.0336982537706267,0.01167756442111408
2.8009999999998025,0.03881473353961418,0.014040216079241115
3.0009999999997805,0.043714490258762874,0.017931766481901226
3.2009999999997585,0.04889774232290923,0.019628992851841224
3.4009999999997365,0.0554587208988648,0.020786690448740434
3.6009999999997144,0.062270438345714815,0.01950034721920018
3.8009999999996924,0.06942279330765165,0.018074988990470813
4.000999999999671,0.07487500418578662,0.022689830090804143
4.200999999999738,0.08373467971545766,0.02303242756998138
4.400999999999804,0.09136241137240081,0.025005892545199398
4.600999999999871,0.09952953874107023,0.02714635186180727
4.800999999999938,0.10557971494968664,0.030015722113037456
5.000000000000004,0.11162373892175914,0.03188089380166865
5.200000000000071,0.11415764143436381,0.036659839786045825
5.400000000000138,0.11422734766376409,0.04308779011001362
5.600000000000205,0.12044894515616872,0.0488199875455443
5.800000000000272,0.12306273014623008,0.053024646972041484
6.000000000000338,0.12415804715308716,0.05704003240173691
6.200000000000405,0.1275179630559888,0.06007701764440421
6.400000000000472,0.1317453617861131,0.06336631120825624
6.600000000000539,0.13101097784782334,0.06699870716012103
6.800000000000606,0.13155503015371578,0.07201472765074626
7.000000000000672,0.13417623966325912,0.0778226656109672
7.200000000000739,0.13386342224855877,0.07959216243862108
7.400000000000806,0.13342843752914213,0.0844965983480476
7.600000000000873,0.13056918705134568,0.08961542535749104
7.8000000000009395,0.1321868998631211,0.09622163695179542
8.000000000001005,0.13434051748930156,0.10396087691457971
8.200000000000895,0.1347554546990221,0.1096039688021168
8.400000000000784,0.13825208677283293,0.11534425946437593
8.600000000000673,0.13860998394257834,0.12196364157238773
8.800000000000562,0.13625508526317692,0.1271441777275765
9.000000000000451,0.13634268015841455,0.13287160781998306
9.20000000000034,0.13707170030702703,0.13913939478484666
9.40000000000023,0.13830991329866898,0.14761008090994415
9.600000000000119,0.13729332251283966,0.15444564415228423
9.800000000000008,0.13672528620165167,0.16287306175528554
10.000999999999896,0.13542141214634218,0.17066132982892127
10.200999999999786,0.13423803437562784,0.17626028231111512
10.400999999999675,0.13525709406697928,0.18172177524089417
10.600999999999564,0.1340835278391199,0.18659295112935279
10.800999999999453,0.13131069600667908,0.19273988330518502
11.000999999999342,0.12895911670662746,0.19880286012842258
11.200999999999231,0.13320272650137188,0.20614507265514442
11.40099999999912,0.13188543914471187,0.21252395754016043
11.60099999999901,0.13007069743437707,0.21954483349866705
11.800999999998899,0.12843324447468646,0.22473867673081108
12.000999999998788,0.12801518751196503,0.2305206589939873
12.200999999998677,0.127656938586899,0.23721761040097622
12.400999999998566,0.12504120088106596,0.24474584619583872
12.600999999998455,0.12331186579788905,0.2536032104381499
12.800999999998345,0.12037116035601297,0.261690414780141
13.000999999998234,0.11648139051266905,0.268472753411436
13.200999999998123,0.11074013050392088,0.2749669222322153
13.400999999998012,0.10834547027405696,0.28351811404089916
13.600999999997901,0.10515871619727803,0.2902401196966288
13.80099999999779,0.1025208957762185,0.2963251971844781
14.00099999999768,0.10016146243856834,0.30591222460602996
14.200999999997569,0.0958177156554238,0.3122383426386619
14.400999999997458,0.09317705336758664,0.3183730520329512
14.600999999997347,0.09243439933372777,0.3272230054862322
14.800999999997236,0.08870300609266549,0.3311743660434575
15.000999999997125,0.08647548568060609,0.3405180189376333
15.200999999997014,0.08581132917413288,0.3513782595858957
15.400999999996904,0.08429545160746749,0.3608116734035441
15.600999999996793,0.07790241580493493,0.3606805552489286
15.800999999996682,0.07333251772051612,0.3668440106557211
16.000999999996573,0.07106631304389747,0.3736619415954845
16.200999999996817,0.06608407706191347,0.3779910815236684
16.40099999999706,0.06234488932206618,0.3867240188204335
16.600999999997306,0.060095083409878645,0.39003512041781235
16.80099999999755,0.057558517247158776,0.39528107618316066
17.000999999997795,0.0527915885015434,0.4003424766889183
17.20099999999804,0.04773950151539434,0.4043534704450514
17.400999999998284,0.043389050453840804,0.4068461412431854
17.60099999999853,0.040238353016742036,0.40933071537585
17.800999999998773,0.03494739762316156,0.41004879748825884
18.000999999999017,0.02926916614282196,0.4121473668934587
18.20099999999926,0.022937363075336552,0.41272018152087603
18.400999999999506,0.016406461315881478,0.4136213643672267
18.60099999999975,0.01051851013440822,0.4178300544619302
18.799999999999994,0.005900227173651254,0.4170250821233092
19.000000000000238,-0.00029142830105114987,0.4213484930154871
19.200000000000482,-0.006804933622966144,0.42190320659780306
19.400000000000727,-0.016027405086333688,0.4216385999955294
19.60000000000097,-0.022090548941689075,0.4177670716613744
19.800000000001216,-0.029027298233161084,0.4178927819185661
20.00000000000146,-0.03621299442503479,0.42072538860367414
