Time (s),X (m),Y (m)
0.001,-0.00030633420604509907,0.0007293631428462583
0.20000000000000015,0.0008963488146544015,-0.0002625811835582028
0.4000000000000003,0.0019978156917443467,-0.0015274430846118272
0.6000000000000004,0.001746595703088005,4.336680539592084e-06
0.8000000000000006,0.0004925999099216332,0.0005940968147514127
1.0000000000000007,0.0058410501800576255,-0.00255606894073129
1.2009999999999785,0.008152520084065334,-0.001525554753731258
1.4009999999999565,0.011060349038132961,0.0034320031126236447
1.6009999999999345,0.01667723893048028,0.007675261002065826
1.8009999999999124,0.02884703575280592,0.0024811547274763883
2.0009999999998906,0.036091394003418556,-0.0003834092817020253
2.2009999999998686,0.044751410725764905,-0.00017088611881548263
2.4009999999998466,0.05149274075268559,-0.0024185033142845804
2.6009999999998246,0.05755769623286998,0.00024185955810981366
2.8009999999998025,0.06953691842731105,-0.001494434021770601
3.0009999999997805,0.08536608571267777,-0.006226049151938441
3.2009999999997585,0.10239458252210769,-0.013659459697921452
3.4009999999997365,0.11025010819985545,-0.013360942724746125
3.6009999999997144,0.1170049231710416,-0.015184063769201325
3.8009999999996924,0.12878676908433723,-0.02098388676393204
4.000999999999671,0.13429858375293485,-0.02514014188218694
4.200999999999738,0.143523186688462,-0.029710405075754672
4.400999999999804,0.14944699745723208,-0.029854917110981604
4.600999999999871,0.15766785773969655,-0.029905271272980927
4.800999999999938,0.17010139165917337,-0.031119739445609463
5.000000000000004,0.18255581685142136,-0.03475107578899571
5.200000000000071,0.1927476342987603,-0.034331459278859416
5.400000000000138,0.2064732779221355,-0.03359275603089489
5.600000000000205,0.22373691259634418,-0.036762932745525126
5.800000000000272,0.23375904616917592,-0.037433821901292554
6.000000000000338,0.2377129743704613,-0.036034718075853615
6.200000000000405,0.24821154266982945,-0.039351176569995185
6.400000000000472,0.26170387330352857,-0.03925464555242491
6.600000000000539,0.2747819591538406,-0.04119229302568455
6.800000000000606,0.2864021482572657,-0.042861285659549345
7.000000000000672,0.2937266288133361,-0.040575785392081495
7.200000000000739,0.30138509575791333,-0.03935844891030203
7.400000000000806,0.31798497548559435,-0.03946816144369607
7.600000000000873,0.32348194151292753,-0.03757081135709195
7.8000000000009395,0.32713431234241835,-0.033875105561528424
8.000000000001005,0.3375828389316541,-0.03335243041505572
8.200000000000895,0.3513966551356316,-0.03397945636546812
8.400000000000784,0.36833615558604454,-0.03509760205890036
8.600000000000673,0.3785019396291563,-0.034841077574087984
8.800000000000562,0.39261049835876183,-0.03320129507438048
9.000000000000451,0.40723493847319553,-0.032799452012435996
9.20000000000034,0.41702564803497855,-0.03297544399682474
9.40000000000023,0.42547629221846484,-0.031198295192794993
9.600000000000119,0.4389111716942122,-0.030497649118610165
9.800000000000008,0.45109799619938307,-0.030418417249853634
10.000999999999896,0.4553862561913952,-0.031558623660102925
10.200999999999786,0.46402459054813944,-0.030001201921232946
10.400999999999675,0.4707314740645365,-0.026793262318553713
10.600999999999564,0.4790232130258272,-0.0224233726550346
10.800999999999453,0.494283694247693,-0.02221987980971284
11.000999999999342,0.5068916409070188,-0.022631597047741668
11.200999999999231,0.5162539713744083,-0.018292054564208866
11.40099999999912,0.5237767611371497,-0.016619658688833326
11.60099999999901,0.5291418463947396,-0.013148560982354675
11.800999999998899,0.5337460013833495,-0.007108582672809319
12.000999999998788,0.5443016403896976,-0.005773450822314431
12.200999999998677,0.5569016923897331,-0.004761582420716821
12.400999999998566,0.5680767076472739,-0.0011803718991897228
12.600999999998455,0.5806793726186859,0.0028904993617087354
12.800999999998345,0.5879046195639136,0.006266352157298072
13.000999999998234,0.6002526563074208,0.00568933654666071
13.200999999998123,0.6139723870951586,0.0034566740086079454
13.400999999998012,0.6217679690212788,0.0050044579932221845
13.600999999997901,0.6301927627976578,0.008364462241372026
13.80099999999779,0.6366082628182856,0.012488082667405895
14.00099999999768,0.638957276279881,0.01769452127265956
14.200999999997569,0.6488462188900606,0.01922475132629531
14.400999999997458,0.6549949792340263,0.023195982303935724
14.600999999997347,0.6644753454121083,0.02284382438192476
14.800999999997236,0.6763012090388324,0.02233512741960553
15.000999999997125,0.68262809180017,0.02694836707085118
15.200999999997014,0.6946606000298509,0.027169144307444514
15.400999999996904,0.7049915806322627,0.027407554333033678
15.600999999996793,0.7208673490484819,0.03044498402834086
15.800999999996682,0.7320377262328743,0.03197827023887319
16.000999999996573,0.7423396641104821,0.03349774403482477
16.200999999996817,0.7546078428076984,0.03383741973094715
16.40099999999706,0.7623928487372283,0.03697491370320412
16.600999999997306,0.775014355502742,0.038820890165813596
16.80099999999755,0.7886773687686075,0.0414903355080718
17.000999999997795,0.8013675309452126,0.042760857264437444
17.20099999999804,0.8155390970822238,0.04370012590637615
17.400999999998284,0.8338947446373972,0.04396119600244029
17.60099999999853,0.8502751083688733,0.04411977278074283
17.800999999998773,0.8597260414397495,0.046944021875333496
18.000999999999017,0.8668008970294824,0.048625748800865114
18.20099999999926,0.8687036841543223,0.05190721541023927
18.400999999999506,0.8796816591804598,0.051594055380220646
18.60099999999975,0.8914440727912475,0.052973728702597554
18.799999999999994,0.9024623228465747,0.05688063594439077
19.000000000000238,0.9118424453820709,0.05698117187023724
19.200000000000482,0.9278530563597286,0.06032512485683121
19.400000000000727,0.9409322901660254,0.06153888182494012
19.60000000000097,0.9478851878165158,0.06601237079240864
19.800000000001216,0.9593643255777967,0.06780636158635348
20.00000000000146,0.968272650843881,0.0681994140492515
