Time (s),X (m),Y (m)
0.001,-0.0004702548317818469,-0.0005157376242541218
0.20000000000000015,0.0011516211504365723,0.00018774624806329064
0.4000000000000003,0.002289695086600901,0.00045349174736597584
0.6000000000000004,0.004689466228307141,0.0013134599220894921
0.8000000000000006,0.010097488772570126,0.0030047155742329427
1.0000000000000007,0.01479201341420242,0.0032870408491556674
1.2009999999999785,0.019981840674336553,0.011823634278767571
1.4009999999999565,0.03146912935094457,0.02444511102687459
1.6009999999999345,0.04195559108450458,0.03135924633153601
1.8009999999999124,0.04999777868499499,0.03641537383962933
2.0009999999998906,0.0586206566427503,0.045483835955032824
2.2009999999998686,0.07188605956063825,0.060360668793097094
2.4009999999998466,0.08229942313852377,0.07089100640939441
2.6009999999998246,0.09343458327985482,0.08186561175976353
2.8009999999998025,0.10239357869502448,0.09190479448834091
3.0009999999997805,0.10707595819466516,0.09890322306743343
3.2009999999997585,0.1117749096235153,0.11186708360347178
3.4009999999997365,0.11877198872164679,0.1285840772471453
3.6009999999997144,0.12075588558757293,0.14146567534733506
3.8009999999996924,0.1248476276911993,0.15585358822908785
4.000999999999671,0.12861554774275338,0.16326901171428712
4.200999999999738,0.13123084572929994,0.17350318558939667
4.400999999999804,0.13180323162806504,0.1832749765250073
4.600999999999871,0.12909449345120144,0.19385179462858132
4.800999999999938,0.12733802798300067,0.2085250012642325
5.000000000000004,0.12791706662526567,0.22625602179058563
5.200000000000071,0.13042110320025313,0.23892596002412061
5.400000000000138,0.13196773682989033,0.25232144721728267
5.600000000000205,0.1301774287734397,0.2658767635998125
5.800000000000272,0.1244743010495419,0.28298174489455724
6.000000000000338,0.11934544906133482,0.30372863681444906
6.200000000000405,0.1190345340336126,0.3166585024317095
6.400000000000472,0.11980507656400531,0.3276902949201337
6.600000000000539,0.12333831574375781,0.34153096725772375
6.800000000000606,0.12341565826001775,0.3586650072642824
7.000000000000672,0.12553456811468894,0.3785930981173158
7.200000000000739,0.12819530541044602,0.40282335016622456
7.400000000000806,0.12862311912084518,0.42525353403018223
7.600000000000873,0.13001275584293967,0.44795149668261286
7.8000000000009395,0.13150575150102825,0.46810011980218846
8.000000000001005,0.12917592377027207,0.4801596433606364
8.200000000000895,0.1258145276908615,0.4936479667347381
8.400000000000784,0.12477363836348994,0.500464238060153
8.600000000000673,0.1216325979859719,0.5158964550976228
8.800000000000562,0.1176983058633415,0.5340726480017373
9.000000000000451,0.1142271158955777,0.5463761814301756
9.20000000000034,0.11002470363117672,0.5650976870842727
9.40000000000023,0.10421902209716662,0.5875559953393907
9.600000000000119,0.09743225886536841,0.6091559009026839
9.800000000000008,0.09051857982996216,0.6276329100736079
10.000999999999896,0.08475955034170743,0.6491468741821785
10.200999999999786,0.07912656906634784,0.6735494686325713
10.400999999999675,0.07504871721664055,0.6937496976116595
10.600999999999564,0.0702310377964558,0.7158741382324366
10.800999999999453,0.06627966597207136,0.7325414135763234
11.000999999999342,0.06273208846651147,0.7573273288727894
11.200999999999231,0.05937879952622208,0.7784191874854752
11.40099999999912,0.055682094942577365,0.7994277753463425
11.60099999999901,0.04886907990867566,0.8225534152452728
11.800999999998899,0.0379038039114044,0.8401573776595552
12.000999999998788,0.028304371808084594,0.8602661247516002
12.200999999998677,0.016519699449766265,0.8878942103599562
12.400999999998566,0.0012019383917300434,0.909440536242984
12.600999999998455,-0.014283856429222195,0.933515895942573
12.800999999998345,-0.029040486978566732,0.9568408730264114
13.000999999998234,-0.04422910822427277,0.976804341524063
13.200999999998123,-0.05053753725283283,0.9937422738762165
13.400999999998012,-0.06706500431006009,1.0158226006698596
13.600999999997901,-0.08771175347381721,1.042767507030266
13.80099999999779,-0.10913766922442227,1.0687513252224552
14.00099999999768,-0.1312735291081296,1.0916309110488978
14.200999999997569,-0.15845654243882037,1.1157700139526152
14.400999999997458,-0.18127397521590255,1.13894610162496
14.600999999997347,-0.2017417201101896,1.15723257611823
14.800999999997236,-0.2216153588659993,1.1788872685656036
15.000999999997125,-0.24345991791834917,1.1985625584081911
15.200999999997014,-0.26625603148769295,1.2141939126036496
15.400999999996904,-0.2908358105690605,1.2288685278337346
15.600999999996793,-0.31661162511925,1.2421088141441468
15.800999999996682,-0.342524019580663,1.2522812827286487
16.000999999996573,-0.37110980543115907,1.255495149704473
16.200999999996817,-0.39915976893936883,1.258354128128974
16.40099999999706,-0.4312938287431106,1.2602546707610451
16.600999999997306,-0.4503268295424204,1.2669662168573548
16.80099999999755,-0.46693021618454716,1.2756476456025312
17.000999999997795,-0.48800126415228706,1.2865530197050752
17.20099999999804,-0.5125879963323287,1.2956138866214433
17.400999999998284,-0.5406063402048626,1.2996431706609324
17.60099999999853,-0.5680893909707644,1.302452799037415
17.800999999998773,-0.598252084710226,1.301373669662262
18.000999999999017,-0.6248831818731274,1.301126946847148
18.20099999999926,-0.65066633556856,1.3032350501341377
18.400999999999506,-0.6835829857387061,1.3008456731551628
18.60099999999975,-0.7120544463981386,1.2972228138534079
18.799999999999994,-0.7325418920419172,1.2962605660705047
19.000000000000238,-0.7439849347080983,1.299710546542777
19.200000000000482,-0.7544292973920934,1.3027530233036828
19.400000000000727,-0.7726200429375063,1.300065668517982
19.60000000000097,-0.7995353328794527,1.2989505587912593
19.800000000001216,-0.8233512806379405,1.2989917666059254
20.00000000000146,-0.8442545038935952,1.2982667043686422
