Time (s),X (m),Y (m)
0.001,0.0007758142491328282,-0.0009692696795465074
0.20000000000000015,0.0008970760122920775,0.00010292735869193935
0.4000000000000003,0.0013360351615010326,0.0027896828933071352
0.6000000000000004,0.005789746246872747,-0.000935488681907787
0.8000000000000006,0.010592922261545911,-0.0022195130364566873
1.0000000000000007,0.02044313068116648,0.005373302950736738
1.2009999999999785,0.026575898073083578,0.009757445273490501
1.4009999999999565,0.03474538311655318,0.01727158570960386
1.6009999999999345,0.0428205857810019,0.014762302853806069
1.8009999999999124,0.04830775679996276,0.015512381090797396
2.0009999999998906,0.06034924139813751,0.01139043287178857
2.2009999999998686,0.07089203214130635,0.014825661543563408
2.4009999999998466,0.07885047721557065,0.019109002303222607
2.6009999999998246,0.08839643185151741,0.014629843089171002
2.8009999999998025,0.10047270249903564,0.013513260676995265
3.0009999999997805,0.11323456549189023,0.01906958108860086
3.2009999999997585,0.12502715480739235,0.02500272520865262
3.4009999999997365,0.1372769291249698,0.019977215518062898
3.6009999999997144,0.14499740876819658,0.020045542582222627
3.8009999999996924,0.16151158420035416,0.01899399062691623
4.000999999999671,0.1780593197682659,0.015478651119940571
4.200999999999738,0.1913830736809887,0.009594075259916734
4.400999999999804,0.20670256924026795,0.018664167194639373
4.600999999999871,0.2182947975326945,0.017520738689839818
4.800999999999938,0.22601475462328763,0.01858276606174644
5.000000000000004,0.23572178020212806,0.011621259612163514
5.200000000000071,0.24417142445739556,-0.00149016373039455
5.400000000000138,0.2541773027440313,-0.008385282009230687
5.600000000000205,0.2626261247847163,-0.01182430784382849
5.800000000000272,0.2725552556327816,-0.011087348966110336
6.000000000000338,0.2863618756285807,-0.015045264593837577
6.200000000000405,0.30062396442425704,-0.02244817751096139
6.400000000000472,0.315738128543456,-0.027301320771299882
6.600000000000539,0.33569764136048513,-0.031624901258996085
6.800000000000606,0.35545585958849985,-0.03588951802232708
7.000000000000672,0.37545151950342537,-0.0332883346079059
7.200000000000739,0.39015652954779806,-0.03058126029070333
7.400000000000806,0.4030159344730823,-0.02653528241608993
7.600000000000873,0.41598836694883157,-0.03397156246261787
7.8000000000009395,0.4292334237507889,-0.04547131051274596
8.000000000001005,0.44158249733368166,-0.05480536252734207
8.200000000000895,0.45631567025087455,-0.06089243849486213
8.400000000000784,0.47576936816497356,-0.05797753912262923
8.600000000000673,0.49328243621901047,-0.060588363244887825
8.800000000000562,0.5063757500572068,-0.059840179484205766
9.000000000000451,0.5195956943742334,-0.06571336674255548
9.20000000000034,0.5340867451611925,-0.06483403455707965
9.40000000000023,0.5486866207402428,-0.06076190181831196
9.600000000000119,0.5605118427954715,-0.06328816105513276
9.800000000000008,0.5704907336047811,-0.07359395054117925
10.000999999999896,0.5800658601387273,-0.07338021799165302
10.200999999999786,0.5898082982853676,-0.07491352544814942
10.400999999999675,0.6009477610976593,-0.07704894745454116
10.600999999999564,0.6107277876424686,-0.07993876210572864
10.800999999999453,0.6223047100125962,-0.08179948974687731
11.000999999999342,0.6323329016935493,-0.08874751977059323
11.200999999999231,0.6412702771145556,-0.09183503061563116
11.40099999999912,0.65724969407926,-0.08844669694867613
11.60099999999901,0.6716224149257729,-0.09562801229636543
11.800999999998899,0.684207541373467,-0.1046988371350517
12.000999999998788,0.6938939592863106,-0.10129885500961677
12.200999999998677,0.7057303914535227,-0.09683335312980798
12.400999999998566,0.7196550224056,-0.09849532835610808
12.600999999998455,0.7334143630216016,-0.10645946739849989
12.800999999998345,0.7421600804413665,-0.11866016874513559
13.000999999998234,0.7477764743111267,-0.11991826854196383
13.200999999998123,0.753723542345934,-0.11934036573334726
13.400999999998012,0.7641469997812091,-0.12139674786002706
13.600999999997901,0.7773484559368034,-0.12319886384854618
13.80099999999779,0.7911723517749923,-0.12116612079600639
14.00099999999768,0.8034435414662361,-0.11970838359009232
14.200999999997569,0.8156365433379297,-0.1323906902660796
14.400999999997458,0.8237124062063466,-0.1453967779811224
14.600999999997347,0.8367071537957883,-0.14338712501396897
14.800999999997236,0.8535092426535366,-0.1448565961345005
15.000999999997125,0.8741677174493406,-0.14254217852026635
15.200999999997014,0.8933461887017934,-0.14759833044359716
15.400999999996904,0.9118611896976447,-0.14853336502902534
15.600999999996793,0.9251537153990074,-0.15167938161200345
15.800999999996682,0.9382147200381116,-0.1576559404097707
16.000999999996573,0.9507417701894728,-0.16397720100759008
16.200999999996817,0.9675221516086159,-0.1673317566610757
16.40099999999706,0.9826482908875757,-0.16593600306094086
16.600999999997306,0.99668521915878,-0.16726744129743618
16.80099999999755,1.0099008016989366,-0.18085104763797408
17.000999999997795,1.0215130980569356,-0.18929210223716827
17.20099999999804,1.0366077392272062,-0.18735692117140887
17.400999999998284,1.0500308963576335,-0.19221126284616777
17.60099999999853,1.0673539378169277,-0.1969601247284194
17.800999999998773,1.0804062498126252,-0.20586889047652523
18.000999999999017,1.0959863322628562,-0.20562100403826156
18.20099999999926,1.1159145725615869,-0.208534102462657
18.400999999999506,1.135656141096916,-0.2154444535236078
18.60099999999975,1.1549769123282008,-0.2157909037295156
18.799999999999994,1.1749229342052596,-0.21723376473578657
19.000000000000238,1.1917827930173144,-0.21876387523413074
19.200000000000482,1.2080373370590995,-0.2201715342878445
19.400000000000727,1.2216930579445624,-0.22584266448870727
19.60000000000097,1.2321033937704884,-0.22460381791332176
19.800000000001216,1.2462384045832646,-0.2293580469585648
20.00000000000146,1.2618956611317704,-0.22842321028119136
