Time (s),X (m),Y (m)
0.001,0.0008589492133542695,0.0009348340498585851
0.20000000000000015,0.0008846104805366357,2.5091662896894153e-05
0.4000000000000003,0.0013280686444501315,0.00014496342150886832
0.6000000000000004,0.00191075915049004,0.00012155164392902211
0.8000000000000006,0.0027501286009391874,0.000496431653588548
1.0000000000000007,0.003648848016633769,0.0009393122805090639
1.2009999999999785,0.004460175495492135,0.0011621430310409947
1.4009999999999565,0.005300568155628732,0.0015526832612264103
1.6009999999999345,0.006156868199773612,0.002039973953789659
1.8009999999999124,0.007022226951700337,0.0025443380102529193
2.0009999999998906,0.00790133626917889,0.0030379980699421012
2.2009999999998686,0.008795336392587247,0.003538998822195913
2.4009999999998466,0.009702662302276852,0.004064151114919552
2.6009999999998246,0.01061811784352615,0.00461949652096595
2.8009999999998025,0.011531048554081403,0.005200502536731164
3.0009999999997805,0.012444055524965815,0.00580054212371621
3.2009999999997585,0.013389432710864273,0.006414765239516617
3.4009999999997365,0.014371877418309049,0.007041122193176562
3.6009999999997144,0.0153890375984015,0.007679556870853284
3.8009999999996924,0.01643760517774595,0.00833017606572532
4.000999999999671,0.017514054573506983,0.008992476145576807
4.200999999999738,0.018616255654163465,0.00966568750412349
4.400999999999804,0.01974224394898297,0.010348278599607958
4.600999999999871,0.020890361686081556,0.01103938247270051
4.800999999999938,0.02205905756160109,0.011738183102501808
5.000000000000004,0.023241547748607896,0.01245787805855698
5.200000000000071,0.024438083238268234,0.013170212522514005
5.400000000000138,0.025629422929839277,0.013889657393960543
5.600000000000205,0.02681305331441312,0.014615522165827437
5.800000000000272,0.027987674144839828,0.01534725941645368
6.000000000000338,0.029151494678433608,0.016084146231863446
6.200000000000405,0.03030214437504509,0.01682513257543135
6.400000000000472,0.03142451988949454,0.017566517469272222
6.600000000000539,0.03250949005052552,0.01830710082807688
6.800000000000606,0.03355681458548441,0.019047162654763947
7.000000000000672,0.03456664669948765,0.019786655727343727
7.200000000000739,0.03553891426936368,0.02052569192732763
7.400000000000806,0.036473560668134924,0.021264300713505255
7.600000000000873,0.03737051141025772,0.022002460777278045
7.8000000000009395,0.03823036414284734,0.02273997238677597
8.000000000001005,0.03905289789156392,0.023476799227833814
8.200000000000895,0.03983802195589731,0.02421273503560067
8.400000000000784,0.04058551340270589,0.024947755912661372
8.600000000000673,0.04129327127613303,0.02568228216787775
8.800000000000562,0.041930258470422956,0.026418278232160128
9.000000000000451,0.042484502798875785,0.027155195652075963
9.20000000000034,0.04295760904712624,0.027892540461618334
9.40000000000023,0.0433512889803867,0.028630129779875828
9.600000000000119,0.04366834771364381,0.029367797071207524
9.800000000000008,0.04391170089341942,0.030105381165263723
10.000999999999896,0.044088338516171596,0.030830971232505566
10.200999999999786,0.044195279006873756,0.03156860238225601
10.400999999999675,0.04424001409967749,0.03230624391974215
10.600999999999564,0.04422632123940492,0.033044080557261254
10.800999999999453,0.04415895860764917,0.03378215326396763
11.000999999999342,0.044042200477311604,0.03452051410176909
11.200999999999231,0.0438822699188901,0.03525948493161034
11.40099999999912,0.04368220099462529,0.03599910653352587
11.60099999999901,0.0434462267290365,0.03673954860534333
11.800999999998899,0.043185921990392756,0.037481578173207325
12.000999999998788,0.04290743009983539,0.038225748493508946
12.200999999998677,0.042612161950580735,0.03897215640236633
12.400999999998566,0.042300297579320134,0.03972076226775063
12.600999999998455,0.04197378066985905,0.040471567703879045
12.800999999998345,0.04163608616976233,0.04122473854180934
13.000999999998234,0.04128808588841867,0.0419802993368297
13.200999999998123,0.04093090720224404,0.04273833487933741
13.400999999998012,0.04056664708413244,0.04349907210622579
13.600999999997901,0.04019572902457113,0.04426243471579199
13.80099999999779,0.039818174421798205,0.04502834042771163
14.00099999999768,0.03943402867659325,0.04579685783257851
14.200999999997569,0.03904332364209858,0.04656815065124042
14.400999999997458,0.03864593029886105,0.04734241873127707
14.600999999997347,0.03824186050975975,0.04811972609056678
14.800999999997236,0.03783113475874098,0.04890019990525826
15.000999999997125,0.037413833337563006,0.04968384732504449
15.200999999997014,0.036989980389817226,0.05047064332413573
15.400999999996904,0.036559567013253726,0.05126064553397264
15.600999999996793,0.03612259159015151,0.05205404012223633
15.800999999996682,0.03567898030224934,0.05285109853369098
16.000999999996573,0.035228666113881535,0.053652091417114384
16.200999999996817,0.03477165665400612,0.054457073116255625
16.40099999999706,0.03430794624343142,0.05526619095658887
16.600999999997306,0.0338375740625374,0.05607990090290433
16.80099999999755,0.03336041595050515,0.05689840600684446
17.000999999997795,0.0328785600023029,0.05772099628772324
17.20099999999804,0.03239590070162592,0.058545763986709305
17.400999999998284,0.03191313440199298,0.059372578456468185
17.60099999999853,0.031430258592799624,0.06020270016823
17.800999999998773,0.030947376523585028,0.061038025300890024
18.000999999999017,0.030464805819106454,0.06187912382685433
18.20099999999926,0.029982255777123882,0.06272676384042558
18.400999999999506,0.029499833225321934,0.06358173923110189
18.60099999999975,0.029017511228945306,0.06444574221397445
18.799999999999994,0.02852909350542167,0.06532923991907204
19.000000000000238,0.028046565501243355,0.0662108530828176
19.200000000000482,0.02756394697649,0.0670999746727463
19.400000000000727,0.027081101805862994,0.0679959225274532
19.60000000000097,0.026597851277303342,0.06889885162852563
19.800000000001216,0.026113924926860894,0.06980895439877054
20.00000000000146,0.02562898183898745,0.07072625941448704
