Time (s),X (m),Y (m)
0.001,0.001152392079647418,0.0007293631428462583
0.20000000000000015,0.0007550677309260971,-0.00017299283289140145
0.4000000000000003,-0.0007112033972490139,-0.002546664849005756
0.6000000000000004,-0.0005991379795839418,-0.005585230305900513
0.8000000000000006,-0.00024809714471567447,-0.009298480866192406
1.0000000000000007,0.0013421859742793413,-0.005674690173415958
1.2009999999999785,0.006447661299412042,-0.0034200292042897073
1.4009999999999565,0.011574738247990374,0.0006344644290183399
1.6009999999999345,0.020746568601211553,0.00785631608886642
1.8009999999999124,0.03290630594326348,0.017581617670917975
2.0009999999998906,0.045513980619075814,0.023733121391591852
2.2009999999998686,0.05626580201091485,0.03121632616430559
2.4009999999998466,0.06887744159810799,0.03713468591615489
2.6009999999998246,0.08369463159158512,0.042176788421664085
2.8009999999998025,0.10024319238329851,0.05131960621163352
3.0009999999997805,0.11679602951499361,0.06240741278481972
3.2009999999997585,0.1311560219250226,0.07744386293200273
3.4009999999997365,0.14422709330898997,0.08221468243348032
3.6009999999997144,0.15448703690411164,0.09626503935448781
3.8009999999996924,0.16415236252688573,0.10994694902710446
4.000999999999671,0.17561003104022235,0.11836112303315548
4.200999999999738,0.19049933101985067,0.13012350251579832
4.400999999999804,0.20327384853959315,0.13469533682780044
4.600999999999871,0.2133967486412872,0.14840009701054532
4.800999999999938,0.22819823891821273,0.1583810098232771
5.000000000000004,0.24439300757161228,0.16403367904700056
5.200000000000071,0.2571508775339674,0.17653764294241114
5.400000000000138,0.2707826004670509,0.19393679700703562
5.600000000000205,0.28700434694320676,0.19827662080193892
5.800000000000272,0.3057766917769725,0.20321459497213287
6.000000000000338,0.3242638717217165,0.21651268081285419
6.200000000000405,0.3460427917887028,0.23297215924545248
6.400000000000472,0.3674056279959044,0.24374476185152494
6.600000000000539,0.38578045389044574,0.2486131829040023
6.800000000000606,0.40409146286291375,0.2627711466780657
7.000000000000672,0.42215836158685377,0.2834517546874047
7.200000000000739,0.43523117385958476,0.3044003873810161
7.400000000000806,0.4464707255482576,0.3306293572549278
7.600000000000873,0.4558745229098193,0.35714170229903347
7.8000000000009395,0.466678902952375,0.3804383022484729
8.000000000001005,0.4776929797800594,0.40760535761996275
8.200000000000895,0.4858311147688039,0.431307522756546
8.400000000000784,0.4907084359595727,0.45593548289531444
8.600000000000673,0.4947568374707891,0.4816363899989673
8.800000000000562,0.503721716893269,0.49747963757635477
9.000000000000451,0.5128821046286713,0.5091703401035049
9.20000000000034,0.5242274211618105,0.5173726075897397
9.40000000000023,0.5273986628192758,0.5311176208071982
9.600000000000119,0.5280070571611952,0.5496536774824048
9.800000000000008,0.524538265152023,0.5715315185779252
10.000999999999896,0.5221341474392466,0.5844426229027161
10.200999999999786,0.5164921762907937,0.6038103092099631
10.400999999999675,0.5127001883662303,0.6266191617162369
10.600999999999564,0.5058640242237611,0.654504590450596
10.800999999999453,0.499378533380842,0.6818684013851357
11.000999999999342,0.4935430013529715,0.7100229892208834
11.200999999999231,0.4936038546557438,0.7402556999440221
11.40099999999912,0.494853678215184,0.7668715739893234
11.60099999999901,0.4971658762605118,0.7862016617171935
11.800999999998899,0.49989254792392557,0.8034576382957733
12.000999999998788,0.5011769347950642,0.8275362546311598
12.200999999998677,0.5044781463815743,0.8402785237673767
12.400999999998566,0.5064469481219234,0.8669567465669089
12.600999999998455,0.5048827284752412,0.8983158060335582
12.800999999998345,0.5076833188132931,0.9315342901602081
13.000999999998234,0.5112643566816427,0.9699240355144838
13.200999999998123,0.518441055361362,1.0031843417360389
13.400999999998012,0.5313211887146286,1.0237897225551733
13.600999999997901,0.5426429653696045,1.0404889313681582
13.80099999999779,0.5516245810511564,1.0643774650228106
14.00099999999768,0.5622389570036233,1.0845892318459769
14.200999999997569,0.5805334003602277,1.1030179728947078
14.400999999997458,0.5985178993454736,1.1236652553827517
14.600999999997347,0.6114289989123415,1.1420454004983918
14.800999999997236,0.6237631633394165,1.1583152865441075
15.000999999997125,0.6384112469533569,1.1730329942227502
15.200999999997014,0.6489724059744637,1.19433050279335
15.400999999996904,0.6590293046642638,1.2196698250403448
15.600999999996793,0.670163109145057,1.2530250056380903
15.800999999996682,0.680428374956834,1.2912508267936103
16.000999999996573,0.6861244243372483,1.3221719940910148
16.200999999996817,0.693828300351182,1.3516496708353112
16.40099999999706,0.6991136552648749,1.3780313291031097
16.600999999997306,0.705115246807324,1.4065051498249914
16.80099999999755,0.7133785975192006,1.4290864090349942
17.000999999997795,0.7147509315675982,1.4564666693649706
17.20099999999804,0.7137798740585123,1.4853347075923264
17.400999999998284,0.7206323430778926,1.5055981912469723
17.60099999999853,0.7236457041971804,1.5247392910652595
17.800999999998773,0.7231231085362602,1.5541149721718956
18.000999999999017,0.7210071075736332,1.5937609364688543
18.20099999999926,0.7249998045814559,1.621987580034977
18.400999999999506,0.7301934794526179,1.6459603852706697
18.60099999999975,0.7297893826332983,1.6778817964742545
18.799999999999994,0.7296575355305791,1.7022792458243345
19.000000000000238,0.7291713047749387,1.7227355178087476
19.200000000000482,0.7245796063988249,1.751618628109515
19.400000000000727,0.7219743253587239,1.7890078376068932
19.60000000000097,0.7230042211596992,1.8191843616708487
19.800000000001216,0.7173055938284576,1.849743346092331
20.00000000000146,0.710549414166215,1.8870549543649429
