Time (s),X (m),Y (m)
0.001,-0.0004702548317818469,-0.0005157376242541218
0.20000000000000015,0.0027064180328717183,0.000688646579081417
0.4000000000000003,0.0052635172250626505,0.0034159903183452783
0.6000000000000004,0.015796950425496194,0.00961176910356962
0.8000000000000006,0.028943036638138773,0.018710282188086184
1.0000000000000007,0.04770286345234645,0.029819825309794205
1.2009999999999785,0.07160551702982808,0.039313884550148
1.4009999999999565,0.10060404260377698,0.04055464600467643
1.6009999999999345,0.1336423665284838,0.031815756789825046
1.8009999999999124,0.16589432150340475,0.016574544510684224
2.0009999999998906,0.20418630892558962,-0.008081181596791175
2.2009999999998686,0.23551499569637974,-0.0351756753822831
2.4009999999998466,0.27109870157454546,-0.06804423310091381
2.6009999999998246,0.3073129253273385,-0.10414420022077507
2.8009999999998025,0.3458701764473227,-0.1364569205607608
3.0009999999997805,0.3882482572564467,-0.162077917006461
3.2009999999997585,0.4175113103632923,-0.18534972182415502
3.4009999999997365,0.4559877146196052,-0.20966250409364234
3.6009999999997144,0.4971311735026221,-0.2342722378873498
3.8009999999996924,0.5367797029941003,-0.2576407855739153
4.000999999999671,0.5720415836285927,-0.2803669206514943
4.200999999999738,0.6043676502188822,-0.30807168708383426
4.400999999999804,0.6573872218672794,-0.34083722966381436
4.600999999999871,0.7287130824557474,-0.3746792825983958
4.800999999999938,0.7934489298190318,-0.40168104191861076
5.000000000000004,0.8478856633071363,-0.43320817743253354
5.200000000000071,0.8837494418852658,-0.46714758761415387
5.400000000000138,0.919181214910045,-0.5053689304341858
5.600000000000205,0.9631085975214146,-0.5443221920200417
5.800000000000272,1.019672302317466,-0.5835748628417352
6.000000000000338,1.067461895059681,-0.6255239854041424
6.200000000000405,1.1202769211021437,-0.6760644389973276
6.400000000000472,1.1685449131959196,-0.7294492570248582
6.600000000000539,1.217923943073246,-0.7855577809036921
6.800000000000606,1.2646277204868317,-0.8419992708434098
7.000000000000672,1.3289753664386492,-0.9024898892336085
7.200000000000739,1.3880815901669825,-0.9607821745826398
7.400000000000806,1.4402729186137235,-1.0186349165101583
7.600000000000873,1.4932684424651854,-1.0794398893197767
7.8000000000009395,1.5367186345961579,-1.1392383766814091
8.000000000001005,1.5860686339414896,-1.198287655061344
8.200000000000895,1.638694644835635,-1.2585630899055678
8.400000000000784,1.695616374086858,-1.3157391116763237
8.600000000000673,1.7445638864104718,-1.368769452673458
8.800000000000562,1.795506342915274,-1.4259906972287952
9.000000000000451,1.8550296950826377,-1.4912653789176373
9.20000000000034,1.9136724200390751,-1.5584920672511657
9.40000000000023,1.9660597944448914,-1.6206085184004586
9.600000000000119,2.0128466823235396,-1.6890112069269518
9.800000000000008,2.0487280131627483,-1.753079451831367
10.000999999999896,2.0832936755673983,-1.8440482815845585
10.200999999999786,2.113329890366845,-1.9401222408322503
10.400999999999675,2.127208448315893,-2.0297202128092695
10.600999999999564,2.1201868082202266,-2.11797856453554
10.800999999999453,2.0848166623464115,-2.197858942096604
11.000999999999342,2.032386693334441,-2.26821241500682
11.200999999999231,1.965033280357346,-2.3292956572971217
11.40099999999912,1.8941724762053846,-2.3847152864616494
11.60099999999901,1.823489129116602,-2.4267283085332307
11.800999999998899,1.7651325706208518,-2.4443806187753796
12.000999999998788,1.7024542281000188,-2.4301258036527673
12.200999999998677,1.6373287689344491,-2.390479015635459
12.400999999998566,1.5822858755345597,-2.339235003550437
12.600999999998455,1.527519565204876,-2.269361713471824
12.800999999998345,1.4887550533256522,-2.1955861909773446
13.000999999998234,1.4698062606333309,-2.115319698102543
13.200999999998123,1.4642816616386936,-2.030436569860946
13.400999999998012,1.4747041719304355,-1.9559335213086089
13.600999999997901,1.4999966168288041,-1.8901859108785817
13.80099999999779,1.5357138338243168,-1.8418097116313967
14.00099999999768,1.5789713845294093,-1.7817394316109663
14.200999999997569,1.6359712284993921,-1.715019668138063
14.400999999997458,1.6971635731900083,-1.6497470639053984
14.600999999997347,1.760789257137795,-1.5899398292368758
14.800999999997236,1.8272848548214147,-1.5355661871427895
15.000999999997125,1.8930756607559989,-1.484846151120221
15.200999999997014,1.9560614383772488,-1.430551063855009
15.400999999996904,2.0179893902978137,-1.3652364199758316
15.600999999996793,2.0789714240597923,-1.3018783174732254
15.800999999996682,2.131081170329384,-1.2430151668343945
16.000999999996573,2.1880105573420736,-1.1819010266816787
16.200999999996817,2.253967525393471,-1.1177637727157508
16.40099999999706,2.3207995684884706,-1.0555243014941755
16.600999999997306,2.3770771398627275,-0.9932722672308535
16.80099999999755,2.434677960331503,-0.922734040149355
17.000999999997795,2.492076922070881,-0.8661468197782911
17.20099999999804,2.5558365891995534,-0.8064944969001095
17.400999999998284,2.623596182303732,-0.732087292935987
17.60099999999853,2.6940577208267675,-0.6585464461689807
17.800999999998773,2.7714180691131194,-0.5776782177252385
18.000999999999017,2.8544870868369294,-0.49362158204362866
18.20099999999926,2.9362517791410783,-0.4174755763940771
18.400999999999506,3.020356187342606,-0.34208240646464183
18.60099999999975,3.1040496219964693,-0.271610988847987
18.799999999999994,3.1871980382474643,-0.1970353845580272
19.000000000000238,3.2701494519621193,-0.11937420052565204
19.200000000000482,3.3488568510805914,-0.04034573733338311
19.400000000000727,3.4250027716339297,0.02359048622996176
19.60000000000097,3.501273564435013,0.10360409316241576
19.800000000001216,3.5777449749219086,0.18271088513401598
20.00000000000146,3.6454952980551747,0.2509719829485087
