Time (s),X (m),Y (m)
0.001,0.0007758142491328282,0.0009692696795465077
0.20000000000000015,0.0008551869765023129,-0.0006655927139419161
0.4000000000000003,0.007839427166938638,-0.00103062476708425
0.6000000000000004,0.01842950556568549,0.00029880764814604714
0.8000000000000006,0.027867201792316262,0.001583876588663975
1.0000000000000007,0.042294113226665875,0.0017559325827285004
1.2009999999999785,0.07187884069786753,0.019537868894309092
1.4009999999999565,0.09763651849009837,0.029768038402792248
1.6009999999999345,0.11802476552937782,0.03608162222239078
1.8009999999999124,0.14286544354181344,0.042196003497324094
2.0009999999998906,0.16849582047081288,0.050476837352983424
2.2009999999998686,0.19753535202558634,0.057099101119780844
2.4009999999998466,0.2238563901728585,0.058436616091425156
2.6009999999998246,0.24150933170907654,0.05150072200885272
2.8009999999998025,0.27280663979909475,0.036416898397290336
3.0009999999997805,0.30868001562788544,0.023230135281030802
3.2009999999997585,0.3482182010025669,0.004801451898056009
3.4009999999997365,0.3915114997550282,-0.018604656180848552
3.6009999999997144,0.41437836278194756,-0.033091020406261815
3.8009999999996924,0.431597597644065,-0.054308943651273346
4.000999999999671,0.4444322215709249,-0.08610491061809589
4.200999999999738,0.458246627606732,-0.1258476834421834
4.400999999999804,0.47269652220471176,-0.1689546776008959
4.600999999999871,0.487532575409391,-0.21730301672354696
4.800999999999938,0.5025076531345595,-0.272653123207967
5.000000000000004,0.5101997987210809,-0.3155793777918876
5.200000000000071,0.5111465614103619,-0.3583351942153593
5.400000000000138,0.4977539825072412,-0.3839897221690809
5.600000000000205,0.4709203206119715,-0.3990869490536163
5.800000000000272,0.44023717355753916,-0.42155619044981885
6.000000000000338,0.39834777142346967,-0.44575975734332596
6.200000000000405,0.35616778984583597,-0.474068656379855
6.400000000000472,0.3192764519885288,-0.5067350088258765
6.600000000000539,0.277464106498015,-0.5441058139783388
6.800000000000606,0.2317283168598725,-0.5801885958567905
7.000000000000672,0.1884302098599163,-0.6125434029413303
7.200000000000739,0.13833215113643932,-0.6376529031270918
7.400000000000806,0.08285551862736458,-0.6526851626137902
7.600000000000873,0.02358699011209987,-0.6669714724990439
7.8000000000009395,-0.05121739863410529,-0.6794629333294607
8.000000000001005,-0.12234566209559537,-0.6942175737456923
8.200000000000895,-0.1666241966340492,-0.7019644278474627
8.400000000000784,-0.19504278868060299,-0.6821596586256635
8.600000000000673,-0.21589711446091864,-0.635588055907377
8.800000000000562,-0.23436160021180735,-0.5925651463975093
9.000000000000451,-0.24432019432392948,-0.5481365505720056
9.20000000000034,-0.24267199846051646,-0.5026357359181163
9.40000000000023,-0.23202166291716375,-0.4495772140000712
9.600000000000119,-0.21749145252837981,-0.379449863342323
9.800000000000008,-0.19816249134530642,-0.30366105474012367
10.000999999999896,-0.18049391562728187,-0.2373782753744993
10.200999999999786,-0.1569617333369419,-0.17016658490310366
10.400999999999675,-0.1232715260152422,-0.11251701216069375
10.600999999999564,-0.0732919611746491,-0.06800905770873257
10.800999999999453,-0.010932598917744108,-0.03136604304751446
11.000999999999342,0.0565079075181141,-0.002803261405357876
11.200999999999231,0.12965754901238874,0.021481868460239206
11.40099999999912,0.19891924404384673,0.03363115038859497
11.60099999999901,0.24782749130069756,0.033223067752317224
11.800999999998899,0.28526698492530983,0.009299288437483053
12.000999999998788,0.32639398409688786,-0.026979468762757378
12.200999999998677,0.3779471529982039,-0.06837235475448182
12.400999999998566,0.4378466952224379,-0.12636542990097602
12.600999999998455,0.4947409104781951,-0.19038738168057215
12.800999999998345,0.5431056040730575,-0.25985006585631976
13.000999999998234,0.5814753222013876,-0.32573899248602994
13.200999999998123,0.6043938667496338,-0.3884350330483387
13.400999999998012,0.6353016918512903,-0.45444752421968965
13.600999999997901,0.6793990959673488,-0.5196499424667761
13.80099999999779,0.7198009231854472,-0.5818528282311858
14.00099999999768,0.7535878413925587,-0.6438961800058035
14.200999999997569,0.7788637320860489,-0.7047189566210955
14.400999999997458,0.787871700479356,-0.7667792932085985
14.600999999997347,0.8124576663203671,-0.8281073055683954
14.800999999997236,0.8452292437678495,-0.8762584999781152
15.000999999997125,0.8992907572954727,-0.9171595422436615
15.200999999997014,0.964957362556725,-0.9621622188545447
15.400999999996904,1.0129037518557593,-1.027380414214625
15.600999999996793,1.0519162258315393,-1.1011065983415174
15.800999999996682,1.075901689478292,-1.1701693113703906
16.000999999996573,1.0917248970597173,-1.2561366888352665
16.200999999996817,1.1027909675941616,-1.3312079692858152
16.40099999999706,1.1128357340183066,-1.4112556574126447
16.600999999997306,1.1228632832636478,-1.4873697726491515
16.80099999999755,1.1342301886092605,-1.5592101630616813
17.000999999997795,1.1409657468881358,-1.6258189580188
17.20099999999804,1.1322060492072152,-1.6864072433199093
17.400999999998284,1.1167750495202313,-1.7518450059631354
17.60099999999853,1.090262089698203,-1.8028011384517457
17.800999999998773,1.0400694962396508,-1.8417473575543764
18.000999999999017,0.9789589479170542,-1.8765423830227246
18.20099999999926,0.9212593899376833,-1.903849979751575
18.400999999999506,0.8548082114192299,-1.9248620197609099
18.60099999999975,0.7879671067383658,-1.938912484751092
18.799999999999994,0.7208775367470686,-1.9492823246015187
19.000000000000238,0.6637656864991381,-1.9521810089005749
19.200000000000482,0.6217117323313813,-1.9291701290722894
19.400000000000727,0.587823220281747,-1.887139110640119
19.60000000000097,0.5624451100999627,-1.835550553119644
19.800000000001216,0.533229690459268,-1.7755748037965156
20.00000000000146,0.5113371664579651,-1.7157600429323638
