Time (s),X (m),Y (m)
0.001,-0.00060452123697562,-8.989899140956103e-05
0.20000000000000015,0.0004691601629789093,0.00029334703668128644
0.4000000000000003,0.002938519582761993,0.00212867333677643
0.6000000000000004,0.012211609832377882,0.0035020484169466224
0.8000000000000006,0.03189789134092804,-0.0005181598182388145
1.0000000000000007,0.06177269657000355,-0.013966076165900084
1.2009999999999785,0.09221679191417352,-0.030518125403415388
1.4009999999999565,0.12078474228697685,-0.05031920015555423
1.6009999999999345,0.1524421572686689,-0.07423918782213237
1.8009999999999124,0.17770954765172806,-0.0940811103424535
2.0009999999998906,0.20835006420219404,-0.11903897486280436
2.2009999999998686,0.24929366744312853,-0.1568757638602344
2.4009999999998466,0.2887863971501045,-0.18477663275627101
2.6009999999998246,0.3215855869338098,-0.21736884617539282
2.8009999999998025,0.34214560740111905,-0.26056901411915534
3.0009999999997805,0.346293516757424,-0.31879103728742997
3.2009999999997585,0.3354851721071561,-0.37057687317931487
3.4009999999997365,0.30553851827733036,-0.4234019911939588
3.6009999999997144,0.2578294940170537,-0.46118386981891135
3.8009999999996924,0.21304093261474838,-0.47138643204886177
4.000999999999671,0.17175673954148626,-0.4564066588384166
4.200999999999738,0.1344921521253436,-0.431921571976005
4.400999999999804,0.10644147985720202,-0.3964023924447168
4.600999999999871,0.1005447858694108,-0.3529071455484617
4.800999999999938,0.1099805151813615,-0.3094809323319395
5.000000000000004,0.13648843689268947,-0.26326172762619265
5.200000000000071,0.17345075714312505,-0.2095853225446026
5.400000000000138,0.2039128305899353,-0.164085318958004
5.600000000000205,0.23889378787882828,-0.11707683756002679
5.800000000000272,0.27512000876165965,-0.0719212935145778
6.000000000000338,0.3119024202157933,-0.041381911525039394
6.200000000000405,0.35064646168498637,-0.0335916634347788
6.400000000000472,0.3945666486333356,-0.04014011338339572
6.600000000000539,0.4483119198204351,-0.05903813081134075
6.800000000000606,0.4988509063114587,-0.09036782002390578
7.000000000000672,0.5347962532412833,-0.12422087047696118
7.200000000000739,0.5499802582339719,-0.16203883044560993
7.400000000000806,0.5469952505338679,-0.20273537511758974
7.600000000000873,0.5300915074120921,-0.2487000653682684
7.8000000000009395,0.500750307433452,-0.29947599683332027
8.000000000001005,0.4613972118098992,-0.36140921186141123
8.200000000000895,0.4211952483412787,-0.4261603098635192
8.400000000000784,0.38155225794342307,-0.4891404352204952
8.600000000000673,0.33923902904111947,-0.5571412212388891
8.800000000000562,0.29471751071121527,-0.6296096634289402
9.000000000000451,0.2424094783040423,-0.7080037728028883
9.20000000000034,0.18141507233675983,-0.7788630301643383
9.40000000000023,0.11377576440102409,-0.8346982935578646
9.600000000000119,0.04574433596752475,-0.8624294727964443
9.800000000000008,-0.02299117151401487,-0.8537271891032164
10.000999999999896,-0.08743592231268026,-0.8224992232197795
10.200999999999786,-0.1491030297732367,-0.7714250386807276
10.400999999999675,-0.21377310682324702,-0.708454782682075
10.600999999999564,-0.2763524798018489,-0.6547166991086788
10.800999999999453,-0.3326369046461361,-0.6175476143364237
11.000999999999342,-0.38353630757648793,-0.5839362798871349
11.200999999999231,-0.42826581030799615,-0.5530841922049269
11.40099999999912,-0.46947414938454146,-0.5208361857672323
11.60099999999901,-0.503579863921388,-0.4759640798242923
11.800999999998899,-0.5186485987871725,-0.41626425862245103
12.000999999998788,-0.5066545387142398,-0.3536915655263922
12.200999999998677,-0.4812858511764988,-0.2916296477155261
12.400999999998566,-0.4497713817557116,-0.23248468916158527
12.600999999998455,-0.4126894399611479,-0.17147962787842938
12.800999999998345,-0.37590172054521476,-0.11725565394105707
13.000999999998234,-0.3400034491798148,-0.05602684146585793
13.200999999998123,-0.29940900584454594,0.006823983006636274
13.400999999998012,-0.24971324368470005,0.07571442528656909
13.600999999997901,-0.19221870945398245,0.15003965799504618
13.80099999999779,-0.13074577281828081,0.22961117382303153
14.00099999999768,-0.07380805980711666,0.29552237839630047
14.200999999997569,-0.01403100223220685,0.3274495882516705
14.400999999997458,0.0491778138404382,0.3185420269128172
14.600999999997347,0.11560929530677942,0.2846329921201462
14.800999999997236,0.18413028626539318,0.24407822470302137
15.000999999997125,0.23416499986776682,0.1852861937354325
15.200999999997014,0.25447954965809233,0.12788544438978192
15.400999999996904,0.24552046172509176,0.07166211099732213
15.600999999996793,0.21954282144428397,0.01644404369985815
15.800999999996682,0.17670402999289178,-0.031175268903344638
16.000999999996573,0.14062313745472396,-0.06468061784399863
16.200999999996817,0.0989366362724991,-0.07167586617404877
16.40099999999706,0.0571837779950867,-0.0558434316684006
16.600999999997306,0.019931350112773628,-0.026971757618829553
16.80099999999755,0.00030189617418583975,0.004788662928350047
17.000999999997795,0.0048886288910772345,0.04541541162220229
17.20099999999804,0.02429830253486822,0.08496763831097752
17.400999999998284,0.05265026629609652,0.12650503873554358
17.60099999999853,0.0917225472835674,0.17469428714450772
17.800999999998773,0.1311442797773919,0.22453760430729408
18.000999999999017,0.17217898151827332,0.27576374015159816
18.20099999999926,0.20751305880445028,0.32184565728691455
18.400999999999506,0.2528154285367152,0.3597539903078297
18.60099999999975,0.3116873977259805,0.380985751876535
18.799999999999994,0.36908393526904604,0.38282828830519844
19.000000000000238,0.4289261869671485,0.36036062361295784
19.200000000000482,0.4826914309338024,0.3297044036928965
19.400000000000727,0.5154585391271923,0.2949969618968053
19.60000000000097,0.522157676350073,0.2621170434403121
19.800000000001216,0.5116357132136458,0.24392758304241074
20.00000000000146,0.4915606359762516,0.24653729373219324
