Time (s),X (m),Y (m)
0.001,0.0007758142491328282,-0.0009692696795465074
0.20000000000000015,0.0008919674742330475,0.00026406363388750876
0.4000000000000003,0.004808895188402251,0.006367536594625832
0.6000000000000004,0.013551712607069541,0.02007967325986953
0.8000000000000006,0.025468479065903063,0.04375004448425384
1.0000000000000007,0.036365565242795446,0.047169716759178026
1.2009999999999785,0.04953616313402205,0.03499380062029729
1.4009999999999565,0.06724130959404565,0.01908919794324782
1.6009999999999345,0.08945980773903654,0.007217854240254376
1.8009999999999124,0.1143087727190928,0.004972152580344344
2.0009999999998906,0.1406787255710513,-0.0028415731296487544
2.2009999999998686,0.1690988017589455,-0.006351366172253114
2.4009999999998466,0.19648718001534365,-0.018857170822127303
2.6009999999998246,0.2276274181427396,-0.0382318998156211
2.8009999999998025,0.260137844812946,-0.061205174465084625
3.0009999999997805,0.2882707649674453,-0.09954669305751435
3.2009999999997585,0.3169408918805588,-0.12608836927085376
3.4009999999997365,0.3353270108061158,-0.16243446103319167
3.6009999999997144,0.35730640149010906,-0.18216528020137152
3.8009999999996924,0.38229349728758016,-0.19405382870079207
4.000999999999671,0.4019341737331817,-0.21304732942490723
4.200999999999738,0.4291709931647094,-0.220843450023772
4.400999999999804,0.4588465716018341,-0.23088897563585484
4.600999999999871,0.4968831672926938,-0.24861869650965818
4.800999999999938,0.5410080400052789,-0.24908225252279279
5.000000000000004,0.5878663485128315,-0.2695289792319482
5.200000000000071,0.6339783937690988,-0.29566568479596694
5.400000000000138,0.6819515047586363,-0.2906169122856977
5.600000000000205,0.73091053063151,-0.3018012589935008
5.800000000000272,0.7822207354812903,-0.31041972150740427
6.000000000000338,0.8347644562311881,-0.3375530349899593
6.200000000000405,0.8912338933373578,-0.3623373548523033
6.400000000000472,0.9433579787694003,-0.3780221150425065
6.600000000000539,0.9947528759973406,-0.3991323674046898
6.800000000000606,1.0476892775910873,-0.42215144151844025
7.000000000000672,1.0990951535629632,-0.4324001416873714
7.200000000000739,1.1442476230055212,-0.4569056153711828
7.400000000000806,1.1820956324116565,-0.48602481848905277
7.600000000000873,1.2146813335024809,-0.5044495415363442
7.8000000000009395,1.2441666752359748,-0.5326408143689322
8.000000000001005,1.2681047007130786,-0.5690466885804573
8.200000000000895,1.2974102874270987,-0.5991356216027357
8.400000000000784,1.3248823408354606,-0.6380128715637186
8.600000000000673,1.3499482370485356,-0.6812409952155284
8.800000000000562,1.3721992150940732,-0.7203741485312676
9.000000000000451,1.388626751378551,-0.7649945478955987
9.20000000000034,1.408399781669937,-0.8135352435230832
9.40000000000023,1.4285965882775016,-0.8593642252248389
9.600000000000119,1.4524068683822746,-0.8972022776337991
9.800000000000008,1.4845881302643644,-0.9205311505238956
10.000999999999896,1.51567915030246,-0.95196885903401
10.200999999999786,1.5385908281841019,-1.0081641137578137
10.400999999999675,1.5636576463204637,-1.0538028114922544
10.600999999999564,1.5895014686891122,-1.1078849005970468
10.800999999999453,1.6230985836818612,-1.150640988747681
11.000999999999342,1.6598295384774844,-1.169452133628552
11.200999999999231,1.6998641999229274,-1.1890257166619531
11.40099999999912,1.7372482793127522,-1.2193954273547944
11.60099999999901,1.769561650648194,-1.2537793162321504
11.800999999998899,1.8054872639666362,-1.2775738502887413
12.000999999998788,1.8383643286590996,-1.2946184518074508
12.200999999998677,1.868585651025315,-1.315690220909693
12.400999999998566,1.902449451286244,-1.3343657949069878
12.600999999998455,1.936492721097759,-1.3499018252506134
12.800999999998345,1.976054820928198,-1.363122661285328
13.000999999998234,2.027458432549183,-1.3805242568707385
13.200999999998123,2.080947580785375,-1.396869862444325
13.400999999998012,2.134154140050619,-1.4241934972161752
13.600999999997901,2.182118996273703,-1.4531386615562865
13.80099999999779,2.225206864660524,-1.4807642163060228
14.00099999999768,2.269562717418465,-1.50260662324803
14.200999999997569,2.3102107142277823,-1.5026590371799662
14.400999999997458,2.3522119526838883,-1.4921372082929725
14.600999999997347,2.4004137506802223,-1.488681529951231
14.800999999997236,2.4476644426397653,-1.5050382902748833
15.000999999997125,2.499730842586559,-1.5152887605455108
15.200999999997014,2.550458087233818,-1.5320581061839096
15.400999999996904,2.608095133199514,-1.5431450227002579
15.600999999996793,2.6638404947036527,-1.5575506069134677
15.800999999996682,2.722427450193337,-1.5693220759418165
16.000999999996573,2.7691003608344587,-1.59569473222674
16.200999999996817,2.8051828607664517,-1.6276030743772403
16.40099999999706,2.8416672388914055,-1.6552538060502309
16.600999999997306,2.8864699137543552,-1.6914342660090247
16.80099999999755,2.938267593692889,-1.7002434666246642
17.000999999997795,2.9906798585275722,-1.7123491820955803
17.20099999999804,3.042233289722402,-1.7356240154689955
17.400999999998284,3.090482001055542,-1.768680715564855
17.60099999999853,3.141852273112218,-1.7903454683100108
17.800999999998773,3.194618851180386,-1.8040819380072752
18.000999999999017,3.243832453693272,-1.8350914897243764
18.20099999999926,3.2839451239681963,-1.8789347751884882
18.400999999999506,3.3212081968424707,-1.9186016227628817
18.60099999999975,3.358239284546279,-1.9473754949484023
18.799999999999994,3.3982824796297106,-1.9719687920928604
19.000000000000238,3.4430407698676593,-1.9967611439211501
19.200000000000482,3.4846498419627854,-2.0198945592630455
19.400000000000727,3.5243037032425555,-2.040890268335011
19.60000000000097,3.5632852479244366,-2.072762542067302
19.800000000001216,3.6050058323836343,-2.1042153097442777
20.00000000000146,3.6527372061732617,-2.1324788337525664
