Time (s),X (m),Y (m)
0.001,0.0014388337585722719,-0.0001791137972120003
0.20000000000000015,0.0018982067220437984,-0.0005012682009823264
0.4000000000000003,0.007235956675535316,-0.0027256899724501247
0.6000000000000004,0.02367221422016145,-0.008666404177984732
0.8000000000000006,0.03622492173748405,-0.014037550505309257
1.0000000000000007,0.05329139428086572,-0.0173928093666557
1.2009999999999785,0.08002850050793042,-0.028795469952196243
1.4009999999999565,0.10273788420056977,-0.03423624902006351
1.6009999999999345,0.11378424695551477,-0.050814681682330456
1.8009999999999124,0.10983375957571126,-0.07516246053856376
2.0009999999998906,0.09811159827987255,-0.10634361651963292
2.2009999999998686,0.079919308582059,-0.146730542276058
2.4009999999998466,0.06725469819442495,-0.18279865883184115
2.6009999999998246,0.04241362105837127,-0.22599858878390097
2.8009999999998025,0.01723139596928101,-0.2693825123992018
3.0009999999997805,-0.0032616040808906713,-0.3054725202067677
3.2009999999997585,-0.025149224878906865,-0.33002370166331124
3.4009999999997365,-0.05563607955272737,-0.3357902588607436
3.6009999999997144,-0.09028726344353938,-0.32406518844360443
3.8009999999996924,-0.12740902602051413,-0.3035819550077293
4.000999999999671,-0.15565399933549112,-0.26921931413120415
4.200999999999738,-0.1712461816867839,-0.23194721922484612
4.400999999999804,-0.18040653750542462,-0.1947519970329163
4.600999999999871,-0.18182985632894078,-0.1544382324584868
4.800999999999938,-0.1727698957146446,-0.10756125247140365
5.000000000000004,-0.1529250644505944,-0.05135244399747451
5.200000000000071,-0.12515392588295549,0.004002456790550158
5.400000000000138,-0.09137611573506925,0.06266395738408478
5.600000000000205,-0.05708705076322863,0.1213234213751716
5.800000000000272,-0.023718875952580407,0.18183272378572674
6.000000000000338,0.021364887133844872,0.24768950696384637
6.200000000000405,0.07668774546598055,0.31612509985330295
6.400000000000472,0.12809331417539743,0.3843101653341223
6.600000000000539,0.1799623239643998,0.4478220155453172
6.800000000000606,0.22467611176682542,0.5047000646967927
7.000000000000672,0.2759928652986481,0.5352495224814567
7.200000000000739,0.3301763252834836,0.5410252612951563
7.400000000000806,0.3891963914544872,0.5293241708967052
7.600000000000873,0.4552253111055078,0.5061568108135439
7.8000000000009395,0.5230110697119305,0.4776598351191808
8.000000000001005,0.5851794639561329,0.45043333621130965
8.200000000000895,0.6485534844047995,0.4107735743493051
8.400000000000784,0.7191046538202324,0.3645597229077929
8.600000000000673,0.7909332832909108,0.31579698860799277
8.800000000000562,0.8683153809166954,0.26270152109498474
9.000000000000451,0.950272170780647,0.20735992402386816
9.20000000000034,1.0280699393321784,0.16339035010819403
9.40000000000023,1.0883620006564532,0.11811077701101026
9.600000000000119,1.1199819844037853,0.06681182632274713
9.800000000000008,1.1202529895872666,0.011042486089850976
10.000999999999896,1.1033462231013875,-0.0481510563238777
10.200999999999786,1.0779342408400339,-0.10953212412627249
10.400999999999675,1.0473402536843024,-0.17210705815762506
10.600999999999564,1.0126330367856062,-0.23296413526287654
10.800999999999453,0.9885600350385754,-0.28985240257387074
11.000999999999342,0.9497554514465878,-0.35335055655589603
11.200999999999231,0.896961094237622,-0.41227496447769896
11.40099999999912,0.8384006447542365,-0.44389381845943615
11.60099999999901,0.7741540668910535,-0.4485408273130794
11.800999999998899,0.7212166623226068,-0.4409196960249326
12.000999999998788,0.6551896779355859,-0.41580911735529086
12.200999999998677,0.5855314645441837,-0.36266192282109855
12.400999999998566,0.5165531439443383,-0.2992315941885095
12.600999999998455,0.4594500179114049,-0.24870192322895115
12.800999999998345,0.4253148297438305,-0.18913621338676542
13.000999999998234,0.41800805566770327,-0.13381312305271545
13.200999999998123,0.4318660906775336,-0.07124775690022421
13.400999999998012,0.45472675537188995,-0.005953792062362919
13.600999999997901,0.4866536097407848,0.06034734054019461
13.80099999999779,0.5176993981732694,0.12324711135124576
14.00099999999768,0.56289388766197,0.18138080893484795
14.200999999997569,0.6165512678340592,0.21487704074766725
14.400999999997458,0.673242076873016,0.20443803233206131
14.600999999997347,0.7256615836930481,0.1892739707125858
14.800999999997236,0.7657506605005208,0.16519508359185378
15.000999999997125,0.7971676431601677,0.13332245623812997
15.200999999997014,0.8191778938556538,0.10312178890387101
15.400999999996904,0.8272683433729724,0.06658941514943974
15.600999999996793,0.8169876226133653,0.02239484024298493
15.800999999996682,0.782478822914881,-0.030071976807659
16.000999999996573,0.751943061392719,-0.08249077427608167
16.200999999996817,0.713224207169148,-0.13779847254358227
16.40099999999706,0.6584428474968042,-0.19717143872378906
16.600999999997306,0.5921692020476836,-0.2537632761416482
16.80099999999755,0.5293691183825213,-0.2851354420514572
17.000999999997795,0.4771080129225099,-0.2928689165256957
17.20099999999804,0.4251010217454276,-0.2791805790674039
17.400999999998284,0.36620434076105457,-0.25119743981544884
17.60099999999853,0.3093414056916426,-0.22552429205044006
17.800999999998773,0.24484111650387516,-0.18889533155362684
18.000999999999017,0.187521531958306,-0.1296780727117782
18.20099999999926,0.15427026165388139,-0.06728959083721849
18.400999999999506,0.15144877431047385,0.0018102143440175524
18.60099999999975,0.15914817815104965,0.06277806750852992
18.799999999999994,0.1821634598306418,0.13318928256671086
19.000000000000238,0.21083731045092183,0.1965932460200599
19.200000000000482,0.24290104151157804,0.24998094987494754
19.400000000000727,0.280334901644341,0.3073398431160422
19.60000000000097,0.3330036494482891,0.3784046958102257
19.800000000001216,0.3848774322679842,0.4484606412549038
20.00000000000146,0.44365461901562214,0.5105742946443588
