Time (s),X (m),Y (m)
0.001,0.001267963995250183,0.0005916298972236683
0.20000000000000015,0.0007269597088468584,-0.00015226902049026223
0.4000000000000003,0.0015911970442326737,0.00035482645755723085
0.6000000000000004,0.002723265219333636,0.0010233892650269192
0.8000000000000006,0.00406333079964109,0.0018488023283956478
1.0000000000000007,0.005822266394922607,0.00292085830659345
1.2009999999999785,0.007862741060148837,0.004021150069893175
1.4009999999999565,0.00989037366481088,0.005199019617612331
1.6009999999999345,0.012100866815059078,0.006608157726624525
1.8009999999999124,0.014225338221134714,0.007943061269983901
2.0009999999998906,0.0165602092737342,0.009467347306385432
2.2009999999998686,0.019176665790306018,0.011116536542126309
2.4009999999998466,0.021517205954792156,0.01254873297042334
2.6009999999998246,0.02425182518586595,0.014401569900564667
2.8009999999998025,0.027165572691638596,0.016463739818130436
3.0009999999997805,0.029733334957838555,0.018390562455864606
3.2009999999997585,0.032589082641775215,0.020631761784954933
3.4009999999997365,0.03516584038347064,0.02290545257561342
3.6009999999997144,0.03778540923149454,0.02522917993207503
3.8009999999996924,0.04038449636180075,0.02789317052043361
4.000999999999671,0.04295840860914296,0.03069494424778001
4.200999999999738,0.04560651743596398,0.03347611871301474
4.400999999999804,0.048055601023051515,0.03645082141253842
4.600999999999871,0.05036872817357476,0.039471983927205766
4.800999999999938,0.052691142440895115,0.042534715202760906
5.000000000000004,0.05513551548331971,0.04577080106997741
5.200000000000071,0.057373176688317644,0.049276658238638284
5.400000000000138,0.059700936968895495,0.053028677942559437
5.600000000000205,0.06164730275093529,0.05631507008573907
5.800000000000272,0.06387859668291056,0.0604368087705882
6.000000000000338,0.06615631339611265,0.0643186895607709
6.200000000000405,0.06788252533288636,0.06850504688397291
6.400000000000472,0.06972011275817123,0.07251562687631669
6.600000000000539,0.07110267993417531,0.07648008145145638
6.800000000000606,0.07218196740971428,0.08012638589418641
7.000000000000672,0.07314747248274715,0.08409919120706875
7.200000000000739,0.07384226466018784,0.0879723733644312
7.400000000000806,0.07426119123419661,0.09172401360227095
7.600000000000873,0.07475012406023156,0.09520556686414088
7.8000000000009395,0.07448919287953315,0.09887997132006256
8.000000000001005,0.07408941734143532,0.1026345855104946
8.200000000000895,0.07337059895647732,0.10611615836306122
8.400000000000784,0.07275073543530679,0.10977338101924447
8.600000000000673,0.07182248294732374,0.11336470034302222
8.800000000000562,0.07076071210626811,0.11690789669315474
9.000000000000451,0.06968577501838746,0.12037277231680062
9.20000000000034,0.06841247980882188,0.1238762908288937
9.40000000000023,0.06691433920244447,0.12748913582216664
9.600000000000119,0.06550425727179654,0.13118855650243877
9.800000000000008,0.06403727139810825,0.13501107130445839
10.000999999999896,0.062450160250402786,0.13891410048972075
10.200999999999786,0.0606924864893904,0.14281904853293986
10.400999999999675,0.05884909660911342,0.14667445028162923
10.600999999999564,0.05687095162846549,0.15032758236029337
10.800999999999453,0.054829188841236734,0.1541465164301573
11.000999999999342,0.05248142182724981,0.15782851453888502
11.200999999999231,0.05006893142520807,0.16155368076969082
11.40099999999912,0.04750287426264331,0.1653124692125446
11.60099999999901,0.044916553698237584,0.16907501708201195
11.800999999998899,0.04201251775551265,0.17298553531301822
12.000999999998788,0.03926618163763502,0.17678507135907526
12.200999999998677,0.03623808522439302,0.1802489919224573
12.400999999998566,0.03299698601455002,0.18398312105292644
12.600999999998455,0.029687318977916703,0.18761566358886864
12.800999999998345,0.02647972739549423,0.1910476321848855
13.000999999998234,0.023032691526875253,0.19457726858284696
13.200999999998123,0.01910323361270222,0.19761509879562048
13.400999999998012,0.015535499659264573,0.2007976095549878
13.600999999997901,0.011809300435583684,0.20374273792541103
13.80099999999779,0.007858560293420427,0.20706080907035407
14.00099999999768,0.0035989306968704,0.20967856243425145
14.200999999997569,-0.0008711601282850005,0.21260813102709825
14.400999999997458,-0.0050419052842283285,0.2148860870720559
14.600999999997347,-0.009450685345072173,0.2174983554394949
14.800999999997236,-0.013649726557409862,0.21953497181256554
15.000999999997125,-0.017975632259175537,0.2218615396507959
15.200999999997014,-0.022434079196050963,0.22391533792062784
15.400999999996904,-0.027088862766300223,0.22597162930635595
15.600999999996793,-0.03159655164440817,0.22787753934585306
15.800999999996682,-0.03597767337769456,0.22955282765095272
16.000999999996573,-0.039950785166707185,0.23093609420273678
16.200999999996817,-0.0439859775211803,0.23218783214949423
16.40099999999706,-0.04821104333148297,0.23321388772290758
16.600999999997306,-0.05235614587655037,0.23401654027678442
16.80099999999755,-0.056358992715878756,0.23452114557731246
17.000999999997795,-0.060433307105459716,0.2348346479891986
17.20099999999804,-0.06439147953958514,0.23498309168470793
17.400999999998284,-0.0681004676602646,0.23495310825268517
17.60099999999853,-0.07192198813962829,0.23466570981139112
17.800999999998773,-0.0756617085876066,0.23422658518212056
18.000999999999017,-0.07942309395937747,0.23370571295099038
18.20099999999926,-0.08309059300385305,0.23303671730403916
18.400999999999506,-0.08689585270603535,0.23216009813133
18.60099999999975,-0.0904467949958529,0.2311633684344982
18.799999999999994,-0.0941958868162907,0.23008699574308328
19.000000000000238,-0.09773405075507997,0.22889932059307982
19.200000000000482,-0.10156756507493403,0.22760189219169147
19.400000000000727,-0.10510061832234405,0.22622151675079089
19.60000000000097,-0.10897563998991958,0.2247803360085422
19.800000000001216,-0.1127279319881261,0.22329795215025397
20.00000000000146,-0.11675885436674964,0.2216120526187594
