Time (s),X (m),Y (m)
0.001,0.001152392079647418,-0.000729363142846258
0.20000000000000015,0.0005659495403270187,0.0002663226863672942
0.4000000000000003,0.003275914120737909,-0.0013471799886877471
0.6000000000000004,0.0059164186117669675,-0.0021598295687789907
0.8000000000000006,0.009017999729936946,-0.005151608812494175
1.0000000000000007,0.010148383032855446,-0.008556777348936603
1.2009999999999785,0.011875739302444744,-0.013545917554724382
1.4009999999999565,0.02283257902618476,-0.014727873661976377
1.6009999999999345,0.03860269348796662,-0.01441599913459709
1.8009999999999124,0.04777870632897674,-0.01671930341865285
2.0009999999998906,0.05726978087646012,-0.018538361512136368
2.2009999999998686,0.06061489035382966,-0.021107086755711414
2.4009999999998466,0.07279031656563134,-0.024710921606149565
2.6009999999998246,0.0890526083213666,-0.03169269624502957
2.8009999999998025,0.10529217167776606,-0.04097080729213631
3.0009999999997805,0.11425401542807094,-0.04391118712939471
3.2009999999997585,0.12011389421822254,-0.042364413538484726
3.4009999999997365,0.12759033977950213,-0.04276086587312223
3.6009999999997144,0.14442191327463547,-0.04589654014453833
3.8009999999996924,0.16423797645831897,-0.049534172325811386
4.000999999999671,0.19429590438156674,-0.054401725043181214
4.200999999999738,0.2282649379945836,-0.06415266479130895
4.400999999999804,0.24818019823671805,-0.062438001797150845
4.600999999999871,0.2605851533644492,-0.05786206774798542
4.800999999999938,0.28857163661204466,-0.06184032880350892
5.000000000000004,0.3197737948865035,-0.06716649473622006
5.200000000000071,0.3431994857411822,-0.0709421792032664
5.400000000000138,0.35551086803791815,-0.07059856739518662
5.600000000000205,0.3712759473606923,-0.07024918504140208
5.800000000000272,0.390785551715817,-0.06795011798221544
6.000000000000338,0.41236323418402293,-0.07305042173434388
6.200000000000405,0.4315555203683193,-0.0782188913713314
6.400000000000472,0.4481834575058185,-0.0821769724096201
6.600000000000539,0.4684690848331423,-0.08177454412316136
6.800000000000606,0.48900535691796243,-0.08262056727193862
7.000000000000672,0.5057458718720204,-0.07943904406769849
7.200000000000739,0.5184587295319225,-0.07546987454849123
7.400000000000806,0.5338395766308771,-0.07227344992756904
7.600000000000873,0.5529856117520919,-0.06699546242579354
7.8000000000009395,0.5688399188729546,-0.06344411848396202
8.000000000001005,0.5735351109194657,-0.06355891481982018
8.200000000000895,0.5938871486993563,-0.06646301940728054
8.400000000000784,0.6067133027809642,-0.06409003321842208
8.600000000000673,0.612260841380854,-0.05894667603845998
8.800000000000562,0.6301155331678929,-0.05573347663088712
9.000000000000451,0.6542086266463538,-0.05706448057864225
9.20000000000034,0.6860854025019811,-0.05777599675435731
9.40000000000023,0.7151490925381482,-0.059215942601106554
9.600000000000119,0.7373646543543014,-0.06167816113079288
9.800000000000008,0.7579428301525136,-0.06272523948408382
10.000999999999896,0.7833656079848423,-0.060605256192653396
10.200999999999786,0.8115414456839863,-0.06063354152308582
10.400999999999675,0.8412426317068428,-0.06170783914412993
10.600999999999564,0.8642046647981242,-0.06519301000681862
10.800999999999453,0.8885053274472033,-0.06839722854039962
11.000999999999342,0.9089931699337411,-0.06973404532654942
11.200999999999231,0.9271770630448344,-0.0706769339882191
11.40099999999912,0.9359616157562015,-0.06387762214987039
11.60099999999901,0.9560744457220993,-0.06594257928241486
11.800999999998899,0.981549886033972,-0.06773408104695122
12.000999999998788,0.9998362003721467,-0.06763436974892657
12.200999999998677,1.0264662986111501,-0.07137911434117122
12.400999999998566,1.059293566299171,-0.07617485747556013
12.600999999998455,1.0873265050517775,-0.08668787588006377
12.800999999998345,1.1004172373532322,-0.09081198469621755
13.000999999998234,1.1171999995010478,-0.09384624269549838
13.200999999998123,1.137818510919351,-0.09721986783700626
13.400999999998012,1.1639622147295399,-0.10107633690046888
13.600999999997901,1.1908240541616046,-0.10797362642474477
13.80099999999779,1.2111698856643192,-0.10697654272031899
14.00099999999768,1.227706554054873,-0.10275782887790912
14.200999999997569,1.2420209717031132,-0.10464883132772071
14.400999999997458,1.261448049106334,-0.10616808376189497
14.600999999997347,1.2848128385808804,-0.10913339668244912
14.800999999997236,1.3187312314588715,-0.11041725081040414
15.000999999997125,1.343469745142145,-0.10873614318204299
15.200999999997014,1.3608512700236368,-0.10586192562742076
15.400999999996904,1.3827261229859684,-0.1020915132642866
15.600999999996793,1.4114592926717842,-0.10742495686224511
15.800999999996682,1.4297911132771537,-0.1103772307542475
16.000999999996573,1.457009369744646,-0.11498461699830127
16.200999999996817,1.4830558870819466,-0.1212328514104282
16.40099999999706,1.5134502111011408,-0.127730346023315
16.600999999997306,1.5394619505132752,-0.12954312050790506
16.80099999999755,1.5772516586717835,-0.13369198063281193
17.000999999997795,1.6040685569900626,-0.13593896167427505
17.20099999999804,1.627880709147517,-0.13536409576666397
17.400999999998284,1.6553961615934747,-0.138992145759344
17.60099999999853,1.6833119327974797,-0.14409359197144042
17.800999999998773,1.7170886090022923,-0.15078311697048055
18.000999999999017,1.7463742518176573,-0.15330446738305817
18.20099999999926,1.769988856092365,-0.15778842736930632
18.400999999999506,1.7951411919269165,-0.16098863006610029
18.60099999999975,1.821231378828784,-0.15626281004665424
18.799999999999994,1.8447998584735545,-0.15813905526849129
19.000000000000238,1.8761578193731625,-0.16924932488177538
19.200000000000482,1.908399864181827,-0.177128331767013
19.400000000000727,1.9412667404832424,-0.18305876511560623
19.60000000000097,1.9688667798168717,-0.18776072217747894
19.800000000001216,1.9992707660056583,-0.19735873288369915
20.00000000000146,2.0289412584788478,-0.20701768121482056
