Time (s),X (m),Y (m)
0.001,0.00033312994539159724,-0.0010275501737767782
0.20000000000000015,0.0008287544076902536,-1.5931902642705952e-05
0.4000000000000003,0.0012577411681543354,-0.0001244842297178623
0.6000000000000004,0.0020722532370269146,-4.5663667930318916e-05
0.8000000000000006,0.003165467159526335,-8.224163791580494e-05
1.0000000000000007,0.004472492440558078,-0.0005606253012173342
1.2009999999999785,0.006172469919563463,-0.001140765261505837
1.4009999999999565,0.007952617316909492,-0.0009586788802380715
1.6009999999999345,0.01050883616571668,-0.0006315466971128078
1.8009999999999124,0.013062286053159455,-0.0005712713197913356
2.0009999999998906,0.015390478863826829,-0.0007241836502210614
2.2009999999998686,0.018047310365138458,-0.0006516516785608457
2.4009999999998466,0.020615608376138794,-0.00014077353398121687
2.6009999999998246,0.022732963464143344,0.0005852247758459407
2.8009999999998025,0.024641794358366467,0.001124823133460929
3.0009999999997805,0.026685295299064344,0.00163869523691526
3.2009999999997585,0.02848992143460669,0.002165319218839195
3.4009999999997365,0.03037450056279108,0.0011527925051944973
3.6009999999997144,0.031909330186431,0.002275942687860881
3.8009999999996924,0.03317422988065207,0.00246014142406032
4.000999999999671,0.034439887808475934,0.0051308614681334925
4.200999999999738,0.035520758660737645,0.005914944829383096
4.400999999999804,0.03697105643566794,0.006418665437587221
4.600999999999871,0.03803402629054301,0.007457190041964999
4.800999999999938,0.04057181706925941,0.008740001004128826
5.000000000000004,0.04250635058529602,0.009552597029614196
5.200000000000071,0.04261366581289987,0.01125024333137677
5.400000000000138,0.04201075162891854,0.013374751407760599
5.600000000000205,0.04202403936933706,0.016716517546144213
5.800000000000272,0.04260821754877744,0.019013948465993847
6.000000000000338,0.04259029169640255,0.021666431491737265
6.200000000000405,0.04448108568198721,0.023597319060138774
6.400000000000472,0.04491698594185639,0.02586841151640208
6.600000000000539,0.04598177980482686,0.028636855579653685
6.800000000000606,0.046497767154643696,0.03137018901931303
7.000000000000672,0.04707572992717347,0.034670797218713405
7.200000000000739,0.04736950209649054,0.03835958026658085
7.400000000000806,0.047564218457944535,0.04208244553011301
7.600000000000873,0.04797930935856484,0.045474429912964666
7.8000000000009395,0.048951026574754,0.04947750366424699
8.000000000001005,0.048423272362876364,0.05308310158326201
8.200000000000895,0.0493711865000011,0.056446776041704755
8.400000000000784,0.05056821748962949,0.05949578452351546
8.600000000000673,0.04966538835767259,0.061953321396844376
8.800000000000562,0.0488132425775561,0.06427346660042163
9.000000000000451,0.04883617800250693,0.06639070813234624
9.20000000000034,0.04874581592769443,0.06893584537224176
9.40000000000023,0.048742882808088736,0.0713213439901742
9.600000000000119,0.04747404760896025,0.07409888672720308
9.800000000000008,0.04661460133960884,0.0768864102699681
10.000999999999896,0.044418924735758286,0.07873012337208225
10.200999999999786,0.04208415520141454,0.0803373266651037
10.400999999999675,0.03859287633127597,0.08135873954960834
10.600999999999564,0.035336456353562216,0.0827499770077495
10.800999999999453,0.03249903250349453,0.08218451399070453
11.000999999999342,0.029745820882942618,0.08209637180433443
11.200999999999231,0.028215629757806646,0.08170949411103416
11.40099999999912,0.02631937221021087,0.08306691989393773
11.60099999999901,0.024098360938430773,0.08428575302885105
11.800999999998899,0.0215554211579015,0.08491411052693479
12.000999999998788,0.018820716989435604,0.08590898758335629
12.200999999998677,0.015315739915654238,0.08640178417018506
12.400999999998566,0.011295479431751913,0.0870095930356004
12.600999999998455,0.007667073732943229,0.08712090370100484
12.800999999998345,0.003851143330085509,0.08801520408561775
13.000999999998234,-0.00011594895866227112,0.08782390103392385
13.200999999998123,-0.004109116003674797,0.08824371402737821
13.400999999998012,-0.008349596608777715,0.08788801666532134
13.600999999997901,-0.012069668302473042,0.08827642308652495
13.80099999999779,-0.015275419067997382,0.08830267393409319
14.00099999999768,-0.019305203040680043,0.088452377462495
14.200999999997569,-0.023042145963230665,0.08838480315117754
14.400999999997458,-0.026012955795128485,0.08703980993858657
14.600999999997347,-0.02901255278770717,0.0858938434565543
14.800999999997236,-0.031557059619300415,0.08346131586948713
15.000999999997125,-0.034454476661171865,0.08121796996428209
15.200999999997014,-0.03683483526980534,0.07858969252095507
15.400999999996904,-0.03848235370548628,0.07571925220290329
15.600999999996793,-0.04064923082009955,0.07313311737840023
15.800999999996682,-0.042276496986012456,0.07115411525809107
16.000999999996573,-0.044306348937696936,0.06899812812221721
16.200999999996817,-0.04464895288375935,0.06669480456326425
16.40099999999706,-0.0459113276025369,0.0643800805931072
16.600999999997306,-0.04753060632932213,0.0622652531079747
16.80099999999755,-0.04843496513765302,0.05979113209784628
17.000999999997795,-0.04974666324123012,0.056916377391596634
17.20099999999804,-0.050493980022675376,0.0538845584248663
17.400999999998284,-0.05136899891871663,0.05057453179315718
17.60099999999853,-0.052355301951706144,0.04722153487716234
17.800999999998773,-0.0515278650727385,0.04306193815918345
18.000999999999017,-0.05187400927982524,0.03884068153848097
18.20099999999926,-0.05261987850423736,0.03433770443748418
18.400999999999506,-0.05298280785182609,0.030928778874869788
18.60099999999975,-0.0542276221884744,0.027314086799466057
18.799999999999994,-0.05415647972635463,0.02393594025404333
19.000000000000238,-0.05408160229884381,0.02098105221191253
19.200000000000482,-0.0533498471242458,0.017858347911101007
19.400000000000727,-0.05255206760218959,0.014321558409106839
19.60000000000097,-0.05088827256747821,0.011942180602775392
19.800000000001216,-0.04977740479582819,0.009573841108034869
20.00000000000146,-0.04862106773586069,0.006810125712071757
