Time (s),X (m),Y (m)
0.001,0.0014545041853094038,0.0
0.20000000000000015,0.0006379557916372689,0.00025784990496180205
0.4000000000000003,0.0038704007722383366,0.0006243882660249983
0.6000000000000004,0.009566829395854515,0.0009999468987818873
0.8000000000000006,0.013616954228803548,-0.001100551611927275
1.0000000000000007,0.011844867679775793,-0.0004920509480565951
1.2009999999999785,0.014410040432181767,-0.006978077296942702
1.4009999999999565,0.026127281470226707,-0.017282333233901614
1.6009999999999345,0.04720646863170428,-0.029656937643269585
1.8009999999999124,0.07968922515445603,-0.0454344923986276
2.0009999999998906,0.12142731554542893,-0.06818969587163645
2.2009999999998686,0.15778457817980762,-0.08975078990136443
2.4009999999998466,0.1880411539394699,-0.11116346704759567
2.6009999999998246,0.23064028943511697,-0.13644376940258846
2.8009999999998025,0.2724288773860851,-0.15761338349535828
3.0009999999997805,0.31431738381025387,-0.18668342387171366
3.2009999999997585,0.3505527016247475,-0.22803068418531366
3.4009999999997365,0.3691923458020706,-0.27941516544329326
3.6009999999997144,0.3680467091929434,-0.3309364770047273
3.8009999999996924,0.3538598353926785,-0.382265993336121
4.000999999999671,0.33795724608471606,-0.4267220318835835
4.200999999999738,0.31602078908828574,-0.47298775195967213
4.400999999999804,0.2905794269830464,-0.5190902290552861
4.600999999999871,0.2605027914641969,-0.5649770033877981
4.800999999999938,0.2228435090410783,-0.6278211849733285
5.000000000000004,0.17771453299466675,-0.7042702150933344
5.200000000000071,0.126880603538331,-0.777876567013763
5.400000000000138,0.07093933299545262,-0.8463993558098295
5.600000000000205,-0.0004663950613600716,-0.9016626947290987
5.800000000000272,-0.07370510367381927,-0.9311971371834503
6.000000000000338,-0.13827146913640678,-0.936483183463945
6.200000000000405,-0.20074863970699186,-0.9193781243939184
6.400000000000472,-0.2694734306947119,-0.8894453360130734
6.600000000000539,-0.34124369415568345,-0.8540090921681002
6.800000000000606,-0.4111726604430114,-0.811933175775074
7.000000000000672,-0.47214352785978564,-0.7739520844467807
7.200000000000739,-0.529526385148787,-0.7384492919258009
7.400000000000806,-0.5889818684721599,-0.6968876652939966
7.600000000000873,-0.6492886021211369,-0.6495096336947278
7.8000000000009395,-0.7090790651065324,-0.5997684631120193
8.000000000001005,-0.7558195676518199,-0.5493452672071356
8.200000000000895,-0.7771860570402828,-0.5044099606064826
8.400000000000784,-0.7692449205861396,-0.45386608941360945
8.600000000000673,-0.7375417663679349,-0.3965199002628579
8.800000000000562,-0.6964325028488999,-0.33747620167648595
9.000000000000451,-0.6509850918891372,-0.2926185731344938
9.20000000000034,-0.6043546427751102,-0.2770157361120611
9.40000000000023,-0.5591822399130352,-0.2842459360733127
9.600000000000119,-0.5123449605228582,-0.31024750936867923
9.800000000000008,-0.4698251062241225,-0.34160131329169885
10.000999999999896,-0.4530675545321725,-0.39015290851438056
10.200999999999786,-0.4585073462089596,-0.4395242542255373
10.400999999999675,-0.4730996566312505,-0.4889851507451181
10.600999999999564,-0.496488840449605,-0.5317871116983098
10.800999999999453,-0.5245135769343271,-0.5569483451951791
11.000999999999342,-0.5608343109187132,-0.5599343470607768
11.200999999999231,-0.6087995031988007,-0.5449270814318694
11.40099999999912,-0.6647711492564469,-0.5144095538767737
11.60099999999901,-0.7255570938696922,-0.4690861647380782
11.800999999998899,-0.7854733515953247,-0.4214747385868898
12.000999999998788,-0.8304740910757542,-0.3706117148813205
12.200999999998677,-0.8501964194191515,-0.33192281065871276
12.400999999998566,-0.8499019562770499,-0.29583138072738796
12.600999999998455,-0.8263975927982783,-0.2517444162364698
12.800999999998345,-0.7926461285094724,-0.2050827353453802
13.000999999998234,-0.7562957014934114,-0.1561080741380627
13.200999999998123,-0.7112897496811692,-0.10372177168817912
13.400999999998012,-0.6622600335457188,-0.05055286752514861
13.600999999997901,-0.6039123387808083,0.003377572331049386
13.80099999999779,-0.5472433337690544,0.05928191129399999
14.00099999999768,-0.4944395814851843,0.11568191188381811
14.200999999997569,-0.45112094126168983,0.1566995207941831
14.400999999997458,-0.4048149710427494,0.17030226557721356
14.600999999997347,-0.34578668713004057,0.15637761405010137
14.800999999997236,-0.2806789301148901,0.12505387380672703
15.000999999997125,-0.21465780750415986,0.08943031408283858
15.200999999997014,-0.14265927707162152,0.04736216650226397
15.400999999996904,-0.06984973211623619,-0.0016737572302851973
15.600999999996793,0.0015406010390050008,-0.06106899936640183
15.800999999996682,0.0509738204788819,-0.12162085930574601
16.000999999996573,0.06548635544616915,-0.19503365914074056
16.200999999996817,0.057931859144005934,-0.27347430348089735
16.40099999999706,0.03236066579812356,-0.3443899572128287
16.600999999997306,-0.001311667905067503,-0.40542126211634116
16.80099999999755,-0.05744312955203075,-0.4507584602181259
17.000999999997795,-0.11637108839625124,-0.4661583304380993
17.20099999999804,-0.172734481535566,-0.4550753849469787
17.400999999998284,-0.22604006019338047,-0.42926885062315817
17.60099999999853,-0.2743540618562067,-0.3937930830365488
17.800999999998773,-0.3075022403540438,-0.351948313885382
18.000999999999017,-0.3179951888819514,-0.30817991448698595
18.20099999999926,-0.3127362775403755,-0.2626377743873386
18.400999999999506,-0.28561019323938835,-0.21620962573266372
18.60099999999975,-0.24636712592239032,-0.1628163765845844
18.799999999999994,-0.20960019262527899,-0.10940499274595909
19.000000000000238,-0.16005822043830062,-0.0657449207122842
19.200000000000482,-0.10049456432183249,-0.0433220253529359
19.400000000000727,-0.027924438536121362,-0.03877594041652885
19.60000000000097,0.042436299156760615,-0.05359040857579273
19.800000000001216,0.11101549798797483,-0.08089616013295423
20.00000000000146,0.1685395066696986,-0.11089270577254844
