Time (s),X (m),Y (m)
0.001,7.024362446948994e-05,0.0009692696795465077
0.20000000000000015,0.0013665329905067393,-0.0011591474113053282
0.4000000000000003,0.0030709282149494954,0.003946820746011391
0.6000000000000004,0.011138918914591405,-0.0003302160259430475
0.8000000000000006,0.01925455151597071,-0.024362364175951622
1.0000000000000007,0.027079040327274404,-0.049295448500430376
1.2009999999999785,0.040235964609807946,-0.08025876114704017
1.4009999999999565,0.05362501766977254,-0.1282495178079318
1.6009999999999345,0.07222282695345504,-0.15061055279679827
1.8009999999999124,0.09359240746223817,-0.1699023896803162
2.0009999999998906,0.11580182046266961,-0.20959149100489535
2.2009999999998686,0.14041892834920783,-0.24309782596187784
2.4009999999998466,0.17331077493529473,-0.26638209387646977
2.6009999999998246,0.20300204114539663,-0.29053211391150596
2.8009999999998025,0.22850769815974084,-0.3137141497083324
3.0009999999997805,0.2546186820988775,-0.34186884145492746
3.2009999999997585,0.29032853833422767,-0.36137980268884107
3.4009999999997365,0.322927138782223,-0.3863311710281903
3.6009999999997144,0.35702288258173365,-0.4201202953240937
3.8009999999996924,0.39606545922706426,-0.432721198027047
4.000999999999671,0.4360707331465505,-0.4416740315962594
4.200999999999738,0.4784349898158184,-0.452546101441758
4.400999999999804,0.5234901061247571,-0.45969931633221056
4.600999999999871,0.5731930550018332,-0.46605642079277265
4.800999999999938,0.6229183567379244,-0.4854298000082001
5.000000000000004,0.6684310662863834,-0.5153152053571105
5.200000000000071,0.7124036389645859,-0.5384910497696541
5.400000000000138,0.7578036531820842,-0.5447907306030378
5.600000000000205,0.808545569386432,-0.541054358569699
5.800000000000272,0.8618734235090444,-0.5501665533247434
6.000000000000338,0.9084243139125104,-0.5769478317391387
6.200000000000405,0.9518451431848718,-0.6079142707932167
6.400000000000472,0.994784472987822,-0.6330081948073741
6.600000000000539,1.034697996310505,-0.6694054617037649
6.800000000000606,1.0795688188045782,-0.7021737739459434
7.000000000000672,1.128862858146763,-0.7291706339868974
7.200000000000739,1.1801050150523857,-0.7487093010223562
7.400000000000806,1.2296200874281416,-0.7601544786314037
7.600000000000873,1.2796805345422413,-0.7545814824588777
7.8000000000009395,1.332331083848349,-0.7305782125799097
8.000000000001005,1.389689766262843,-0.7230001387670906
8.200000000000895,1.4468543423321791,-0.7116693543997217
8.400000000000784,1.5027238910121765,-0.7231712364450942
8.600000000000673,1.556590053879279,-0.7408033130993448
8.800000000000562,1.614667921849682,-0.7487790946885214
9.000000000000451,1.6740330461551827,-0.7521102431608769
9.20000000000034,1.7306829997204503,-0.7409281575710701
9.40000000000023,1.7863413299296331,-0.7354171258684293
9.600000000000119,1.8406466148685676,-0.7453185078370597
9.800000000000008,1.895033735620585,-0.7866909366072208
10.000999999999896,1.952497556758844,-0.8132737200499306
10.200999999999786,2.0038132076357345,-0.8567308042958642
10.400999999999675,2.055436945815436,-0.9020805501673056
10.600999999999564,2.104595565892837,-0.9415381124579318
10.800999999999453,2.1546419858894788,-0.9762924055133005
11.000999999999342,2.2039490050405983,-0.998649604191895
11.200999999999231,2.2570017009156778,-1.0379623637241666
11.40099999999912,2.314969165715728,-1.0869563065173022
11.60099999999901,2.378080883353085,-1.1284451310230692
11.800999999998899,2.443383661742198,-1.1556671085816372
12.000999999998788,2.5011678305229137,-1.1730409646206184
12.200999999998677,2.556805890321498,-1.1924172219888922
12.400999999998566,2.60950909996873,-1.2127530671757085
12.600999999998455,2.6606721078326214,-1.2542920112722997
12.800999999998345,2.713349847268373,-1.2960549595076312
13.000999999998234,2.7690238772107167,-1.3293758893813017
13.200999999998123,2.8314562153168077,-1.3490776824237882
13.400999999998012,2.898291230977513,-1.355778289906709
13.600999999997901,2.964231913176651,-1.365272925709835
13.80099999999779,3.025284747664237,-1.4009885403604112
14.00099999999768,3.082765786008482,-1.446105438359079
14.200999999997569,3.1427115508147443,-1.507046462134016
14.400999999997458,3.2067983911621125,-1.5576311522437436
14.600999999997347,3.2704627515814986,-1.5839812470435306
14.800999999997236,3.3227261507945305,-1.6313985863720477
15.000999999997125,3.3704707881617546,-1.670053082675807
15.200999999997014,3.420326468305815,-1.7115942159134883
15.400999999996904,3.4682580835791788,-1.753487301217324
15.600999999996793,3.5171302774227433,-1.7886560031031322
15.800999999996682,3.562849549557553,-1.8365346385460208
16.000999999996573,3.6025756558589532,-1.8920311880529497
16.200999999996817,3.6391868328983246,-1.9497360417085434
16.40099999999706,3.681840717871314,-2.0036764238156377
16.600999999997306,3.7248555105751056,-2.0631335984316856
16.80099999999755,3.767205887819609,-2.1130830425970113
17.000999999997795,3.8126398205574916,-2.145576917772172
17.20099999999804,3.8528505431536204,-2.1911192527750156
17.400999999998284,3.8911732928110236,-2.243075946111638
17.60099999999853,3.9288783063288406,-2.3054849330982883
17.800999999998773,3.970127914715997,-2.35249482949842
18.000999999999017,4.014988492098453,-2.3782843363394455
18.20099999999926,4.066447505947359,-2.407811505389448
18.400999999999506,4.110859795285376,-2.463175821571763
18.60099999999975,4.153091871253478,-2.5358439841311573
18.799999999999994,4.1948836762839665,-2.596951430854243
19.000000000000238,4.24335709939638,-2.631840970345664
19.200000000000482,4.294543819155158,-2.661580547831642
19.400000000000727,4.3470669968073725,-2.6944810259097562
19.60000000000097,4.395220429455554,-2.7269099258530485
19.800000000001216,4.440161164444186,-2.760843217568792
20.00000000000146,4.478773656684737,-2.7975715238790837
