Time (s),X (m),Y (m)
0.001,0.0006899943756669482,-0.0009963285817120471
0.20000000000000015,0.0012089472078003938,0.0015088342872957314
0.4000000000000003,0.007306356256435669,0.009601463825173968
0.6000000000000004,0.02038701835782168,0.01978158000349622
0.8000000000000006,0.035702158490191496,0.025230764800009502
1.0000000000000007,0.05582434447621726,0.03841745816515646
1.2009999999999785,0.08169533984545804,0.045834164915558
1.4009999999999565,0.11726549907618547,0.05875815975619498
1.6009999999999345,0.1515768630352411,0.05920212223504694
1.8009999999999124,0.18714080456620782,0.05760817100492045
2.0009999999998906,0.21892625068538787,0.04677134013124026
2.2009999999998686,0.24652696742997043,0.02584207689966758
2.4009999999998466,0.2720670167887643,-0.0002835059917476752
2.6009999999998246,0.2956678364167717,-0.03702292464870031
2.8009999999998025,0.326321445807685,-0.06405157775971913
3.0009999999997805,0.35706907372011,-0.08684451470490023
3.2009999999997585,0.3872034294848947,-0.11137416105513825
3.4009999999997365,0.4253094195762586,-0.12860499444795848
3.6009999999997144,0.47033340895872594,-0.14614578755636665
3.8009999999996924,0.5218171761968975,-0.16958291388751975
4.000999999999671,0.573647827736467,-0.18139153365917243
4.200999999999738,0.6246602982585768,-0.205263274520165
4.400999999999804,0.6777207312922395,-0.22564225103533495
4.600999999999871,0.7343704577992157,-0.2392907948265544
4.800999999999938,0.7930800772255387,-0.2500385959690931
5.000000000000004,0.8530002074205743,-0.2773838820689062
5.200000000000071,0.91821183555686,-0.3027515248272675
5.400000000000138,0.9792892623131491,-0.33041966836758896
5.600000000000205,1.0466009470827864,-0.3511572720078923
5.800000000000272,1.1118331956647034,-0.3405213417316393
6.000000000000338,1.1731380963366052,-0.33438555891289823
6.200000000000405,1.2339560560756475,-0.3431375088315917
6.400000000000472,1.2997243596723305,-0.3646712627151667
6.600000000000539,1.3700792559763422,-0.37806697905959175
6.800000000000606,1.4390539776450437,-0.3992342404452239
7.000000000000672,1.5047304816507054,-0.4185590284346846
7.200000000000739,1.5660480808897475,-0.44014182455828627
7.400000000000806,1.6229209195663439,-0.4595650154347334
7.600000000000873,1.6786310580672592,-0.4872012846651444
7.8000000000009395,1.7294761157003293,-0.5284851201926287
8.000000000001005,1.7734133266135699,-0.5824573184124325
8.200000000000895,1.8185658343686295,-0.6458571729533308
8.400000000000784,1.8707472050187823,-0.6948437623689214
8.600000000000673,1.927477337307866,-0.7377475054468735
8.800000000000562,1.9875979144119031,-0.7714029163426774
9.000000000000451,2.050387183238694,-0.7991647127359633
9.20000000000034,2.1150135783262343,-0.8119799087033868
9.40000000000023,2.1801784023039983,-0.7951996919719756
9.600000000000119,2.2490509409880093,-0.7872193878023019
9.800000000000008,2.3276327286302845,-0.8010023363291947
10.000999999999896,2.3966049887322067,-0.8213409082120314
10.200999999999786,2.449110447414341,-0.8515403880808363
10.400999999999675,2.4893788163907393,-0.891337944472125
10.600999999999564,2.506179650295487,-0.9407831109749393
10.800999999999453,2.50782853742345,-0.9934736342718343
11.000999999999342,2.503162661033939,-1.0480526802781895
11.200999999999231,2.4826766571940606,-1.0991477386204116
11.40099999999912,2.4589969796727007,-1.1473488142149173
11.60099999999901,2.4222478249225694,-1.1924971099830315
11.800999999998899,2.385498166690221,-1.235815091775683
12.000999999998788,2.358715047090984,-1.283004134627663
12.200999999998677,2.328410107776885,-1.3302547521937806
12.400999999998566,2.2827140225068674,-1.380777705348244
12.600999999998455,2.231065738910391,-1.4301933015476578
12.800999999998345,2.177890463714172,-1.4824471345067698
13.000999999998234,2.125915309277503,-1.5372430039517784
13.200999999998123,2.0961224995066665,-1.595727627957782
13.400999999998012,2.091632488906352,-1.6526614618674087
13.600999999997901,2.0905098386287797,-1.712610961109224
13.80099999999779,2.0854122863230664,-1.7758088864007646
14.00099999999768,2.0842534820165235,-1.8409601710715044
14.200999999997569,2.085785178536433,-1.9115186692088457
14.400999999997458,2.072711027155415,-1.976345672432174
14.600999999997347,2.052474348613971,-2.0383127933183554
14.800999999997236,2.0324696352982397,-2.1049649248098476
15.000999999997125,2.0202578671390232,-2.177096173453477
15.200999999997014,2.015237778782102,-2.2508075532878022
15.400999999996904,1.9957729722113475,-2.3144753229055373
15.600999999996793,1.975248271810007,-2.374022523670294
15.800999999996682,1.9826264088020078,-2.433584398608893
16.000999999996573,1.9878636840159296,-2.4980211691662695
16.200999999996817,1.9754751611221635,-2.5627615129739856
16.40099999999706,1.9560316174502963,-2.62751905742507
16.600999999997306,1.929935038752983,-2.690100044032347
16.80099999999755,1.904490455037815,-2.7533810977892923
17.000999999997795,1.875588187187661,-2.818621578383753
17.20099999999804,1.8379413279210477,-2.885763278878307
17.400999999998284,1.7872061763999303,-2.947744776626955
17.60099999999853,1.7130903708987166,-2.9997601598384014
17.800999999998773,1.6546517601192452,-3.050612461608718
18.000999999999017,1.5931410514730784,-3.0975570935142795
18.20099999999926,1.5440955276651547,-3.1441377282703016
18.400999999999506,1.5024472222307714,-3.1972651436053545
18.60099999999975,1.4652143229598282,-3.2527988220465116
18.799999999999994,1.4252298298076798,-3.3104320439503234
19.000000000000238,1.3812191612606983,-3.3701728565237064
19.200000000000482,1.3379332910948758,-3.4354463589333117
19.400000000000727,1.2806595228801254,-3.500653850647742
19.60000000000097,1.2248547405311707,-3.564463665862299
19.800000000001216,1.186480689469043,-3.6284704971403947
20.00000000000146,1.1442060558172367,-3.697329561155693
