Time (s),X (m),Y (m)
0.001,-0.00060452123697562,-8.989899140956103e-05
0.20000000000000015,0.002713930429842611,0.0007485048579342337
0.4000000000000003,0.017832004510458164,0.0029726010374541614
0.6000000000000004,0.021834709369275954,0.0037485362103301775
0.8000000000000006,0.042911272292599674,-0.004652383672109034
1.0000000000000007,0.06678853071397432,-0.017378496503743436
1.2009999999999785,0.08870213249022334,-0.027653783490673198
1.4009999999999565,0.10553517882240758,-0.041862733921254586
1.6009999999999345,0.11419010162687514,-0.05729505090935842
1.8009999999999124,0.11444345760511933,-0.0803994864725019
2.0009999999998906,0.10744844118679857,-0.11012940299195528
2.2009999999998686,0.09652967158951906,-0.13876040824320124
2.4009999999998466,0.08595370499506574,-0.16542110056038967
2.6009999999998246,0.06974827941918103,-0.19530605064391773
2.8009999999998025,0.04039491035665185,-0.23508361162474153
3.0009999999997805,0.006416827434996984,-0.2823078729465363
3.2009999999997585,-0.031467276708987454,-0.3306150806009687
3.4009999999997365,-0.06678369629339857,-0.3747586691539896
3.6009999999997144,-0.11032141730197689,-0.4173652723482627
3.8009999999996924,-0.1509208988784207,-0.44240144206164306
4.000999999999671,-0.19058550986289197,-0.44469287997199514
4.200999999999738,-0.24338510149559878,-0.429906169355269
4.400999999999804,-0.29227902030766817,-0.41060437130673993
4.600999999999871,-0.3394681086867379,-0.3828166060517834
4.800999999999938,-0.3957131701186857,-0.34671162396518046
5.000000000000004,-0.44924045912738425,-0.3117558096506415
5.200000000000071,-0.5113370113251348,-0.2709798534013769
5.400000000000138,-0.5759608977816556,-0.22666872082269013
5.600000000000205,-0.6436558473622689,-0.17531278249646456
5.800000000000272,-0.7124399251890331,-0.1248993767749518
6.000000000000338,-0.7794344209573841,-0.07305079854325361
6.200000000000405,-0.840765376725856,-0.024862149213657477
6.400000000000472,-0.8853568655274161,0.02756252332618126
6.600000000000539,-0.9009727050243088,0.09130937874226623
6.800000000000606,-0.8906570962839871,0.15290349401896575
7.000000000000672,-0.8712427636061879,0.2142533323196909
7.200000000000739,-0.8430618870745129,0.27047522050296324
7.400000000000806,-0.7907667386409135,0.3207973938821517
7.600000000000873,-0.7301670082398175,0.3466464115721442
7.8000000000009395,-0.6739982999030262,0.34859848502881274
8.000000000001005,-0.6213045743669106,0.3336855710799497
8.200000000000895,-0.5553496886248023,0.30261770411649175
8.400000000000784,-0.4814899113306251,0.2587246363343065
8.600000000000673,-0.40773969520975667,0.21241258229781804
8.800000000000562,-0.34500478832333875,0.1694324220736591
9.000000000000451,-0.2843864292533451,0.12243168980614559
9.20000000000034,-0.22467813599765135,0.07526654093879628
9.40000000000023,-0.17087170577432156,0.030536282749142572
9.600000000000119,-0.12103978624921462,-0.013066613376586605
9.800000000000008,-0.06313805921194793,-0.0641632975562205
10.000999999999896,-0.0071269955156743085,-0.11082675875839797
10.200999999999786,0.05333639403945103,-0.1626702941197367
10.400999999999675,0.09673773820137847,-0.22197336167297751
10.600999999999564,0.10583533920129776,-0.2860973116817742
10.800999999999453,0.09001855381625795,-0.3548568175226887
11.000999999999342,0.055577265193485166,-0.42943104832461876
11.200999999999231,0.009689700830040992,-0.5079450007486366
11.40099999999912,-0.0475873401260321,-0.5844516267994933
11.60099999999901,-0.10054865868800299,-0.653170515542645
11.800999999998899,-0.15289170972246108,-0.7210088694377554
12.000999999998788,-0.1984803696747379,-0.7830419118997181
12.200999999998677,-0.24926858138377778,-0.8541005322250101
12.400999999998566,-0.29935060799196855,-0.9256014149303541
12.600999999998455,-0.34663753978488937,-0.9881074234038215
12.800999999998345,-0.39552931331016417,-1.051747215776252
13.000999999998234,-0.4402111563227278,-1.1140844215502572
13.200999999998123,-0.4706784295459184,-1.1828341200153696
13.400999999998012,-0.5023696784632109,-1.2482364389134772
13.600999999997901,-0.5485134694851431,-1.3300381823667782
13.80099999999779,-0.5990647295096814,-1.4109990383846676
14.00099999999768,-0.6539176895519128,-1.4972171194736117
14.200999999997569,-0.7201339053829758,-1.5876774857986906
14.400999999997458,-0.7946388465185976,-1.6835683520647653
14.600999999997347,-0.8656879391335888,-1.7789412738599488
14.800999999997236,-0.9432364918709475,-1.870122761655847
15.000999999997125,-1.0268850553893352,-1.9373565718931525
15.200999999997014,-1.104326095480955,-1.9650547317812517
15.400999999996904,-1.171660022430556,-1.9616642304780205
15.600999999996793,-1.232770999459104,-1.9312491744651843
15.800999999996682,-1.2883029743555339,-1.887201406443416
16.000999999996573,-1.331603200648429,-1.8321614609212402
16.200999999996817,-1.3600269336301027,-1.7825564338899123
16.40099999999706,-1.377560297274055,-1.728056937505802
16.600999999997306,-1.371964683088325,-1.669496025546475
16.80099999999755,-1.3498709026605795,-1.6104075375890565
17.000999999997795,-1.3197976167352823,-1.547442571063486
17.20099999999804,-1.2750264001699767,-1.473890870483425
17.400999999998284,-1.2208874854282628,-1.398686509757288
17.60099999999853,-1.1669554001962066,-1.3352503907887447
17.800999999998773,-1.1233607375245447,-1.304016756853153
18.000999999999017,-1.069371708018118,-1.3072190318073016
18.20099999999926,-1.0120511135247936,-1.3310941648235577
18.400999999999506,-0.9546258976787946,-1.3632261496588214
18.60099999999975,-0.8906171264283613,-1.400946545555969
18.799999999999994,-0.8282369908655278,-1.4452232521130268
19.000000000000238,-0.75935949980731,-1.5064113040108946
19.200000000000482,-0.6918225442728293,-1.5641869098852066
19.400000000000727,-0.6314555039153021,-1.6137236854766437
19.60000000000097,-0.5862034645825062,-1.6633832151865704
19.800000000001216,-0.551564929900025,-1.7190743499397543
20.00000000000146,-0.5124624123537336,-1.7787705977160782
