Time (s),X (m),Y (m)
0.001,0.0012131848191356664,-0.000663019509439443
0.20000000000000015,0.0005902098747694441,0.0005998812799675638
0.4000000000000003,-0.00010915491427466866,0.0080047057495604
0.6000000000000004,-0.0010548849471802284,0.014845650306998439
0.8000000000000006,-0.0002572390422815105,0.024424023635511556
1.0000000000000007,0.0020911248517718898,0.03713025865884009
1.2009999999999785,0.012287788299912538,0.04489961958421223
1.4009999999999565,0.030727810908335273,0.04154915993479396
1.6009999999999345,0.05158926539061152,0.028362338777830932
1.8009999999999124,0.0736685740335569,0.0006447900701740945
2.0009999999998906,0.09346587083004447,-0.034706468182452564
2.2009999999998686,0.10640486324367923,-0.05908253270249243
2.4009999999998466,0.11358940929535657,-0.09326076583578491
2.6009999999998246,0.11569234307974381,-0.13070646287026016
2.8009999999998025,0.10785892824242899,-0.16980055941407157
3.0009999999997805,0.10502920474799497,-0.20798509303119603
3.2009999999997585,0.09356362749105489,-0.23603312256818978
3.4009999999997365,0.06710096108928491,-0.24835015658757406
3.6009999999997144,0.04289353331895967,-0.2597654435369394
3.8009999999996924,0.0065959260074824845,-0.26267253567411675
4.000999999999671,-0.045056740877520006,-0.2550680636291302
4.200999999999738,-0.10987394733613826,-0.24272258992709111
4.400999999999804,-0.17720144093647408,-0.22796835824673065
4.600999999999871,-0.2491701209577768,-0.20629585669452738
4.800999999999938,-0.31349174121546974,-0.1958221574523089
5.000000000000004,-0.3764194293154597,-0.16235857343340326
5.200000000000071,-0.43925727901673,-0.1198165964791345
5.400000000000138,-0.48291530551555795,-0.06893352511379044
5.600000000000205,-0.49962115178839267,-0.013359946487452506
5.800000000000272,-0.5137693623258324,0.04081590075092311
6.000000000000338,-0.533711865550062,0.07964665293508727
6.200000000000405,-0.5557615361458218,0.11426320451479208
6.400000000000472,-0.5673855269751361,0.16645839634272916
6.600000000000539,-0.5726810724482182,0.2224059176466954
6.800000000000606,-0.5726730616156686,0.27954268088666023
7.000000000000672,-0.5573062550964744,0.35350856250942236
7.200000000000739,-0.5368014087153045,0.4324856332838291
7.400000000000806,-0.5186435513836783,0.5044611860130366
7.600000000000873,-0.504912216230063,0.5759937573628421
7.8000000000009395,-0.49139206090354615,0.63956577880145
8.000000000001005,-0.47458696193772615,0.7080117030161144
8.200000000000895,-0.4566749400769673,0.7851841469967914
8.400000000000784,-0.4345585212815597,0.8706523818210132
8.600000000000673,-0.3859280289807553,0.9698460111253391
8.800000000000562,-0.3415954367241488,1.0689769871489674
9.000000000000451,-0.3121670163934181,1.1517801641159382
9.20000000000034,-0.29026853487572357,1.2315333575474743
9.40000000000023,-0.2642887833302858,1.3099932139828308
9.600000000000119,-0.23712254175101838,1.3856773126020576
9.800000000000008,-0.2036518077756305,1.466337922522446
10.000999999999896,-0.14751267526994802,1.5479176874608622
10.200999999999786,-0.07486642625017174,1.6065763575539331
10.400999999999675,0.007122345491282978,1.624195292012258
10.600999999999564,0.0899719035954968,1.6251240282939836
10.800999999999453,0.1734966272705079,1.6089842539151407
11.000999999999342,0.26056496838494764,1.5806920980257622
11.200999999999231,0.3483088891063341,1.5450578442770182
11.40099999999912,0.4305499228962623,1.5193081968952518
11.60099999999901,0.5184694897272702,1.4904673797110235
11.800999999998899,0.6081264630204238,1.4564450024311577
12.000999999998788,0.7049876860901327,1.4139631943684066
12.200999999998677,0.794586731917556,1.3732787582484907
12.400999999998566,0.8888214439156562,1.332548060717883
12.600999999998455,0.983760975773064,1.2875900215795375
12.800999999998345,1.0782774305470082,1.2416488645515456
13.000999999998234,1.1593257707941322,1.1763478516211603
13.200999999998123,1.2026193115966122,1.1042964379853288
13.400999999998012,1.2291368195112953,1.0395337901768202
13.600999999997901,1.2388626475923703,0.9628625109902438
13.80099999999779,1.2396342203949158,0.8814148509050568
14.00099999999768,1.2301589327335936,0.8029049823154034
14.200999999997569,1.2074400088766448,0.7308250129378068
14.400999999997458,1.1861317786399599,0.6559701469643845
14.600999999997347,1.1526575120024944,0.5708107242189676
14.800999999997236,1.1097893031651807,0.48465502359704243
15.000999999997125,1.050945969874561,0.40831506855156957
15.200999999997014,0.9800630895260528,0.3689411643016891
15.400999999996904,0.9031855325361364,0.36530451030458894
15.600999999996793,0.8300762467569599,0.39830711422819765
15.800999999996682,0.7756266307422855,0.4431073424236296
16.000999999996573,0.7569541761256048,0.49377385671448804
16.200999999996817,0.7684422158467609,0.5513468086014149
16.40099999999706,0.7980985467136343,0.6156608042408735
16.600999999997306,0.8427341946769489,0.674690505425421
16.80099999999755,0.9105902591749867,0.7152186078953835
17.000999999997795,0.983759415520407,0.7425763345908196
17.20099999999804,1.0522075909353616,0.752844868629129
17.400999999998284,1.1024486368631863,0.7322130518781342
17.60099999999853,1.1301551815214017,0.6936904852704385
17.800999999998773,1.1483330693345608,0.6457452988795521
18.000999999999017,1.1392876421452804,0.5853195865144181
18.20099999999926,1.1166283128142884,0.5297511869698107
18.400999999999506,1.0756598729500328,0.49598487169630445
18.60099999999975,1.0343620537825833,0.478601414158839
18.799999999999994,0.9856714780651509,0.4765056457030637
19.000000000000238,0.9294126362703475,0.5044906247704695
19.200000000000482,0.8921104964901844,0.5523770351095568
19.400000000000727,0.8761343425260891,0.6098512006867864
19.60000000000097,0.882008074093143,0.6776522207193358
19.800000000001216,0.8992729212240339,0.7488492958833928
20.00000000000146,0.9423203394896413,0.8167985721364142
