Time (s),X (m),Y (m)
0.001,0.0008589492133542695,0.0009348340498585851
0.20000000000000015,0.0009306309971558969,-1.675661486856944e-05
0.4000000000000003,0.006582708492328625,0.0035062202991493143
0.6000000000000004,0.02222730331801128,0.008041041440232051
0.8000000000000006,0.047184794773618276,0.016170201365387406
1.0000000000000007,0.06448027678646252,0.018627572804408608
1.2009999999999785,0.07766382768686378,0.014974017720359126
1.4009999999999565,0.10499454855220386,0.0035834798005575054
1.6009999999999345,0.12211707196111397,-0.011706505667035723
1.8009999999999124,0.14136933485566008,-0.033213658134763985
2.0009999999998906,0.1541238261003198,-0.059870260298315464
2.2009999999998686,0.177292984860666,-0.08082688486048555
2.4009999999998466,0.20277023229695287,-0.09421343532805476
2.6009999999998246,0.2222440117689742,-0.11264638404605586
2.8009999999998025,0.22890091419730743,-0.13336210658458156
3.0009999999997805,0.24497160133592613,-0.1640310536608088
3.2009999999997585,0.2671483044294687,-0.2010249590134475
3.4009999999997365,0.2967310822928202,-0.24287727333745515
3.6009999999997144,0.3237208247218269,-0.29227770642910256
3.8009999999996924,0.35455367286087563,-0.34044250933385517
4.000999999999671,0.3755799383997102,-0.389187906773496
4.200999999999738,0.3828598098090182,-0.4356858968271473
4.400999999999804,0.3708699551765288,-0.4701404564134255
4.600999999999871,0.33284773747356006,-0.49433029895104824
4.800999999999938,0.29468812459533356,-0.5054285991826076
5.000000000000004,0.26015345786794863,-0.4984530749155162
5.200000000000071,0.23497803984695043,-0.4845741581306845
5.400000000000138,0.21226234116043588,-0.46056334773480145
5.600000000000205,0.19651538179922823,-0.4255999221240252
5.800000000000272,0.16602365268684433,-0.38445184412723954
6.000000000000338,0.13305693042771846,-0.3402926059265815
6.200000000000405,0.10521679286009832,-0.2959837306382852
6.400000000000472,0.07710724916242814,-0.2508977805609721
6.600000000000539,0.055070945416046305,-0.1997345801829138
6.800000000000606,0.03875917549991591,-0.13952935137993228
7.000000000000672,0.03512711072822683,-0.06298173082036977
7.200000000000739,0.05250621037728454,-0.007240076540585473
7.400000000000806,0.08453717862003889,0.038008530658897303
7.600000000000873,0.1275799190285392,0.07617500352864327
7.8000000000009395,0.1770291002666876,0.13207549790359296
8.000000000001005,0.2284023181288678,0.1917790273573967
8.200000000000895,0.2834674015462543,0.2424701535521468
8.400000000000784,0.34117911909793436,0.2695444713913342
8.600000000000673,0.4053149972553555,0.2949200550323104
8.800000000000562,0.4624928468045931,0.3098313978229022
9.000000000000451,0.5069109652792976,0.3013509004896087
9.20000000000034,0.5508643861851937,0.26653739145738736
9.40000000000023,0.5839279765377119,0.2229363473159691
9.600000000000119,0.6023460805994192,0.18064770864290733
9.800000000000008,0.5984823728088093,0.15134793775357852
10.000999999999896,0.5773647858468403,0.13316543961306856
10.200999999999786,0.5518338850223611,0.09081990103410933
10.400999999999675,0.5200980599260209,0.036568894070620105
10.600999999999564,0.4848168342171314,0.005481480907386643
10.800999999999453,0.4433036481490328,-0.0424849092263985
11.000999999999342,0.39309669215987214,-0.0919966831897022
11.200999999999231,0.332908696357733,-0.14471795306148993
11.40099999999912,0.2674888387543373,-0.19848633409678298
11.60099999999901,0.2074270171125606,-0.23493180792804716
11.800999999998899,0.15594520636687698,-0.25730493923723247
12.000999999998788,0.10970066360703658,-0.26402333738187667
12.200999999998677,0.059663415964829894,-0.25218866172433124
12.400999999998566,0.011826468234281177,-0.22942761890295993
12.600999999998455,-0.014032886195932714,-0.194812918731406
12.800999999998345,-0.04662545785310486,-0.14375417041469335
13.000999999998234,-0.07098727670089418,-0.08729170397797027
13.200999999998123,-0.10081103808026805,-0.023921200627779745
13.400999999998012,-0.12973595577294755,0.04459916170320438
13.600999999997901,-0.15999582781048,0.121259224901113
13.80099999999779,-0.19142270678856813,0.19649909082982145
14.00099999999768,-0.22801227112429215,0.271350559237023
14.200999999997569,-0.26401132577205993,0.3488271709715428
14.400999999997458,-0.30679260944047454,0.423464908914507
14.600999999997347,-0.33672280179272746,0.49617472111748645
14.800999999997236,-0.36860548855501724,0.5659111685955456
15.000999999997125,-0.40949473900259525,0.6450496771710502
15.200999999997014,-0.45392728437568985,0.7315723430799526
15.400999999996904,-0.49111078657883256,0.8161228647182258
15.600999999996793,-0.5404938735386073,0.8969741471641296
15.800999999996682,-0.597956346146495,0.9691001892527322
16.000999999996573,-0.6583235506562279,1.0411558658340858
16.200999999996817,-0.7150697403357917,1.1140804493494971
16.40099999999706,-0.7557178881899368,1.1910305349397432
16.600999999997306,-0.7981145270223567,1.2737741115769414
16.80099999999755,-0.8346174523578511,1.349440455122019
17.000999999997795,-0.8441651155169322,1.4202032400295945
17.20099999999804,-0.8115876027302391,1.4768998141358096
17.400999999998284,-0.7477555694413923,1.526797508291026
17.60099999999853,-0.6749572562452262,1.567018393724744
17.800999999998773,-0.6032575071925957,1.5961020923612914
18.000999999999017,-0.5311739498736362,1.6060401825119295
18.20099999999926,-0.46972703959556433,1.5918878443621465
18.400999999999506,-0.42180669073881827,1.5553643176883392
18.60099999999975,-0.37168526644131805,1.49879504766286
18.799999999999994,-0.32891559943600795,1.432969447288623
19.000000000000238,-0.2956123646498225,1.3622139059466432
19.200000000000482,-0.2745562171438602,1.2848710841595958
19.400000000000727,-0.2648680463072058,1.2142581715392535
19.60000000000097,-0.26567666731913553,1.1578477944276155
19.800000000001216,-0.27709809820138986,1.1152019122428318
20.00000000000146,-0.31167343355360344,1.0691172023147177
