Time (s),X (m),Y (m)
0.001,-0.00060452123697562,-8.989899140956103e-05
0.20000000000000015,0.0011437703667347315,0.0006632753494475052
0.4000000000000003,0.0023490750331421873,0.004410289647572655
0.6000000000000004,0.004617646771231608,0.007054589161924339
0.8000000000000006,0.003647938728414891,0.007521509934342245
1.0000000000000007,0.00430588934105296,0.0025863829285143265
1.2009999999999785,0.007728333629886251,0.00033538466827257864
1.4009999999999565,0.015559801983886417,-0.010636042364313083
1.6009999999999345,0.026053822335522378,-0.0395482441198878
1.8009999999999124,0.028665472441059905,-0.07503530459986484
2.0009999999998906,0.026952655060452503,-0.10190520528506995
2.2009999999998686,0.024813913938970585,-0.12874268298669259
2.4009999999998466,0.019257401443024465,-0.15892215173435917
2.6009999999998246,0.008606635768870873,-0.18759593525340698
2.8009999999998025,-0.004311725072496263,-0.2152823186392082
3.0009999999997805,-0.02348610567079363,-0.24783782090514794
3.2009999999997585,-0.056966465553335704,-0.2776053800958348
3.4009999999997365,-0.11011194598300247,-0.3129263521980975
3.6009999999997144,-0.16448084757358455,-0.3429708210631561
3.8009999999996924,-0.21084651621585979,-0.35770293475561804
4.000999999999671,-0.2520130656464408,-0.36026481883995637
4.200999999999738,-0.2949386643992228,-0.348920812152464
4.400999999999804,-0.3348459125981789,-0.32757477205299973
4.600999999999871,-0.36979515038270705,-0.30341899747106565
4.800999999999938,-0.40700289445251436,-0.27460291125806485
5.000000000000004,-0.4621173501572256,-0.23390383135851653
5.200000000000071,-0.5196501368127295,-0.186592405805721
5.400000000000138,-0.5802633533353627,-0.13842919886872404
5.600000000000205,-0.6351745404335737,-0.09968231587612633
5.800000000000272,-0.6748755438840653,-0.06476568309325643
6.000000000000338,-0.6880270780866393,-0.03197969771978506
6.200000000000405,-0.6751599534276547,0.018456833563008812
6.400000000000472,-0.6538308526533734,0.0673884671239207
6.600000000000539,-0.6212718665545971,0.12020237015484711
6.800000000000606,-0.5782316509284244,0.1806996298133297
7.000000000000672,-0.5343492188974924,0.24195737103624668
7.200000000000739,-0.48906085255450105,0.30591344367508105
7.400000000000806,-0.4494323366161106,0.36887033710807715
7.600000000000873,-0.41141449826751797,0.4251924449020385
7.8000000000009395,-0.36767481609051916,0.48764636756201163
8.000000000001005,-0.3233393792618553,0.5532191806083764
8.200000000000895,-0.2787705379576076,0.620446028962134
8.400000000000784,-0.2300059665189874,0.6868575958232728
8.600000000000673,-0.1813399219323866,0.7488177633905736
8.800000000000562,-0.13084658838038657,0.8160500708427635
9.000000000000451,-0.076262497624863,0.8881532976125592
9.20000000000034,-0.01836680923991226,0.9605958928486003
9.40000000000023,0.031794284966073616,1.0193256362087186
9.600000000000119,0.08105298058803152,1.055670946512191
9.800000000000008,0.12228732090722669,1.0624771142841865
10.000999999999896,0.16887686412438546,1.0418969612267288
10.200999999999786,0.2213341663702968,0.998498614807277
10.400999999999675,0.2734704193817343,0.9460492254752667
10.600999999999564,0.31554648758745735,0.8871375251916683
10.800999999999453,0.3414354027429188,0.8368482096652042
11.000999999999342,0.34368351818932663,0.784291299341024
11.200999999999231,0.3221205574086031,0.7321318360284615
11.40099999999912,0.2949306813512871,0.6833815514726601
11.60099999999901,0.261323841631368,0.6311612389851282
11.800999999998899,0.2202680422511866,0.5744315481010965
12.000999999998788,0.17460382044337816,0.5173329260547438
12.200999999998677,0.12403333045115196,0.4562854561077708
12.400999999998566,0.07321187348424893,0.40023877520179924
12.600999999998455,0.03370439981699504,0.35719998088609606
12.800999999998345,-0.01625556954151504,0.3345632129978339
13.000999999998234,-0.06406017123558332,0.3315722953290019
13.200999999998123,-0.12064883719716961,0.34391889490418553
13.400999999998012,-0.1779879582393141,0.37268095578137417
13.600999999997901,-0.24688419580574614,0.41946770811264344
13.80099999999779,-0.31953033280431153,0.4764901544647836
14.00099999999768,-0.3831917823365057,0.5386439173686279
14.200999999997569,-0.4304284570547076,0.5991740332848815
14.400999999997458,-0.4659322943023521,0.6580651375780909
14.600999999997347,-0.4848207607158709,0.7124050154981022
14.800999999997236,-0.479989007405253,0.7807722957412367
15.000999999997125,-0.4573443629509765,0.8567349694640114
15.200999999997014,-0.4306603118596065,0.9287118255852554
15.400999999996904,-0.4036096443329858,1.0057873094206706
15.600999999996793,-0.3813385542018456,1.073123288157927
15.800999999996682,-0.3544572309824797,1.1475537625299828
16.000999999996573,-0.31812594148575946,1.2183645119107367
16.200999999996817,-0.2795536994898161,1.2858792094635345
16.40099999999706,-0.23159831488823449,1.3532516313254555
16.600999999997306,-0.17060753402373754,1.4247461594041553
16.80099999999755,-0.10303921253611228,1.4998846013338107
17.000999999997795,-0.027743772682373394,1.578695836560189
17.20099999999804,0.04702083597230158,1.6598827987536238
17.400999999998284,0.11750576270548532,1.7181361945462545
17.60099999999853,0.19181950304214027,1.7328450836012412
17.800999999998773,0.26862059881222633,1.7108182920558554
18.000999999999017,0.343558408033034,1.674694805125961
18.20099999999926,0.41720271980034657,1.6319212837432338
18.400999999999506,0.49594781086745143,1.5843597666205722
18.60099999999975,0.5838525164704296,1.5269284239754712
18.799999999999994,0.6702115175206023,1.4572417506525832
19.000000000000238,0.744748862668606,1.3791585533096842
19.200000000000482,0.7950538844692832,1.3044074854790242
19.400000000000727,0.8096175457625205,1.229700663459888
19.60000000000097,0.7981842523505818,1.1550844564536467
19.800000000001216,0.7744656452533973,1.0857517884295638
20.00000000000146,0.7339249003178219,1.0171767236879954
