Time (s),X (m),Y (m)
0.001,0.001086048446240603,0.0007901558823345071
0.20000000000000015,0.0007799157949207378,-0.0001914441347889297
0.4000000000000003,0.0021308324443370654,0.00021808790421369104
0.6000000000000004,0.008350116105925844,0.001184962743128147
0.8000000000000006,0.01603642201801472,-0.0011335254605086686
1.0000000000000007,0.02464599666171127,0.002555702359279854
1.2009999999999785,0.03788790948372749,0.016020143174297147
1.4009999999999565,0.0519260583513697,0.027248120271194335
1.6009999999999345,0.0691658328563441,0.03178764426985449
1.8009999999999124,0.08313501682997233,0.03883089541280444
2.0009999999998906,0.09792762293889855,0.04868896767687684
2.2009999999998686,0.11296529479226448,0.057916318392406074
2.4009999999998466,0.12092477918651706,0.07110559154223343
2.6009999999998246,0.1311570003647743,0.0830418240458984
2.8009999999998025,0.14533425157491892,0.09031963954127974
3.0009999999997805,0.15879835301887849,0.09515686298395734
3.2009999999997585,0.16932309372512613,0.10293071277575924
3.4009999999997365,0.18066956000709428,0.12037876419073
3.6009999999997144,0.19005903142064887,0.13813371694829826
3.8009999999996924,0.20339212623979447,0.14119490059039336
4.000999999999671,0.21573776352673898,0.15108247191914043
4.200999999999738,0.22713268795860966,0.1650644868572416
4.400999999999804,0.23884689593422598,0.17559161339514287
4.600999999999871,0.24848591440465997,0.19114777267339858
4.800999999999938,0.2603818892888288,0.206645863092885
5.000000000000004,0.27375385953543524,0.2264106390306348
5.200000000000071,0.2880460964179551,0.2333022284041856
5.400000000000138,0.29777696754547894,0.24495289439670045
5.600000000000205,0.3104783952171926,0.25790729249608935
5.800000000000272,0.3235970827077085,0.27545345951893446
6.000000000000338,0.3333520292053938,0.29419006744418674
6.200000000000405,0.34092794283569416,0.3058505753665692
6.400000000000472,0.34532130053753907,0.3181806485008066
6.600000000000539,0.3530614366919476,0.33838445586969673
6.800000000000606,0.3664965319899069,0.3544659241718789
7.000000000000672,0.37555825436263174,0.36492370604460894
7.200000000000739,0.3817293978776492,0.3866283660152117
7.400000000000806,0.3925329911252282,0.4065810701211856
7.600000000000873,0.40364973766919393,0.4240854918556697
7.8000000000009395,0.41440397588711075,0.45457107050384177
8.000000000001005,0.4212471860328668,0.48053558097977656
8.200000000000895,0.4313686844232897,0.5013720934905452
8.400000000000784,0.4454496207241935,0.5123983167537608
8.600000000000673,0.4547086117327115,0.5276075326661473
8.800000000000562,0.46111759701390104,0.5460746206959487
9.000000000000451,0.46743954085099354,0.5674694053646776
9.20000000000034,0.46845484564883116,0.5913859483314918
9.40000000000023,0.4675269609842643,0.6160062728286011
9.600000000000119,0.46812284107731417,0.6475334176253017
9.800000000000008,0.4689771494818808,0.6717807654028748
10.000999999999896,0.469248489420235,0.6994674950162382
10.200999999999786,0.4704989926812405,0.7284317277566106
10.400999999999675,0.47819640376781275,0.7491133745338313
10.600999999999564,0.4858694879574054,0.7713107847635312
10.800999999999453,0.4911659158663845,0.801462990968262
11.000999999999342,0.5012485731568928,0.8242331733221799
11.200999999999231,0.5062364431851396,0.8482632742108294
11.40099999999912,0.5091295862748677,0.8730259354310353
11.60099999999901,0.5121323959027714,0.8965418089998282
11.800999999998899,0.5158372761816122,0.9206273000484125
12.000999999998788,0.5199480222499306,0.9423289528089961
12.200999999998677,0.5255695245454295,0.9637459022886627
12.400999999998566,0.5381870069734231,0.9857249280062906
12.600999999998455,0.5508429185520803,0.9924348363215938
12.800999999998345,0.5595995099246999,1.0139095826880444
13.000999999998234,0.566569369918795,1.0426356958730794
13.200999999998123,0.5747271742897133,1.0706839239104813
13.400999999998012,0.5844883287707235,1.0998455644858967
13.600999999997901,0.5933653540800007,1.1256099042359953
13.80099999999779,0.6007930407276864,1.1501657294947085
14.00099999999768,0.6049221294527561,1.1790150825122745
14.200999999997569,0.6126987206555905,1.205078938046226
14.400999999997458,0.6260312948938457,1.2291712087685176
14.600999999997347,0.6389084254134623,1.2547642314489662
14.800999999997236,0.6510492341122194,1.2763926489600552
15.000999999997125,0.662241593951744,1.303636256151158
15.200999999997014,0.6736533913449059,1.3309441418458525
15.400999999996904,0.6788959471324197,1.3420188885425983
15.600999999996793,0.6807398467356919,1.3598412508549997
15.800999999996682,0.685235387791402,1.3789263574896673
16.000999999996573,0.6876583202964717,1.4065126647816406
16.200999999996817,0.6823321131118847,1.437729529739918
16.40099999999706,0.6739653462214311,1.4756723849795796
16.600999999997306,0.6651797205688115,1.50816587118228
16.80099999999755,0.6640532095754486,1.5296452814502133
17.000999999997795,0.6619518734344156,1.555156158266621
17.20099999999804,0.6602366191204844,1.579667060697689
17.400999999998284,0.6572667975915586,1.6036178941936179
17.60099999999853,0.648763080110157,1.6395463017042524
17.800999999998773,0.6415204103769143,1.6759820933421095
18.000999999999017,0.639166801706208,1.706511312763095
18.20099999999926,0.6398787831734771,1.7368052464447472
18.400999999999506,0.6421224053243544,1.7640143838350582
18.60099999999975,0.6406473551141012,1.7948289579544514
18.799999999999994,0.6403742759564096,1.8301974989050136
19.000000000000238,0.6419933511971493,1.8671500053330534
19.200000000000482,0.6451114941772432,1.9023903173724956
19.400000000000727,0.6489927795876508,1.9329352120141783
19.60000000000097,0.6516207194864346,1.9652166823830102
19.800000000001216,0.6489280794313615,1.9959195233169762
20.00000000000146,0.6480043549699939,2.02532695355472
