Time (s),X (m),Y (m)
0.001,-0.00060452123697562,-8.989899140956103e-05
0.20000000000000015,0.000563234702570667,-9.542914348427752e-05
0.4000000000000003,0.0014667246814892773,-3.873692453890149e-05
0.6000000000000004,0.002687804942789168,0.0006733417097079739
0.8000000000000006,0.004173441983576937,0.0016769086897355132
1.0000000000000007,0.0059179400301810955,0.0028783301119548093
1.2009999999999785,0.00877161859829259,0.004265214778551114
1.4009999999999565,0.011387164028129976,0.0059210338450830175
1.6009999999999345,0.014548631925904661,0.007550134305373441
1.8009999999999124,0.0162925508263313,0.009106614393864332
2.0009999999998906,0.018092214166861114,0.010930568456015083
2.2009999999998686,0.0190053550846568,0.012600469055748886
2.4009999999998466,0.020581466102515246,0.014234880042762396
2.6009999999998246,0.023243994440165817,0.015883328767082656
2.8009999999998025,0.026278782281624762,0.017958703272837617
3.0009999999997805,0.027996335970808063,0.020133336776512717
3.2009999999997585,0.031759530858152384,0.023553405717670603
3.4009999999997365,0.03502998606729343,0.02674565705596808
3.6009999999997144,0.038890469121636295,0.029816569178434723
3.8009999999996924,0.042783003124533044,0.0335693102302783
4.000999999999671,0.04622342844826458,0.03644595605213157
4.200999999999738,0.04971089632571568,0.04068330466584112
4.400999999999804,0.053399451000115485,0.04392896395523008
4.600999999999871,0.057523803637600644,0.04731057310666681
4.800999999999938,0.0621348993104443,0.050904159453467636
5.000000000000004,0.06470172644090094,0.05463546125278699
5.200000000000071,0.06835573319895796,0.05860677198703958
5.400000000000138,0.07268665348337068,0.06370718451210379
5.600000000000205,0.07558316230535304,0.06765568277592403
5.800000000000272,0.07940090740544811,0.07250207522077942
6.000000000000338,0.08422311295604219,0.07711846506849632
6.200000000000405,0.0882343528699308,0.08117561250264181
6.400000000000472,0.0926269804357914,0.08456651376283406
6.600000000000539,0.09723005858434261,0.08972686664058545
6.800000000000606,0.1013735952783823,0.09343963627388915
7.000000000000672,0.10505963996957443,0.09909989981344003
7.200000000000739,0.1088662340162017,0.10374936529706211
7.400000000000806,0.11309462528609208,0.10856467772249777
7.600000000000873,0.11801669143990082,0.11363505423851689
7.8000000000009395,0.12224609235533927,0.11941314774504103
8.000000000001005,0.12717815483709619,0.1245000201471567
8.200000000000895,0.13247282616085124,0.1313231646523838
8.400000000000784,0.13780132595744693,0.13773453569048716
8.600000000000673,0.1412102445057233,0.1422420948628968
8.800000000000562,0.14621916259099188,0.1482953502734949
9.000000000000451,0.15042522383773857,0.152993238913769
9.20000000000034,0.15479229349094306,0.1588495106980494
9.40000000000023,0.15958144832316243,0.16416984008129334
9.600000000000119,0.1640024992471756,0.1697459443937381
9.800000000000008,0.1689023076947795,0.1754176909824459
10.000999999999896,0.1733175617757941,0.18120675232289707
10.200999999999786,0.1767658667653868,0.18591219488541272
10.400999999999675,0.18087014729002795,0.19160649188749837
10.600999999999564,0.18480035283097873,0.1979563963788154
10.800999999999453,0.18901690768372448,0.20463635327705967
11.000999999999342,0.19392867536323444,0.21034083072012705
11.200999999999231,0.19920285761311068,0.2173770028601539
11.40099999999912,0.20346139102233451,0.2231731152974567
11.60099999999901,0.20710266666860622,0.22839966467379239
11.800999999998899,0.21120349550333933,0.23589632941053987
12.000999999998788,0.21423107662983934,0.24079437454874256
12.200999999998677,0.21906955859565655,0.24728018197670093
12.400999999998566,0.22322711410607568,0.2546691903063814
12.600999999998455,0.2271271770092625,0.261466296190068
12.800999999998345,0.22993163971242442,0.26741597971167796
13.000999999998234,0.23272420191903057,0.2721820806211252
13.200999999998123,0.2370076399062762,0.2790057113226526
13.400999999998012,0.241286093902062,0.2871976361983495
13.600999999997901,0.2443403936197016,0.2936273623900872
13.80099999999779,0.24655590860339494,0.29886944655198644
14.00099999999768,0.24997896458649807,0.30556608020579806
14.200999999997569,0.2530589020779971,0.31157359625805653
14.400999999997458,0.2559273131060033,0.3191552741109885
14.600999999997347,0.25860000463570365,0.3236209545263479
14.800999999997236,0.2615219038137306,0.33016350847277115
15.000999999997125,0.26361354558609007,0.3357398444363656
15.200999999997014,0.2659847993760458,0.34155516623881094
15.400999999996904,0.26834353059770166,0.34779543484416103
15.600999999996793,0.27090788752030437,0.3541493743251531
15.800999999996682,0.27265755033687444,0.36094007609794365
16.000999999996573,0.27443445212140444,0.36744981487438927
16.200999999996817,0.27655608482565386,0.37327099522126245
16.40099999999706,0.27859767427599036,0.3805677245902916
16.600999999997306,0.28005970439277156,0.384792836437563
16.80099999999755,0.28162899679583614,0.39073741606456136
17.000999999997795,0.2824576489105482,0.39666321092262585
17.20099999999804,0.28297176865227325,0.40223225639384974
17.400999999998284,0.2847766187037753,0.4093926614059514
17.60099999999853,0.28647189415694146,0.4178180717603149
17.800999999998773,0.28617007933729693,0.42268430530815226
18.000999999999017,0.28627506595726465,0.4296259461053803
18.20099999999926,0.2870960227882251,0.4374511369197194
18.400999999999506,0.2865603856053775,0.4435557855566345
18.60099999999975,0.2861646456315104,0.4508751477340628
18.799999999999994,0.2841278928105678,0.45603947821478297
19.000000000000238,0.2821073779310531,0.4628681360308651
19.200000000000482,0.27978197682501976,0.4702682386544945
19.400000000000727,0.27786471582222333,0.47679084110946285
19.60000000000097,0.2753284014709941,0.4814010480734891
19.800000000001216,0.2727303289720824,0.48693318387305895
20.00000000000146,0.2694113896603605,0.4925353284682794
