Time (s),X (m),Y (m)
0.001,0.0010146588340248276,0.000844935058449024
0.20000000000000015,0.0005544791302896541,-0.0005287067947755987
0.4000000000000003,0.003632101013014002,0.00014335521785112523
0.6000000000000004,0.005063931888324093,-0.001266675414277369
0.8000000000000006,0.008744386323426173,-0.008148328297076405
1.0000000000000007,0.016689104768203334,-0.012144889797699876
1.2009999999999785,0.02186446474649186,-0.01937016817372327
1.4009999999999565,0.03345402534525776,-0.022583823639974455
1.6009999999999345,0.046871947074891424,-0.015826088479735854
1.8009999999999124,0.06434924860664053,-0.003933832142070022
2.0009999999998906,0.08441246761463883,0.005989525955570847
2.2009999999998686,0.1040200191126129,0.024561176483343692
2.4009999999998466,0.12360772435195684,0.04562262871886846
2.6009999999998246,0.14204816243375062,0.060908029675365474
2.8009999999998025,0.16266932323624608,0.07517874923230905
3.0009999999997805,0.1840141715562189,0.08935438095989894
3.2009999999997585,0.20544651676385456,0.10956935538138493
3.4009999999997365,0.2265956075673327,0.13373011818508923
3.6009999999997144,0.24281647784329155,0.16914377056261506
3.8009999999996924,0.26059038844650084,0.20314660268181248
4.000999999999671,0.2787745922806571,0.22757818074421685
4.200999999999738,0.2926132818991583,0.23691590724654893
4.400999999999804,0.3080502256640512,0.2517525085550124
4.600999999999871,0.32535042894059013,0.26352739526548147
4.800999999999938,0.34501020935114196,0.28035212726645536
5.000000000000004,0.37371127395012177,0.3028630343026362
5.200000000000071,0.4043166902447228,0.3341581113527563
5.400000000000138,0.42752769962440174,0.35936739693580916
5.600000000000205,0.45066193432037355,0.3758522575574392
5.800000000000272,0.4804472581822611,0.39024754638288967
6.000000000000338,0.5128728344870646,0.4052229625385286
6.200000000000405,0.5466038661843623,0.4111916905486572
6.400000000000472,0.5777095780936821,0.4139208591699762
6.600000000000539,0.6123031145269685,0.41923907247471287
6.800000000000606,0.6467926201656963,0.42534616394529384
7.000000000000672,0.6739077579175903,0.42705905837286323
7.200000000000739,0.6973218117256588,0.42462963237073426
7.400000000000806,0.7210520781062062,0.41889307050656677
7.600000000000873,0.7491765496098518,0.4097467136002106
7.8000000000009395,0.7664864350784206,0.3885117486868154
8.000000000001005,0.7934974956598791,0.3616232851012611
8.200000000000895,0.8177015503787459,0.33296767003871874
8.400000000000784,0.8521190360065647,0.31243161787632784
8.600000000000673,0.8756610949874672,0.2923953446041001
8.800000000000562,0.9065250110657981,0.27475415763619937
9.000000000000451,0.9453275746233706,0.25710560233750257
9.20000000000034,0.9944890853289627,0.24278990237091605
9.40000000000023,1.0411746706504759,0.22965701769875105
9.600000000000119,1.0832256735057035,0.21259652460810094
9.800000000000008,1.1257197013451434,0.19862116901373925
10.000999999999896,1.150583259012126,0.1831830923735562
10.200999999999786,1.1678008393378745,0.16351391382836286
10.400999999999675,1.1916201515884224,0.14172981863755515
10.600999999999564,1.2295977019771982,0.13299440392367987
10.800999999999453,1.2809443096523312,0.1362388328441033
11.000999999999342,1.3276728181478996,0.14211471040853785
11.200999999999231,1.3782310413452699,0.15256995761310127
11.40099999999912,1.4359557566308059,0.17457749962103383
11.60099999999901,1.4917922415240872,0.20073314359633232
11.800999999998899,1.543310853911753,0.23997478974954772
12.000999999998788,1.59142646469698,0.26015716892645196
12.200999999998677,1.6359871523096636,0.281857435796643
12.400999999998566,1.680110168410554,0.3028980114132049
12.600999999998455,1.7146518698155304,0.33136751927939523
12.800999999998345,1.746524768104602,0.3633689093183594
13.000999999998234,1.7736947720706797,0.40254727364694703
13.200999999998123,1.7933026630160818,0.44924318923190365
13.400999999998012,1.8049184397204159,0.4884337386511915
13.600999999997901,1.8172853750344706,0.5381805259268161
13.80099999999779,1.835116680369498,0.5871096740278929
14.00099999999768,1.8498936299093034,0.6386441261338534
14.200999999997569,1.8563951268543943,0.682440564516342
14.400999999997458,1.8631461224815107,0.7320714185351569
14.600999999997347,1.863985305660779,0.7758924393053369
14.800999999997236,1.8523363679866531,0.8219458893196038
15.000999999997125,1.841282227668966,0.8623170629395095
15.200999999997014,1.8215309223966387,0.911331453242076
15.400999999996904,1.8007450643213214,0.9660008426990567
15.600999999996793,1.7888545362669457,1.0141202172817902
15.800999999996682,1.7668784050641722,1.059175276826719
16.000999999996573,1.740757532774993,1.09587080745581
16.200999999996817,1.7029767412132448,1.1226842546306863
16.40099999999706,1.6570103865440793,1.1536707356453324
16.600999999997306,1.6263234842780612,1.1948007283806892
16.80099999999755,1.6019727807883593,1.2365952063759302
17.000999999997795,1.5644756089623226,1.2791714478223803
17.20099999999804,1.5225481141246404,1.3221042323523202
17.400999999998284,1.4831904087256094,1.3595681403587527
17.60099999999853,1.4489084074669536,1.3963414880213916
17.800999999998773,1.4125200146288137,1.4385072292173504
18.000999999999017,1.3778845926433503,1.4778404538496595
18.20099999999926,1.3429372953481447,1.5181064071131554
18.400999999999506,1.2983512998851288,1.5522440899986323
18.60099999999975,1.249211623141757,1.5762524519224899
18.799999999999994,1.204366385256698,1.601647140694477
19.000000000000238,1.1659299262290694,1.6255347527940291
19.200000000000482,1.1163894846418578,1.6435037505699144
19.400000000000727,1.071394503098883,1.6651080067727586
19.60000000000097,1.0368625692333815,1.6940733161321415
19.800000000001216,0.9984498107385056,1.7121734798435237
20.00000000000146,0.9528161246794942,1.729211018114561
