Time (s),X (m),Y (m)
0.001,0.0014193575185132074,-0.0002669654388657889
0.20000000000000015,0.002332471332880196,-0.0005925657721518461
0.4000000000000003,0.009868475489492871,-0.0021546269674508523
0.6000000000000004,0.01632214539202898,-0.000394308202001316
0.8000000000000006,0.024816155030679524,-0.0035591737971074964
1.0000000000000007,0.03598149894472452,-0.010141930147931045
1.2009999999999785,0.04964205065363164,-0.012073380185169444
1.4009999999999565,0.0703569718100103,-0.017929971732867395
1.6009999999999345,0.09373795216235853,-0.02925682890476205
1.8009999999999124,0.1165508054395855,-0.04993048780662768
2.0009999999998906,0.13293196175760258,-0.07400255944010384
2.2009999999998686,0.1336698589815227,-0.09847630450581206
2.4009999999998466,0.11743709599041871,-0.13693474778887885
2.6009999999998246,0.10158160019390515,-0.17291127585649832
2.8009999999998025,0.08997076644163754,-0.2040567566173268
3.0009999999997805,0.07939392477887526,-0.23887993843481964
3.2009999999997585,0.06968276658057225,-0.2865960434077262
3.4009999999997365,0.06574940894430409,-0.3290421432589683
3.6009999999997144,0.06369306188699887,-0.37661809746575664
3.8009999999996924,0.052542696851400075,-0.43532264535463044
4.000999999999671,0.02536949226218286,-0.4949920117802922
4.200999999999738,-0.012521745729911889,-0.5386783975565137
4.400999999999804,-0.054254641178290645,-0.5508627470937106
4.600999999999871,-0.08965924266991307,-0.5504379272750186
4.800999999999938,-0.13430720280542238,-0.5384070631364315
5.000000000000004,-0.17455674349407346,-0.5278272551962697
5.200000000000071,-0.2176483094230942,-0.5116325007975376
5.400000000000138,-0.26671683215180214,-0.49076652325222647
5.600000000000205,-0.3166831197238951,-0.4478689895406193
5.800000000000272,-0.3528050611340208,-0.3909785317708683
6.000000000000338,-0.3714262738339881,-0.33881405727102043
6.200000000000405,-0.376343889906783,-0.2899970000234218
6.400000000000472,-0.3717871436188246,-0.24187562948945526
6.600000000000539,-0.36304811695808875,-0.18852997064229038
6.800000000000606,-0.3470761172666468,-0.13226006304280966
7.000000000000672,-0.31996335251188046,-0.06996340016820139
7.200000000000739,-0.2815163500205783,-0.006206374747781916
7.400000000000806,-0.22999931417043995,0.052539941592138824
7.600000000000873,-0.15802355320833839,0.0960094447427194
7.8000000000009395,-0.07634006275387437,0.11922619303231624
8.000000000001005,0.0035501279306708175,0.11867650332156497
8.200000000000895,0.0782811760488122,0.08917842685941073
8.400000000000784,0.13076473058990087,0.05062216876223003
8.600000000000673,0.15825100285757052,0.006440151064303807
8.800000000000562,0.16177184497131433,-0.04163787092136522
9.000000000000451,0.1408308595164135,-0.09623116369517318
9.20000000000034,0.10211056715316809,-0.1567989052321373
9.40000000000023,0.06324013072593211,-0.21766737803513814
9.600000000000119,0.006084130422347451,-0.2616121079344152
9.800000000000008,-0.0504005260263339,-0.2842332522661736
10.000999999999896,-0.11872857217044269,-0.2838084738069404
10.200999999999786,-0.18507122179028979,-0.2711644957495486
10.400999999999675,-0.23515857754835612,-0.24813001449208977
10.600999999999564,-0.2655444749580718,-0.2148468355909108
10.800999999999453,-0.2743991892541019,-0.15861038715906048
11.000999999999342,-0.2609485435954612,-0.09329042750884668
11.200999999999231,-0.23999185459611672,-0.02875312080580829
11.40099999999912,-0.2216709398839699,0.026981749048348044
11.60099999999901,-0.2021234697617061,0.07919295133388182
11.800999999998899,-0.1858705361506361,0.12662876151446195
12.000999999998788,-0.16098458733350673,0.184468891037485
12.200999999998677,-0.12428015403642109,0.2494458188517877
12.400999999998566,-0.0759408502867555,0.3098271781892749
12.600999999998455,-0.02011572532452635,0.34560755194487136
12.800999999998345,0.038327777329107436,0.35962711848273443
13.000999999998234,0.09030632517731142,0.35231602827297587
13.200999999998123,0.1522736537938845,0.3157812970665731
13.400999999998012,0.21491020689948323,0.2732154560661437
13.600999999997901,0.2564411390822726,0.22510901816498308
13.80099999999779,0.2735023764589869,0.17671938304398221
14.00099999999768,0.2702130051650021,0.12143234988749328
14.200999999997569,0.24130382841936918,0.0649829316133057
14.400999999997458,0.18501465278631915,0.018601975759751962
14.600999999997347,0.12476088253586398,-0.006439920674787804
14.800999999997236,0.06970230726010865,-0.006264799967368437
15.000999999997125,0.010058090163305404,0.029781199330627582
15.200999999997014,-0.0402642710547839,0.0640660621279963
15.400999999996904,-0.06852011377741106,0.10219128945277131
15.600999999996793,-0.06521774228453939,0.14977696653803693
15.800999999996682,-0.036579590004426045,0.19987288375905748
16.000999999996573,-0.004533105082330782,0.24140171984107706
16.200999999996817,0.031962938092317296,0.26827984154169576
16.40099999999706,0.07585642882824337,0.2808147533839316
16.600999999997306,0.122960344919016,0.27562328679129705
16.80099999999755,0.16628600256055845,0.2613928601018065
17.000999999997795,0.22297198678745037,0.23467218256164757
17.20099999999804,0.29037726170011285,0.1941398012238475
17.400999999998284,0.35992684252660395,0.14526638450332954
17.60099999999853,0.41738811139387544,0.0862740910117244
17.800999999998773,0.45453568775718933,0.03706058116989749
18.000999999999017,0.4751891503174329,-0.019963263064563738
18.20099999999926,0.47250340853337597,-0.0832758751824914
18.400999999999506,0.44975894357929047,-0.14886330347228435
18.60099999999975,0.40900545868690114,-0.20181371907805037
18.799999999999994,0.35785506189657723,-0.22515838099088126
19.000000000000238,0.3029333346187079,-0.2227049821455592
19.200000000000482,0.2410447012670776,-0.200221454782007
19.400000000000727,0.177409421320027,-0.16249685138487555
19.60000000000097,0.1252747271034911,-0.11361291779776302
19.800000000001216,0.09323819982452479,-0.054610561950601856
20.00000000000146,0.0809811648393825,0.00033074596488247954
