Time (s),X (m),Y (m)
0.001,-0.0005462407427453492,0.0003527853123316693
0.20000000000000015,0.00024356848804798177,-0.0006747398911681901
0.4000000000000003,-0.0044289657585366935,0.002172225247454671
0.6000000000000004,-0.0026251648887379462,0.00035034636235830034
0.8000000000000006,0.0064464664393439125,-0.0057026397124295795
1.0000000000000007,0.02514083174512234,-0.027794502926850834
1.2009999999999785,0.04239254630507352,-0.05815817920557714
1.4009999999999565,0.04574099164873068,-0.09926173198063416
1.6009999999999345,0.041059724208666645,-0.1395280654295869
1.8009999999999124,0.03292358930106658,-0.17215049383457637
2.0009999999998906,0.013510736291049243,-0.21026254765167626
2.2009999999998686,-0.02301643360484517,-0.25638694702877424
2.4009999999998466,-0.05721949549326202,-0.2935471291747053
2.6009999999998246,-0.08979679660706887,-0.309631088189845
2.8009999999998025,-0.12850752370207782,-0.3080631568590687
3.0009999999997805,-0.16726372433664546,-0.3000881876955771
3.2009999999997585,-0.19543854222033047,-0.29763159978342496
3.4009999999997365,-0.22770309654379098,-0.283850240007203
3.6009999999997144,-0.2653954078391672,-0.26561472016171883
3.8009999999996924,-0.3066838563868691,-0.24855778547613722
4.000999999999671,-0.34596168339930566,-0.22966921634771764
4.200999999999738,-0.3962137598379376,-0.19759901253741735
4.400999999999804,-0.4461987894810525,-0.16306405075271313
4.600999999999871,-0.47666056782618893,-0.1302030701333669
4.800999999999938,-0.4813342907415439,-0.08059621645732892
5.000000000000004,-0.4721198311677439,-0.028018276688923257
5.200000000000071,-0.45750153286356626,0.024451519205913434
5.400000000000138,-0.4319955699059021,0.0880731365368271
5.600000000000205,-0.4034508152324414,0.14855767327115865
5.800000000000272,-0.3775414471975639,0.20704615271954585
6.000000000000338,-0.3373631617134402,0.2593445653660324
6.200000000000405,-0.2823534171219577,0.2819388306321648
6.400000000000472,-0.22330387001016017,0.2789209455997135
6.600000000000539,-0.16588078217202867,0.2627445963266809
6.800000000000606,-0.1087161280739291,0.24126342202454035
7.000000000000672,-0.052546378649494435,0.21945751453952142
7.200000000000739,0.013012255917067464,0.1779945085513721
7.400000000000806,0.08287516781994261,0.13097186381404888
7.600000000000873,0.14318292711024352,0.08994550581015652
7.8000000000009395,0.1821759294519793,0.05342966218313352
8.000000000001005,0.19336899201536903,0.009606317677311474
8.200000000000895,0.18487993203355058,-0.0439004251494797
8.400000000000784,0.16531986950987565,-0.10333001723718482
8.600000000000673,0.14652288983774778,-0.16240556299457157
8.800000000000562,0.12034727338293714,-0.20293349573882394
9.000000000000451,0.08010544996117368,-0.21434551757143308
9.20000000000034,0.04016200927664849,-0.21611960253608425
9.40000000000023,-0.0060314988261376675,-0.19505330669005197
9.600000000000119,-0.05416222017257759,-0.16589734895407215
9.800000000000008,-0.08993381330686619,-0.12868843011160822
10.000999999999896,-0.10106449156063645,-0.08367318503418031
10.200999999999786,-0.09573549198051068,-0.029073373659237588
10.400999999999675,-0.08755224394159503,0.027143539762265554
10.600999999999564,-0.06301391095147249,0.09428296244899942
10.800999999999453,-0.03191125394809748,0.16169078946714532
11.000999999999342,0.00992931829445337,0.2285019914827548
11.200999999999231,0.05464221012179911,0.2936368248167547
11.40099999999912,0.10918265184850022,0.3357153315487161
11.60099999999901,0.16456765937478524,0.3515594331485233
11.800999999998899,0.2209448183023945,0.3443720926084304
12.000999999998788,0.27796910429436394,0.3237060886330078
12.200999999998677,0.3334512832317069,0.28994756175796665
12.400999999998566,0.38255485489409735,0.25361647312434504
12.600999999998455,0.42102059639721656,0.22805519449479175
12.800999999998345,0.44348285464572357,0.19078865608971524
13.000999999998234,0.4504302943262823,0.14937950507639275
13.200999999998123,0.44498382609702697,0.09981038618502291
13.400999999998012,0.4341769411826439,0.03210456150823277
13.600999999997901,0.418281800456508,-0.031582387502904805
13.80099999999779,0.4018996698731322,-0.09514842931023192
14.00099999999768,0.37601006667127124,-0.1613881675324713
14.200999999997569,0.36046640748236936,-0.2273958811763258
14.400999999997458,0.3205091649444443,-0.2788925226628606
14.600999999997347,0.26415070890078896,-0.30421957688230145
14.800999999997236,0.209427387860217,-0.3065472716838756
15.000999999997125,0.144615648895776,-0.29346386564083876
15.200999999997014,0.07780885130455752,-0.2731870758670547
15.400999999996904,0.006731498372312798,-0.23803352043434814
15.600999999996793,-0.06656829518453838,-0.1978368779323432
15.800999999996682,-0.13406092814818793,-0.14519605747277625
16.000999999996573,-0.17467443830016915,-0.08126156394535926
16.200999999996817,-0.18872302438043848,-0.018888559425954726
16.40099999999706,-0.1772831779520623,0.05130971087399462
16.600999999997306,-0.1449551140690492,0.1266573313622364
16.80099999999755,-0.09229543282293726,0.20345257806674863
17.000999999997795,-0.03666413556687634,0.27624893503063835
17.20099999999804,0.013994039902381046,0.3415505243429424
17.400999999998284,0.07044868724589456,0.39401261388582787
17.60099999999853,0.13370194543870054,0.4240807285281593
17.800999999998773,0.19805379047228594,0.4287302215557329
18.000999999999017,0.26397915526125426,0.4114178900728157
18.20099999999926,0.33667247194216066,0.38066493510422816
18.400999999999506,0.4204800456310001,0.3376209134779459
18.60099999999975,0.5104406744052609,0.28811148672513565
18.799999999999994,0.5979516229339238,0.2456694096701948
19.000000000000238,0.6799412045006807,0.20879490877929918
19.200000000000482,0.7559128608713025,0.16752410327137646
19.400000000000727,0.8113825125836077,0.11528511038452544
19.60000000000097,0.8426790456760498,0.06253041247848985
19.800000000001216,0.8513276698258687,0.004098629202654506
20.00000000000146,0.8276137154826787,-0.05985878563185401
