Time (s),X (m),Y (m)
0.001,-9.270868745296317e-05,-0.0008932837685830058
0.20000000000000015,0.0012378853978422869,0.0003965893659455059
0.4000000000000003,0.0053320430644903,0.003461472604842117
0.6000000000000004,0.008684111788706275,0.006158116417689025
0.8000000000000006,0.015295234565867006,0.01256922589879964
1.0000000000000007,0.022362070991311624,0.009954971023981782
1.2009999999999785,0.03289695472277728,0.016335850905581355
1.4009999999999565,0.04639150850651273,0.027644212703532463
1.6009999999999345,0.05496301545278601,0.037680513752814004
1.8009999999999124,0.06610990028969117,0.037334678584998886
2.0009999999998906,0.07630448654290466,0.041186295939497054
2.2009999999998686,0.08563488112342021,0.03755540668156259
2.4009999999998466,0.09671475811010803,0.03566592195777041
2.6009999999998246,0.1107517189073991,0.03653713993618855
2.8009999999998025,0.12312899300753471,0.04471903254118823
3.0009999999997805,0.132992730584835,0.05374853293513914
3.2009999999997585,0.1464414397591687,0.07267748841637565
3.4009999999997365,0.15694455481882544,0.09060627069260493
3.6009999999997144,0.16661677451878742,0.10526315213674886
3.8009999999996924,0.176654219592397,0.11067977783551754
4.000999999999671,0.18964911694720982,0.12247057837659198
4.200999999999738,0.20513170788748664,0.13314240241230238
4.400999999999804,0.22153696804851652,0.13509187377027904
4.600999999999871,0.23810717440858345,0.140639454056246
4.800999999999938,0.2520568960232526,0.15577553154810736
5.000000000000004,0.26529972622553355,0.16885964100805245
5.200000000000071,0.28351059765154346,0.17431350454901845
5.400000000000138,0.29985503562745797,0.19107600991868695
5.600000000000205,0.31636435322149176,0.19989766376585827
5.800000000000272,0.33733328850584765,0.21440569993949266
6.000000000000338,0.35573365229748205,0.22051083646691425
6.200000000000405,0.3739429153542246,0.23817885665093327
6.400000000000472,0.3884198958433452,0.2483715308635839
6.600000000000539,0.39808462387903915,0.2531738316200374
6.800000000000606,0.4138163298574695,0.2753016537712555
7.000000000000672,0.43094440483699553,0.2876980493759422
7.200000000000739,0.44602697228613686,0.29967663049003845
7.400000000000806,0.46633751590425637,0.30650517759744683
7.600000000000873,0.4857267051650341,0.3198936771142211
7.8000000000009395,0.5001370956830208,0.3330201237928441
8.000000000001005,0.5188153619352834,0.34231808875915337
8.200000000000895,0.5426749472016,0.3649598237036895
8.400000000000784,0.569383991432875,0.38811371803883926
8.600000000000673,0.595642678979926,0.4091125254991866
8.800000000000562,0.6177195943324558,0.4221816765587392
9.000000000000451,0.6402229192678489,0.44667990380464845
9.20000000000034,0.6606983817612944,0.4668575005331304
9.40000000000023,0.6834928845941283,0.48705094978543195
9.600000000000119,0.7050289249225044,0.5099968700639094
9.800000000000008,0.7276692792055399,0.5269936739519068
10.000999999999896,0.748326662516038,0.5424172886917529
10.200999999999786,0.7662059865623827,0.5663612225873125
10.400999999999675,0.785250719411259,0.578000064950178
10.600999999999564,0.7987695779052579,0.5963645296809987
10.800999999999453,0.8090086241617596,0.627099497747332
11.000999999999342,0.8249457275112059,0.6495344180184488
11.200999999999231,0.8422778890417298,0.6638080854650368
11.40099999999912,0.8581371207391045,0.6774838390561353
11.60099999999901,0.8768710324052426,0.698595580790207
11.800999999998899,0.8947609948794649,0.7203260977030723
12.000999999998788,0.9119272220665555,0.7310159030222907
12.200999999998677,0.9273271299265603,0.7508589201001933
12.400999999998566,0.945872393510395,0.7692093618804883
12.600999999998455,0.9675341963288974,0.7857832545395609
12.800999999998345,0.9905553027386548,0.8032195021796742
13.000999999998234,1.0113571257345033,0.8224955903391795
13.200999999998123,1.029398086934547,0.839005604381499
13.400999999998012,1.0508286264185756,0.8570315436460784
13.600999999997901,1.0695960159468199,0.8767527840820498
13.80099999999779,1.087762318968722,0.9063399391129763
14.00099999999768,1.1034160511017639,0.9333104699244621
14.200999999997569,1.1163260600384042,0.9526929605739591
14.400999999997458,1.1318831402922978,0.9601785518278929
14.600999999997347,1.1467325039808247,0.9786574344764021
14.800999999997236,1.1588043310445937,0.9951511525139148
15.000999999997125,1.1705611045218414,1.0146242127151208
15.200999999997014,1.1859998561185154,1.0295057395950156
15.400999999996904,1.2032809945962968,1.043648556111558
15.600999999996793,1.221752702988228,1.0603026459475828
15.800999999996682,1.243444422487484,1.079450558751003
16.000999999996573,1.2660009977502635,1.1049251669951625
16.200999999996817,1.2844049029645452,1.1260454271878833
16.40099999999706,1.3035183060955546,1.1355911554836366
16.600999999997306,1.320993351658118,1.1514957576253548
16.80099999999755,1.3371924083392437,1.1750716670278993
17.000999999997795,1.3491531883540535,1.205156986197354
17.20099999999804,1.3575223998783224,1.2355403271221215
17.400999999998284,1.3682736682975793,1.2596655484947252
17.60099999999853,1.3815435403312057,1.2804661331950706
17.800999999998773,1.3923058944202966,1.2929806974995706
18.000999999999017,1.402269211358854,1.3098613983344596
18.20099999999926,1.4070264268248618,1.335030450409874
18.400999999999506,1.4128201851075866,1.3595123912773275
18.60099999999975,1.4168477685394656,1.395763407338947
18.799999999999994,1.4185702980665869,1.426076728987128
19.000000000000238,1.4206619810006582,1.455938920134575
19.200000000000482,1.4264005173130985,1.4873704949947402
19.400000000000727,1.4309966085990722,1.5191222585315556
19.60000000000097,1.4345698813157857,1.5464959579281936
19.800000000001216,1.4394425158197088,1.5782165450425878
20.00000000000146,1.4473987916123983,1.6062126091485616
