Time (s),X (m),Y (m)
0.001,-0.00042190612164786544,-0.0005916298972236683
0.20000000000000015,0.0017370187625463758,0.0006003984224688383
0.4000000000000003,0.0038072535391469775,-0.00020991403126064708
0.6000000000000004,0.010482049712737833,0.005150850477198156
0.8000000000000006,0.018357939553538326,0.009852702353764313
1.0000000000000007,0.02722557536925789,0.019477561727429975
1.2009999999999785,0.035604515623805226,0.030209110053257784
1.4009999999999565,0.04765986805539763,0.03774578630079712
1.6009999999999345,0.05986792161381382,0.046727871892307066
1.8009999999999124,0.06716196091075188,0.048468309521516255
2.0009999999998906,0.07808583167870692,0.054779952915780694
2.2009999999998686,0.09398546433647215,0.06314071205799635
2.4009999999998466,0.10590737723653794,0.07101129175727292
2.6009999999998246,0.12168891888113201,0.08353410875762433
2.8009999999998025,0.14444197342677217,0.10334433964835102
3.0009999999997805,0.16978697089429662,0.13103357732360935
3.2009999999997585,0.19322347106224835,0.15698814627149546
3.4009999999997365,0.21890687486644594,0.17799064705594866
3.6009999999997144,0.24678894696970682,0.20249737852924185
3.8009999999996924,0.27744971764835274,0.2280371270312498
4.000999999999671,0.30670320709275006,0.24654922368869095
4.200999999999738,0.335811098374424,0.2710790590543878
4.400999999999804,0.36358753268642047,0.2925428268399987
4.600999999999871,0.38733468222127526,0.3161023949558655
4.800999999999938,0.4101792511956515,0.3368097518022976
5.000000000000004,0.43210061553094825,0.36900093947935114
5.200000000000071,0.4447191638343379,0.4046196073522946
5.400000000000138,0.45083773007510763,0.43760673937233435
5.600000000000205,0.45633342256712184,0.4646241313628033
5.800000000000272,0.45810597643900414,0.49553509426779685
6.000000000000338,0.4611960668065972,0.5238349735142256
6.200000000000405,0.4623508774373177,0.5505504007203609
6.400000000000472,0.46870292302081523,0.5776595707368575
6.600000000000539,0.48132917441847595,0.6099788024680991
6.800000000000606,0.4930215563781624,0.6537545617174713
7.000000000000672,0.5036961016774434,0.6919538179205402
7.200000000000739,0.5164778104848659,0.7121061440407802
7.400000000000806,0.5334700874154823,0.7316254928540972
7.600000000000873,0.556135991665009,0.7550171211525294
7.8000000000009395,0.5785504770033474,0.7806050951075769
8.000000000001005,0.5995132992787996,0.8098235359164441
8.200000000000895,0.6206031548502838,0.8339564856945156
8.400000000000784,0.6433007301887819,0.8552264220048025
8.600000000000673,0.6629739273422596,0.8816113963073644
8.800000000000562,0.6791975239612307,0.9149300410319499
9.000000000000451,0.6888194657230119,0.9497534228129506
9.20000000000034,0.6997546258239625,0.9866565271503255
9.40000000000023,0.7021221474600133,1.030219449659031
9.600000000000119,0.7036174387487061,1.0728410573541618
9.800000000000008,0.7043960770080718,1.1106102264321887
10.000999999999896,0.7068221193416578,1.1435983662480593
10.200999999999786,0.7077532337245042,1.168485202636689
10.400999999999675,0.7127970770494148,1.1955710445373002
10.600999999999564,0.7267441292210973,1.2211976699826983
10.800999999999453,0.7488854460930108,1.2541346913936282
11.000999999999342,0.7729903240036331,1.2889849022746527
11.200999999999231,0.7916504395602052,1.3192752612999463
11.40099999999912,0.8094005681624306,1.3409114849697514
11.60099999999901,0.8286187210739739,1.371648490372604
11.800999999998899,0.8484388428596312,1.40597196221627
12.000999999998788,0.8672723891122434,1.431046602240469
12.200999999998677,0.8806550360878247,1.4753128698246094
12.400999999998566,0.8927360020367597,1.5161176424746647
12.600999999998455,0.9078697747874019,1.5494083188703758
12.800999999998345,0.9279187963345804,1.5741189770551707
13.000999999998234,0.9438144869551299,1.6038511061014769
13.200999999998123,0.954053185734541,1.6356872449350794
13.400999999998012,0.9553392023009383,1.6714088397406552
13.600999999997901,0.9548121627458007,1.7044165220748997
13.80099999999779,0.9525682569217215,1.7359192103836811
14.00099999999768,0.9545068560939007,1.7688074542524959
14.200999999997569,0.9526948038884752,1.8094462529843898
14.400999999997458,0.9501544195905637,1.84120073171556
14.600999999997347,0.9491771696076448,1.8725254639090423
14.800999999997236,0.9459205369037481,1.9103372224620565
15.000999999997125,0.9490306719232552,1.9487420322814057
15.200999999997014,0.9605643509242899,1.9915972191465212
15.400999999996904,0.9774033890113422,2.035216553202164
15.600999999996793,0.9906639598221972,2.0607219761211697
15.800999999996682,0.9997863665748793,2.0889171485185676
16.000999999996573,1.0094537003276796,2.1098010307916497
16.200999999996817,1.0195040646003122,2.1351469813525417
16.40099999999706,1.0275664658770112,2.164416193731316
16.600999999997306,1.0342075824361314,2.20287141432853
16.80099999999755,1.0444121805001136,2.248794555054317
17.000999999997795,1.052193590688678,2.3032452685495923
17.20099999999804,1.0592417339005016,2.3466520477085977
17.400999999998284,1.0639756776440479,2.383075419993234
17.60099999999853,1.072824682167996,2.4207086019474664
17.800999999998773,1.0774592795315032,2.466378293714412
18.000999999999017,1.093788859225546,2.508893821698806
18.20099999999926,1.1175813784088107,2.5427925404409844
18.400999999999506,1.1459876775425815,2.578237419859487
18.60099999999975,1.1679042283127377,2.615174997788491
18.799999999999994,1.1916179190403722,2.652571556916553
19.000000000000238,1.2070794475540891,2.6978598846638007
19.200000000000482,1.2135940496815265,2.7414068704457186
19.400000000000727,1.221968803137795,2.768435092776512
19.60000000000097,1.232888777510403,2.8104133494517245
19.800000000001216,1.244230013052084,2.8502628909892818
20.00000000000146,1.2487645487636243,2.9000553196773775
