Time (s),X (m),Y (m)
0.001,-0.0005732996449108882,-0.0002669654388657886
0.20000000000000015,0.0014030664131843278,0.0002631481135686441
0.4000000000000003,0.002025193794157393,0.0011076084125783035
0.6000000000000004,0.0012687952882788475,0.003174345498302139
0.8000000000000006,0.000962223734183401,0.007959153485580425
1.0000000000000007,0.01044325388124065,0.015437659037870685
1.2009999999999785,0.01601732338214812,0.025528197583498353
1.4009999999999565,0.020506834467076508,0.034124653621467424
1.6009999999999345,0.03425373630181689,0.04501276213789915
1.8009999999999124,0.04476992826276822,0.05418689217689712
2.0009999999998906,0.0609801887627685,0.06513955044492732
2.2009999999998686,0.08132679439253687,0.07833363428234892
2.4009999999998466,0.09694042192071921,0.08946911043817758
2.6009999999998246,0.10237525524629296,0.09894762692354686
2.8009999999998025,0.1039533238886635,0.10535057315171312
3.0009999999997805,0.11602702468169741,0.1150739827409857
3.2009999999997585,0.1197278647127967,0.1224217226230635
3.4009999999997365,0.1232175528180641,0.12782702382823188
3.6009999999997144,0.13709140759310134,0.1387339872591252
3.8009999999996924,0.15440713503083303,0.15090252146892663
4.000999999999671,0.17093096887715967,0.16725227770669834
4.200999999999738,0.18661438051017318,0.18221496236413148
4.400999999999804,0.1982135290558036,0.19823604135925887
4.600999999999871,0.20853486886443126,0.213215163671119
4.800999999999938,0.2190259316985016,0.2301173072027408
5.000000000000004,0.2331686398097586,0.24446660901203454
5.200000000000071,0.2546067473579146,0.259654801584319
5.400000000000138,0.27298347939142964,0.2735048444537444
5.600000000000205,0.2963256596400133,0.2889109562931127
5.800000000000272,0.31981172835251226,0.3015760133297172
6.000000000000338,0.34495614618151454,0.30136661458710357
6.200000000000405,0.36843903356037383,0.29073871830964626
6.400000000000472,0.38267233753032803,0.2799292287980759
6.600000000000539,0.3975115943783428,0.2711499794298321
6.800000000000606,0.41485291343346176,0.2620943892464001
7.000000000000672,0.43173932584197944,0.2549614291513111
7.200000000000739,0.45214358169576296,0.2502943918553936
7.400000000000806,0.4730778293492406,0.23901196317755788
7.600000000000873,0.4916204795942246,0.22973604182444746
7.8000000000009395,0.5151649331720696,0.22881644640833568
8.000000000001005,0.5504434034605901,0.23126689940870684
8.200000000000895,0.5738158758899062,0.23444367688141904
8.400000000000784,0.5955947160919011,0.23430058228342035
8.600000000000673,0.6244660045805945,0.22556119809655653
8.800000000000562,0.6446292422067039,0.20853223727461043
9.000000000000451,0.6587454517997269,0.19381892606017978
9.20000000000034,0.6797541984974843,0.17626216920901047
9.40000000000023,0.6971648688862274,0.16173751617853283
9.600000000000119,0.7065883559398634,0.1523876764501869
9.800000000000008,0.7146145567954091,0.1412352222825079
10.000999999999896,0.7273357677792338,0.13386322821245517
10.200999999999786,0.7323786032828038,0.13162138457151232
10.400999999999675,0.7462327661202048,0.13277725036006732
10.600999999999564,0.7645341749859936,0.13372363086217154
10.800999999999453,0.7947762343778761,0.1279968802285018
11.000999999999342,0.8155360514026979,0.11826214029863587
11.200999999999231,0.8381415339759745,0.1097032153821362
11.40099999999912,0.8590380628403171,0.0976757406083143
11.60099999999901,0.8758365977746053,0.08733724070970672
11.800999999998899,0.8918990470528751,0.08167191983389399
12.000999999998788,0.9186986704664262,0.07313798286900049
12.200999999998677,0.9481376468963463,0.061634127634229416
12.400999999998566,0.9767599197351327,0.047803492539642924
12.600999999998455,1.0059012239517775,0.028438055233196632
12.800999999998345,1.0328907367378148,0.009926577242654656
13.000999999998234,1.0608589090351088,-0.012025428616164518
13.200999999998123,1.0859015407882058,-0.03296878851650812
13.400999999998012,1.1049864264443658,-0.052515062523778876
13.600999999997901,1.1273793464580129,-0.07757635233840156
13.80099999999779,1.149721399437691,-0.09692101208655668
14.00099999999768,1.1748136309607151,-0.11253029649571697
14.200999999997569,1.1997470037415912,-0.12446854645362687
14.400999999997458,1.2202125206672696,-0.13188524642886112
14.600999999997347,1.2371110249009478,-0.13910622370659237
14.800999999997236,1.2487838651030017,-0.14623223587013354
15.000999999997125,1.266793766524774,-0.15591867764593978
15.200999999997014,1.2892911001246974,-0.1708464633461627
15.400999999996904,1.3159199377617723,-0.19185679227761565
15.600999999996793,1.3526817709351855,-0.21567178581668425
15.800999999996682,1.3823474198465249,-0.23844863280439063
16.000999999996573,1.4036475282229979,-0.25760682695392184
16.200999999996817,1.4231826268013918,-0.2737448286279439
16.40099999999706,1.4527074467601895,-0.29394881280317015
16.600999999997306,1.484031749188199,-0.31590976237036017
16.80099999999755,1.52003289536041,-0.34112626822383
17.000999999997795,1.5485860970206369,-0.36294909932003255
17.20099999999804,1.5763918994328892,-0.3837942656758919
17.400999999998284,1.6022511773595625,-0.40666987050337616
17.60099999999853,1.62762814727149,-0.427464177564798
17.800999999998773,1.6566767934183246,-0.4453509933875046
18.000999999999017,1.6816809068770406,-0.4608992061139066
18.20099999999926,1.706442002675562,-0.4775195504857615
18.400999999999506,1.7359549552825342,-0.49520659267041633
18.60099999999975,1.764962192173115,-0.5173910305499351
18.799999999999994,1.7928185084821986,-0.5376214530428561
19.000000000000238,1.8200854425508048,-0.5584607864656793
19.200000000000482,1.847866424354571,-0.5762360362814261
19.400000000000727,1.8758114238708208,-0.5925862626441692
19.60000000000097,1.9012614780006019,-0.6133723356423061
19.800000000001216,1.9293695997663276,-0.6346049436344372
20.00000000000146,1.9636629239657553,-0.6563897035174365
