Time (s),X (m),Y (m)
0.001,-0.00060452123697562,-8.989899140956103e-05
0.20000000000000015,0.0016022191443232545,0.00030696493566601706
0.4000000000000003,0.004964065023713512,0.0016501481738769776
0.6000000000000004,0.0188375093168639,0.003928435780238193
0.8000000000000006,0.022232806878456683,0.008562685451433611
1.0000000000000007,0.030892719996518436,0.012121025312913604
1.2009999999999785,0.043649354201197206,0.014820962658139042
1.4009999999999565,0.06497015768975808,0.019108149255896316
1.6009999999999345,0.0891835347357622,0.021341300888650706
1.8009999999999124,0.11145189981208636,0.020372374742730886
2.0009999999998906,0.12793862560927896,0.01902831943732527
2.2009999999998686,0.14004264248187284,0.01632029938779254
2.4009999999998466,0.15395839795883096,0.010038987096310487
2.6009999999998246,0.1795954493476163,-0.002073466419449046
2.8009999999998025,0.19419792516018933,-0.008857946290825298
3.0009999999997805,0.21878971171279457,-0.01512971177221299
3.2009999999997585,0.23312135361690015,-0.019599168620102147
3.4009999999997365,0.23771115556597175,-0.024909082435156
3.6009999999997144,0.25595403985471205,-0.03322546370064853
3.8009999999996924,0.2741593964816285,-0.041063423536372226
4.000999999999671,0.29848676922460343,-0.05240218516388353
4.200999999999738,0.3197295453014593,-0.061663733337595034
4.400999999999804,0.34492962996700777,-0.07524955825219407
4.600999999999871,0.3808066379280142,-0.09418506664439723
4.800999999999938,0.412134710803144,-0.11409645852930773
5.000000000000004,0.43442620210928556,-0.1343628752043514
5.200000000000071,0.4570194836896921,-0.15557590850394948
5.400000000000138,0.47855091419274526,-0.16884257647275416
5.600000000000205,0.5063034763624454,-0.18738539973304952
5.800000000000272,0.5497557947491255,-0.21257512032278367
6.000000000000338,0.588135528983066,-0.23498840020574638
6.200000000000405,0.6209446574629462,-0.25492728543952753
6.400000000000472,0.6571892492382057,-0.2752601512435206
6.600000000000539,0.6997675521814258,-0.29978749886261746
6.800000000000606,0.7480601676002122,-0.33279160086309645
7.000000000000672,0.7955441066131512,-0.3680498348301214
7.200000000000739,0.8431696846223303,-0.4078234060928502
7.400000000000806,0.8879757734795889,-0.44561284159030246
7.600000000000873,0.9268555065069526,-0.4778625518324872
7.8000000000009395,0.9632760157662306,-0.5155928602631978
8.000000000001005,0.9873997681496899,-0.5458137994098319
8.200000000000895,1.0000714811007605,-0.5681673080327924
8.400000000000784,1.000212348545875,-0.6037962849420186
8.600000000000673,0.9819833506168173,-0.6518581590831543
8.800000000000562,0.9545793600392043,-0.6947525429404042
9.000000000000451,0.92115575098194,-0.7351402287230208
9.20000000000034,0.8907114114287747,-0.7735149418007722
9.40000000000023,0.8660964750417375,-0.8115674967204316
9.600000000000119,0.8472085161620959,-0.8402590349780885
9.800000000000008,0.8266999004425509,-0.8621597426209775
10.000999999999896,0.8035691564575601,-0.8893034450179484
10.200999999999786,0.7842370632833829,-0.919222268531143
10.400999999999675,0.7605580078580422,-0.957013603260709
10.600999999999564,0.7343899832525438,-1.0027610351035594
10.800999999999453,0.70659054654445,-1.0428405201387316
11.000999999999342,0.6824136238339005,-1.0765278883639817
11.200999999999231,0.6602184284787143,-1.1092347116806582
11.40099999999912,0.6322240623921286,-1.1487325014346053
11.60099999999901,0.5960849340107173,-1.195215982543762
11.800999999998899,0.5559003622082159,-1.2423094553714722
12.000999999998788,0.5115854110094764,-1.2924108872810816
12.200999999998677,0.45480423345491755,-1.3460162999189864
12.400999999998566,0.40685230940041284,-1.3916893466818223
12.600999999998455,0.3641295852981804,-1.427144319092918
12.800999999998345,0.3096840893672543,-1.4564980403495043
13.000999999998234,0.269082832632068,-1.4744106393184075
13.200999999998123,0.2422257363155088,-1.4869669192946704
13.400999999998012,0.2005087021920748,-1.4946253685253
13.600999999997901,0.16959694069502146,-1.49490914057693
13.80099999999779,0.1309261148171574,-1.4859882034532097
14.00099999999768,0.07911112813631131,-1.4696643183343658
14.200999999997569,0.023647875682046352,-1.4452579144764741
14.400999999997458,-0.012342481133821522,-1.4262105712079876
14.600999999997347,-0.04983236661654916,-1.4031851364899286
14.800999999997236,-0.09112520486515317,-1.3769292855162498
15.000999999997125,-0.14024361023690124,-1.3495376502590737
15.200999999997014,-0.18818632599369092,-1.3210082868792306
15.400999999996904,-0.24287803008548503,-1.2777793412520402
15.600999999996793,-0.30227983277600284,-1.2239924597729108
15.800999999996682,-0.3622286380444897,-1.1667691486393208
16.000999999996573,-0.41018407019103637,-1.11856378402571
16.200999999996817,-0.42349949532186415,-1.0767538187541235
16.40099999999706,-0.41115296566274256,-1.0286113766014013
16.600999999997306,-0.3887647076305385,-0.9765660816784861
16.80099999999755,-0.3608930652906309,-0.9213880224230617
17.000999999997795,-0.3281886853557997,-0.8737938036779066
17.20099999999804,-0.28839484424801237,-0.8249359060472293
17.400999999998284,-0.23915220452364103,-0.7724647632567061
17.60099999999853,-0.18439877677618624,-0.7230386677836141
17.800999999998773,-0.12809530533110808,-0.6930135462661395
18.000999999999017,-0.07171249649450688,-0.6882555187693429
18.20099999999926,-0.025277916049274873,-0.7027042634532131
18.400999999999506,0.017413753726032013,-0.7278366570053566
18.60099999999975,0.057277134585215876,-0.7536975763990796
18.799999999999994,0.094251319769677,-0.7849369840333281
19.000000000000238,0.12942096106537898,-0.8166121588776225
19.200000000000482,0.16707476941724206,-0.8480683076492016
19.400000000000727,0.20393647906424298,-0.8729775113262186
19.60000000000097,0.24528698809890184,-0.8968418015315656
19.800000000001216,0.2763496484746864,-0.9165272729847395
20.00000000000146,0.3056305371110963,-0.9389022967919114
