Time (s),X (m),Y (m)
0.001,-0.00060452123697562,8.989899140956135e-05
0.20000000000000015,0.0011178410898362771,-0.00011976278874662351
0.4000000000000003,0.002736571067853365,-0.00017165959596309103
0.6000000000000004,0.0037998409452200048,8.102333368082937e-05
0.8000000000000006,0.008380643816284417,0.0011925036369189468
1.0000000000000007,0.013762879387095812,0.0013877043378510985
1.2009999999999785,0.015070859098944546,0.00031908817511517955
1.4009999999999565,0.02915202770562271,0.000435965496713181
1.6009999999999345,0.035321007232502484,0.000497250516443114
1.8009999999999124,0.033019953371996334,0.00029723953437607267
2.0009999999998906,0.036676639530357893,0.0003399638289732675
2.2009999999998686,0.04710835780104407,-0.0012880846870964545
2.4009999999998466,0.060724923306664666,-0.009702639067580742
2.6009999999998246,0.0711112469528935,-0.02296993797260222
2.8009999999998025,0.07862923261646612,-0.032954410451119145
3.0009999999997805,0.08634685185112301,-0.0397964535599805
3.2009999999997585,0.09440086264796574,-0.04565775030385514
3.4009999999997365,0.10522042143506803,-0.05342566402771674
3.6009999999997144,0.12068061114314962,-0.06297145679108597
3.8009999999996924,0.13002801718532864,-0.06774853742814756
4.000999999999671,0.14856507084321063,-0.0720988372943676
4.200999999999738,0.1631576227733782,-0.08026260929808449
4.400999999999804,0.1770969216520904,-0.08995478361767582
4.600999999999871,0.19943232905455768,-0.09798746060765551
4.800999999999938,0.21617569029726566,-0.10618166091699174
5.000000000000004,0.22272545153407686,-0.10685307449994695
5.200000000000071,0.23667105926131926,-0.11332177313153106
5.400000000000138,0.25483068664963854,-0.1166801334805972
5.600000000000205,0.271068016786302,-0.11863444855598891
5.800000000000272,0.2866764648287998,-0.12593606742939523
6.000000000000338,0.2968711838111998,-0.13606937634166275
6.200000000000405,0.30789192259077347,-0.14217466835357448
6.400000000000472,0.3252774612520175,-0.14735738734507475
6.600000000000539,0.3442549031504225,-0.15458171473707522
6.800000000000606,0.359505161957448,-0.1592713201068399
7.000000000000672,0.37184799712479644,-0.16406818352070784
7.200000000000739,0.3906781997755898,-0.17309194657723867
7.400000000000806,0.4115901512108756,-0.18223354072972028
7.600000000000873,0.42514875062632784,-0.18362642367188728
7.8000000000009395,0.4469031403044225,-0.19034902552203803
8.000000000001005,0.4709177206115577,-0.1987231668950473
8.200000000000895,0.48454488454850725,-0.20324027773715045
8.400000000000784,0.5097645399118885,-0.21155420740078734
8.600000000000673,0.5368891684444949,-0.22448614437353884
8.800000000000562,0.560385914799132,-0.23397230864105625
9.000000000000451,0.5805877338851616,-0.24000501355317203
9.20000000000034,0.6132141325591172,-0.2602801788906464
9.40000000000023,0.639181128600543,-0.27087820286465625
9.600000000000119,0.6603344829605887,-0.2809605490150794
9.800000000000008,0.6763156881536829,-0.2904568632705087
10.000999999999896,0.6919827229262521,-0.29579693941335966
10.200999999999786,0.7155404971409767,-0.301913582388134
10.400999999999675,0.7436289635877225,-0.31674144012565564
10.600999999999564,0.7641527113377028,-0.3301291563923164
10.800999999999453,0.79056056523242,-0.34818562746840814
11.000999999999342,0.8185210916502818,-0.36567685152622215
11.200999999999231,0.8390023198211628,-0.37392155752262807
11.40099999999912,0.857074368077922,-0.37787472538089567
11.60099999999901,0.8724272269523813,-0.38669620206544175
11.800999999998899,0.9029534327354608,-0.40563325926302457
12.000999999998788,0.9246446628340033,-0.4160262907426621
12.200999999998677,0.9390334872245306,-0.4193263972181255
12.400999999998566,0.9572704555369441,-0.4254574251054496
12.600999999998455,0.9786742084259765,-0.43733430602665335
12.800999999998345,1.0090416189251639,-0.45498084130432365
13.000999999998234,1.0397757369531453,-0.4729371212143785
13.200999999998123,1.0624143635312606,-0.4836088435978193
13.400999999998012,1.0867757664453064,-0.493097594708201
13.600999999997901,1.1095065397423218,-0.5041036456610959
13.80099999999779,1.136806862297412,-0.5185686920376651
14.00099999999768,1.169321878923584,-0.5349383099199501
14.200999999997569,1.191244125674091,-0.5477168242652961
14.400999999997458,1.2138096626231167,-0.5613487351205287
14.600999999997347,1.2436188209404215,-0.5748679662722149
14.800999999997236,1.2726728551270554,-0.5910735436942257
15.000999999997125,1.2987288652104707,-0.6051599752253677
15.200999999997014,1.3178973813411217,-0.612090879941756
15.400999999996904,1.341061749899212,-0.6204771055955748
15.600999999996793,1.369578980742947,-0.6351122389082037
15.800999999996682,1.399318200427927,-0.655433943285409
16.000999999996573,1.4206268640146564,-0.6706228637627448
16.200999999996817,1.4433124800492303,-0.6822278151437368
16.40099999999706,1.465320586847652,-0.6907241512907336
16.600999999997306,1.4919669211194528,-0.7047095077479703
16.80099999999755,1.5145220332058493,-0.7163800321788139
17.000999999997795,1.5409328890300484,-0.7287723349974614
17.20099999999804,1.560737781066946,-0.7420843112987308
17.400999999998284,1.5832663236733324,-0.7566814091125161
17.60099999999853,1.6106523435442865,-0.766677128147669
17.800999999998773,1.6389135249088491,-0.7797301590388257
18.000999999999017,1.6600185643678642,-0.7965754346695848
18.20099999999926,1.6852700117096113,-0.8112079721748117
18.400999999999506,1.7105507761054866,-0.8207982977981031
18.60099999999975,1.7358116932730006,-0.829750533664447
18.799999999999994,1.7638238302998555,-0.8451929705929614
19.000000000000238,1.7936381393585825,-0.863728997550856
19.200000000000482,1.8212846618121166,-0.8821521605081557
19.400000000000727,1.8461231203589894,-0.9003103920220746
19.60000000000097,1.8724879005907602,-0.9196516362577826
19.800000000001216,1.8979304458109292,-0.9361967605842221
20.00000000000146,1.925852131105864,-0.9512449897369988
