Time (s),X (m),Y (m)
0.001,0.0012131848191356664,0.000663019509439443
0.20000000000000015,0.0008803902220054268,2.3055477601776197e-05
0.4000000000000003,0.0024208890203124664,0.0008880873264560226
0.6000000000000004,0.004124726282554286,0.0021591099388454803
0.8000000000000006,0.007825889164800513,0.0032635654891096863
1.0000000000000007,0.011279078313790577,0.005299960887249746
1.2009999999999785,0.012593852690298434,0.009560247811681423
1.4009999999999565,0.0189570157309802,0.013392147248567087
1.6009999999999345,0.023651169954014853,0.015922619509224224
1.8009999999999124,0.028524410562303995,0.017183248790455366
2.0009999999998906,0.03490369335466657,0.022222720263985963
2.2009999999998686,0.041464237883290685,0.024805744646724526
2.4009999999998466,0.04704468158603962,0.026376587413417762
2.6009999999998246,0.05331384864303308,0.02646504559104202
2.8009999999998025,0.062224449820914594,0.03141738989762746
3.0009999999997805,0.06953362714122308,0.03243090057322994
3.2009999999997585,0.07621612430296414,0.032561607870253646
3.4009999999997365,0.08326668322965114,0.03753479432224242
3.6009999999997144,0.09128974459593527,0.04464363375931346
3.8009999999996924,0.09813215971830805,0.05167594299733521
4.000999999999671,0.10590384655569866,0.05585187436803806
4.200999999999738,0.1122759077536834,0.056663859629705826
4.400999999999804,0.11980671269396036,0.06221312597760975
4.600999999999871,0.12728549958107774,0.06970186796382478
4.800999999999938,0.13146705647758988,0.07520581844652217
5.000000000000004,0.1376920418491292,0.08329950717556998
5.200000000000071,0.14505631301949282,0.09005536895474016
5.400000000000138,0.15141343338945823,0.10164045585902322
5.600000000000205,0.15527873875497117,0.1134662695863355
5.800000000000272,0.15769374446593976,0.1267137844640644
6.000000000000338,0.16037643468726676,0.13978604045905507
6.200000000000405,0.16635901199135245,0.1490924983551751
6.400000000000472,0.17157745423853527,0.1560744937478482
6.600000000000539,0.1766569931344352,0.16388751590259582
6.800000000000606,0.17829118465989224,0.17727376433780212
7.000000000000672,0.17771677361941748,0.19339955219124014
7.200000000000739,0.17750401402249108,0.21025800716288162
7.400000000000806,0.17600882353127978,0.22010957940180428
7.600000000000873,0.1750787657770325,0.23146409997711692
7.8000000000009395,0.17441760195144632,0.24713398058881733
8.000000000001005,0.17329631242014226,0.2659026395781617
8.200000000000895,0.17175456295611763,0.2797311315428153
8.400000000000784,0.1673084217846285,0.29078135699814883
8.600000000000673,0.16271658188568763,0.3049258752915279
8.800000000000562,0.16170993633481004,0.31378711290076405
9.000000000000451,0.1571813819987152,0.3269713069526011
9.20000000000034,0.15266114070352282,0.3380267607182566
9.40000000000023,0.14820310283050156,0.3516000475460961
9.600000000000119,0.14668632130375836,0.3593947527498976
9.800000000000008,0.1461735035878258,0.3714010375986441
10.000999999999896,0.14535996646588736,0.37953965728964517
10.200999999999786,0.13799611221102487,0.3985744525621154
10.400999999999675,0.13696681152056733,0.40953179226767933
10.600999999999564,0.13206051625309073,0.4206747395274833
10.800999999999453,0.12941624642913044,0.42972643361916324
11.000999999999342,0.11867584929794071,0.4488994688644429
11.200999999999231,0.10986553131338297,0.46460281940282977
11.40099999999912,0.10372434661198061,0.48024826539648013
11.60099999999901,0.09354538046991757,0.49313818687444355
11.800999999998899,0.08180823810531056,0.5089476107454806
12.000999999998788,0.07228418327213967,0.5240146931210469
12.200999999998677,0.06762825480451437,0.5383102266105844
12.400999999998566,0.059140506197085406,0.5499255901473459
12.600999999998455,0.05070113458738713,0.5616249210803603
12.800999999998345,0.03455025953495119,0.5712968912603158
13.000999999998234,0.02319033210059451,0.5791809862097115
13.200999999998123,0.004500329319154944,0.5885672713765496
13.400999999998012,-0.006755421048781707,0.5963619842577887
13.600999999997901,-0.019592697079373517,0.6029926559363475
13.80099999999779,-0.037012951113474406,0.6069061325717933
14.00099999999768,-0.05391368544865769,0.6107130710959227
14.200999999997569,-0.06740774597351797,0.6143770711297144
14.400999999997458,-0.08031854666891297,0.6166494365825685
14.600999999997347,-0.0957315359508653,0.620803002985097
14.800999999997236,-0.10800613668622581,0.6235915467097802
15.000999999997125,-0.1223106648314216,0.6289169196052662
15.200999999997014,-0.13678338662108033,0.6304475527036059
15.400999999996904,-0.15128618579293282,0.6305640828722143
15.600999999996793,-0.1675323429360348,0.6303316465539482
15.800999999996682,-0.1811277113387353,0.6324409321372199
16.000999999996573,-0.193719459282871,0.6359368368211517
16.200999999996817,-0.20665341854780744,0.6402901601725468
16.40099999999706,-0.2237637183449215,0.6442503497289488
16.600999999997306,-0.23626225913427185,0.647304283275347
16.80099999999755,-0.2437115750742977,0.6514460893664782
17.000999999997795,-0.2548012971827717,0.6534316379600942
17.20099999999804,-0.2706988702424108,0.6555960907298242
17.400999999998284,-0.2785611325574103,0.6568502407056761
17.60099999999853,-0.2968703559977932,0.6552048620446935
17.800999999998773,-0.3137672385613812,0.6547151522167032
18.000999999999017,-0.33787291403598463,0.6522014522480801
18.20099999999926,-0.3625981549306467,0.6474482109798234
18.400999999999506,-0.3802516914931599,0.6442752050586839
18.60099999999975,-0.39561666268971707,0.6416879543376732
18.799999999999994,-0.4110823596885902,0.6424429657650952
19.000000000000238,-0.4275749754891241,0.6381888475137314
19.200000000000482,-0.44482410021823954,0.6350941864723533
19.400000000000727,-0.4620791999292589,0.6311227107182524
19.60000000000097,-0.4819721898722253,0.6208855261110638
19.800000000001216,-0.5000525607549805,0.6102324797880782
20.00000000000146,-0.5181134036605604,0.5987796657496812
