Time (s),X (m),Y (m)
0.001,-0.0005462407427453492,-0.00035278531233166996
0.20000000000000015,0.0013738433782756166,0.00048187678148750097
0.4000000000000003,0.007719802635829713,0.0024289714513801874
0.6000000000000004,0.008103930472750558,0.006940115539500156
0.8000000000000006,0.005635280893528572,0.012607768074167493
1.0000000000000007,0.02004750272613107,0.01708055560842352
1.2009999999999785,0.04394041385806454,0.015572778270447793
1.4009999999999565,0.07505206745133743,0.008908476191713678
1.6009999999999345,0.09958591143027297,-0.0019663089241445096
1.8009999999999124,0.12286010214558507,-0.01800897181682036
2.0009999999998906,0.14866773661136773,-0.03597244235281493
2.2009999999998686,0.17967236446842125,-0.05823152415364368
2.4009999999998466,0.21236362371642037,-0.08877065592431387
2.6009999999998246,0.2454584132823871,-0.12146025203801362
2.8009999999998025,0.27393072094243065,-0.15809380203708157
3.0009999999997805,0.29537991735068697,-0.19274520449823443
3.2009999999997585,0.3057272299700637,-0.22841350702727048
3.4009999999997365,0.3093240791322402,-0.25887242578074415
3.6009999999997144,0.30601955336159453,-0.29024598090390935
3.8009999999996924,0.2931963279646083,-0.32504517563296886
4.000999999999671,0.2722291664512836,-0.35777196595018884
4.200999999999738,0.24402782683043708,-0.3926054203884654
4.400999999999804,0.20767841672409126,-0.44144675277212014
4.600999999999871,0.16790264097925528,-0.48657959607177226
4.800999999999938,0.12121527185275556,-0.5332380491513798
5.000000000000004,0.07651294245057284,-0.5759366072082827
5.200000000000071,0.03290774721787374,-0.61676200066117
5.400000000000138,-0.014703761255941165,-0.6626090515007671
5.600000000000205,-0.07034336866470679,-0.7096444410858449
5.800000000000272,-0.1225202945130129,-0.7543901774353711
6.000000000000338,-0.1769650906527512,-0.7963516218211374
6.200000000000405,-0.24389068144008194,-0.8358810828974259
6.400000000000472,-0.29971335134525506,-0.8707373351626556
6.600000000000539,-0.34963676850232384,-0.9023795797984858
6.800000000000606,-0.39863275787552077,-0.92968410261586
7.000000000000672,-0.4555219858440613,-0.932678784371418
7.200000000000739,-0.5049014839325358,-0.9125663781073267
7.400000000000806,-0.5478931698908982,-0.8814462421323298
7.600000000000873,-0.5888031615719991,-0.8458706027370602
7.8000000000009395,-0.6304644086507664,-0.806019286339879
8.000000000001005,-0.6856308028639178,-0.7630978729234493
8.200000000000895,-0.7312328406044242,-0.7189362803774455
8.400000000000784,-0.7668402671710103,-0.6766763652192441
8.600000000000673,-0.8077243375317517,-0.634572220019614
8.800000000000562,-0.8512978574554729,-0.5900660972945447
9.000000000000451,-0.9058296350521584,-0.5471752899411338
9.20000000000034,-0.9613109744219701,-0.504067556236547
9.40000000000023,-1.021218164588139,-0.45469121037936117
9.600000000000119,-1.0782733106175388,-0.40289538762305543
9.800000000000008,-1.1430753533893856,-0.3468508469611484
10.000999999999896,-1.2086807767364471,-0.2876491737569588
10.200999999999786,-1.2585516254205444,-0.23709092516437058
10.400999999999675,-1.312664179995029,-0.17221980918786478
10.600999999999564,-1.3623736056299527,-0.10108491620481216
10.800999999999453,-1.3954254905310082,-0.026094810166991753
11.000999999999342,-1.4114135968839439,0.05403518422644211
11.200999999999231,-1.4165430742086338,0.12288255637854872
11.40099999999912,-1.4178306656081914,0.19545417193822118
11.60099999999901,-1.4091915290632149,0.2651228522364909
11.800999999998899,-1.3878890845265583,0.3378672108039902
12.000999999998788,-1.3608685057976968,0.4091755674126631
12.200999999998677,-1.3266164614309381,0.4664196511445717
12.400999999998566,-1.2812122945562194,0.5226679251405989
12.600999999998455,-1.232030980204851,0.5751875237205324
12.800999999998345,-1.1778118457823363,0.6339339126279714
13.000999999998234,-1.1174454982907103,0.6996865965903366
13.200999999998123,-1.058834278479826,0.7507088180209922
13.400999999998012,-0.9984770705362235,0.8086011711882695
13.600999999997901,-0.937384118762975,0.8657445681643987
13.80099999999779,-0.8775202046534184,0.9197356883523666
14.00099999999768,-0.8167241032035231,0.9760077292716404
14.200999999997569,-0.7516954018789438,1.0376846552734835
14.400999999997458,-0.6844742456966714,1.1027846998856359
14.600999999997347,-0.6130589267781855,1.1716788041175252
14.800999999997236,-0.539055418285674,1.2449006704463135
15.000999999997125,-0.4728377934299701,1.3134276915121301
15.200999999997014,-0.4144807064642378,1.388787145487665
15.400999999996904,-0.36710147934383663,1.4554910247917623
15.600999999996793,-0.3343417501043357,1.5072131708887468
15.800999999996682,-0.3046628014985908,1.5671035365863093
16.000999999996573,-0.26902777448740983,1.629072201151903
16.200999999996817,-0.2210288042759191,1.69041636311619
16.40099999999706,-0.16047643824355423,1.764718508014306
16.600999999997306,-0.09518406112447793,1.8389241710341948
16.80099999999755,-0.03262603188795665,1.904263396702823
17.000999999997795,0.029904438069234422,1.9792963836758821
17.20099999999804,0.08848113333490482,2.0529510231402193
17.400999999998284,0.1475777769201552,2.1273668604364473
17.60099999999853,0.21015671705814826,2.201358713279729
17.800999999998773,0.27082283043552835,2.2739679388147804
18.000999999999017,0.325310468661693,2.3454220615315813
18.20099999999926,0.38702720549965847,2.417823008942473
18.400999999999506,0.4539607137051848,2.4913528517459533
18.60099999999975,0.5284523604808306,2.5740642927258772
18.799999999999994,0.6043595862435237,2.656767774584576
19.000000000000238,0.6785059946751979,2.7357947354252574
19.200000000000482,0.7531541994220324,2.8135628792771046
19.400000000000727,0.842207001347164,2.908556978528208
19.60000000000097,0.9227142493954111,2.9880331197146597
19.800000000001216,0.9998997192766159,3.069324446738129
20.00000000000146,1.0735751828314233,3.15795216335827
