Time (s),X (m),Y (m)
0.001,0.0005129279282107199,0.0010275501737767782
0.20000000000000015,0.0008391758515754685,-0.000363962233657486
0.4000000000000003,0.001615603157840274,0.001988967747397252
0.6000000000000004,0.0052725502691702885,0.003467312129180523
0.8000000000000006,0.009432735450048198,0.0028081343766310518
1.0000000000000007,0.014472217851218444,0.006409856542819655
1.2009999999999785,0.021179313753513174,0.009275341314646855
1.4009999999999565,0.03193294366681292,0.017843252925500035
1.6009999999999345,0.03825197427534363,0.01631069744229003
1.8009999999999124,0.04543158899304629,0.016594830958149016
2.0009999999998906,0.060518909584925,0.021810365520123873
2.2009999999998686,0.07382673496479379,0.02086231341936606
2.4009999999998466,0.08843808913031341,0.026305147360943998
2.6009999999998246,0.10593036004347177,0.02861733203108389
2.8009999999998025,0.12058280058630227,0.03484262578654775
3.0009999999997805,0.1290306701646085,0.03796111758150522
3.2009999999997585,0.13634549523803385,0.03196307331722484
3.4009999999997365,0.1402422569727186,0.025618492563735995
3.6009999999997144,0.15024312700640924,0.029070840621924582
3.8009999999996924,0.16529951494164644,0.03539952010738372
4.000999999999671,0.18267627946562132,0.03764471633777157
4.200999999999738,0.20260262580631616,0.04539386800737495
4.400999999999804,0.22402729598573526,0.053975307562892386
4.600999999999871,0.2410606972130727,0.05390513182802949
4.800999999999938,0.2501956534387481,0.04472862998916641
5.000000000000004,0.2603557366131954,0.03876811209700202
5.200000000000071,0.2716970151783132,0.03229720613765248
5.400000000000138,0.2887656466228805,0.03300742199116921
5.600000000000205,0.3054608548311172,0.03964389357516987
5.800000000000272,0.32309031938960814,0.043612252879501684
6.000000000000338,0.3426210489524468,0.04374277794718707
6.200000000000405,0.3542949108541103,0.04746292515276154
6.400000000000472,0.3639403338926934,0.04616843120191385
6.600000000000539,0.3720181936544942,0.037692615839218596
6.800000000000606,0.3869399846026747,0.039508041083471376
7.000000000000672,0.404189258189804,0.038075434255561494
7.200000000000739,0.42424474695493203,0.04264741985365669
7.400000000000806,0.4406860893030312,0.04443188091675743
7.600000000000873,0.45125564946681906,0.038176806412795264
7.8000000000009395,0.4655291416121516,0.03522568822360151
8.000000000001005,0.4768770157872245,0.030057982016197297
8.200000000000895,0.4874336611769375,0.028422040037043905
8.400000000000784,0.49769596434835806,0.019918513230250016
8.600000000000673,0.5101754270724316,0.012640807639214059
8.800000000000562,0.5236332354322862,0.01275504672857234
9.000000000000451,0.5411515806818874,0.01660271443602642
9.20000000000034,0.5562366209171051,0.023652913822884918
9.40000000000023,0.5734319096777746,0.026793262304202235
9.600000000000119,0.5909022153393991,0.029798121103581664
9.800000000000008,0.6047748475200359,0.029036667121312382
10.000999999999896,0.6166276526031046,0.03440533721099892
10.200999999999786,0.6301491324618245,0.03795674600987862
10.400999999999675,0.6465605591775879,0.03493116537329117
10.600999999999564,0.6643262995456951,0.033959717741849964
10.800999999999453,0.6806647149304328,0.04080683940728577
11.000999999999342,0.6938024259964033,0.04149215354828091
11.200999999999231,0.7125338309989642,0.04353870498463296
11.40099999999912,0.7334401260996336,0.04970758729562395
11.60099999999901,0.7482983851487309,0.05160750244809469
11.800999999998899,0.7607224369496506,0.054812399221680415
12.000999999998788,0.773456907719191,0.05041803283776652
12.200999999998677,0.7877615164189484,0.04517161302948859
12.400999999998566,0.7988671856919234,0.04764101755338522
12.600999999998455,0.8137036622342361,0.05316691158399022
12.800999999998345,0.8273407917542491,0.0516769088291887
13.000999999998234,0.8386473463371206,0.05057456827354523
13.200999999998123,0.8512612463290643,0.05831364402450595
13.400999999998012,0.8699148647698962,0.06381431920483349
13.600999999997901,0.8877180418475822,0.06636393403018027
13.80099999999779,0.9032092579057629,0.062085758497220145
14.00099999999768,0.9178734719280373,0.05742144087521355
14.200999999997569,0.9295368125897862,0.053631618589344524
14.400999999997458,0.9382076875582022,0.05500299728119537
14.600999999997347,0.949495789020117,0.05114389924681223
14.800999999997236,0.9584410414802689,0.042803366959458536
15.000999999997125,0.9672771008282907,0.043078583924619655
15.200999999997014,0.9836162676339806,0.047257725444271564
15.400999999996904,0.9958208568766419,0.04552955762698217
15.600999999996793,1.0171469755851172,0.05106230317235269
15.800999999996682,1.0367924575931085,0.05293331848523582
16.000999999996573,1.0522217839074077,0.055163791172668994
16.200999999996817,1.0649987175960598,0.05046610523831299
16.40099999999706,1.0791201069956808,0.04926139042463945
16.600999999997306,1.09077507759794,0.045135070708768016
16.80099999999755,1.104855339598025,0.042920312625046586
17.000999999997795,1.119367904889843,0.045092902548527776
17.20099999999804,1.1339343381389404,0.03716968653214338
17.400999999998284,1.1525020950763036,0.03751609362496771
17.60099999999853,1.1756429886220439,0.042735905834794585
17.800999999998773,1.1973693696438035,0.04603925362374371
18.000999999999017,1.2172643625521107,0.04442478747215177
18.20099999999926,1.2333690353357063,0.045532387326232764
18.400999999999506,1.2485689001339042,0.039851171894412014
18.60099999999975,1.2618654712464172,0.045947531514361706
18.799999999999994,1.2784640192724979,0.04341232120570398
19.000000000000238,1.2891914300804639,0.03570394026244607
19.200000000000482,1.3028061537316227,0.03851803747904521
19.400000000000727,1.322289091651192,0.03530063719500966
19.60000000000097,1.3362140871899282,0.03637776546585188
19.800000000001216,1.3534119893608108,0.03893436412499118
20.00000000000146,1.3720354839093427,0.041781174709045694
