Time (s),X (m),Y (m)
0.001,0.001267963995250183,-0.0005916298972236683
0.20000000000000015,7.079094699274833e-05,0.0005961485260994289
0.4000000000000003,0.006395907389605312,-0.005668307312944032
0.6000000000000004,0.01812626487211971,-0.0173620368346681
0.8000000000000006,0.035685800485413456,-0.026633438891745714
1.0000000000000007,0.04827547217960631,-0.0337666540958346
1.2009999999999785,0.06001427891673254,-0.0351153305864748
1.4009999999999565,0.07891354305233426,-0.0432025301041128
1.6009999999999345,0.10806064104455534,-0.06581406120587627
1.8009999999999124,0.13494107123267207,-0.09454261069195255
2.0009999999998906,0.15917569843539495,-0.11328375738567475
2.2009999999998686,0.18481129980370672,-0.127943045655971
2.4009999999998466,0.19984368676107161,-0.14360534735441302
2.6009999999998246,0.202796988568697,-0.1674075117308517
2.8009999999998025,0.1976216299040057,-0.19243569331168325
3.0009999999997805,0.19013886044620193,-0.21917750612384804
3.2009999999997585,0.18388691307664495,-0.2471235677515486
3.4009999999997365,0.17757737156839085,-0.2826292558577762
3.6009999999997144,0.1688912340839483,-0.32478260987089225
3.8009999999996924,0.15731048217858068,-0.36732590373948093
4.000999999999671,0.13021036171765832,-0.41234477549049803
4.200999999999738,0.11185167702925557,-0.44783694870880886
4.400999999999804,0.08482108743575285,-0.467449902890635
4.600999999999871,0.05581593255078491,-0.4742999527788035
4.800999999999938,0.006630443477208073,-0.4626937536258811
5.000000000000004,-0.03882626592394625,-0.4522411758252751
5.200000000000071,-0.07820059679121677,-0.4382562078614562
5.400000000000138,-0.11948053938429568,-0.43240567201457997
5.600000000000205,-0.16270865422696493,-0.42428569657615944
5.800000000000272,-0.20167656376882417,-0.4156377570203434
6.000000000000338,-0.24605207646457058,-0.39693538924074157
6.200000000000405,-0.2943630928795811,-0.37968553802004174
6.400000000000472,-0.3527132981231125,-0.3610727318449337
6.600000000000539,-0.4122107281514996,-0.34362775613804697
6.800000000000606,-0.4677545948067339,-0.32770775642816385
7.000000000000672,-0.5094345828803811,-0.3174567490000597
7.200000000000739,-0.5574917773875464,-0.3102163792019475
7.400000000000806,-0.6012850338880764,-0.3045441640069748
7.600000000000873,-0.6454262437002578,-0.29367660233405857
7.8000000000009395,-0.6864048524544594,-0.285209889742357
8.000000000001005,-0.7371138526469799,-0.2729865939176112
8.200000000000895,-0.7866546196053039,-0.2693268615071928
8.400000000000784,-0.8344858794806069,-0.2609586584557862
8.600000000000673,-0.8966918523396094,-0.24349080940887233
8.800000000000562,-0.9614794449787053,-0.2237504333001346
9.000000000000451,-1.0239127055370738,-0.2028203287417566
9.20000000000034,-1.0902702600805259,-0.1774672046300947
9.40000000000023,-1.1559915158264267,-0.15753768744114233
9.600000000000119,-1.222360400790503,-0.13953307501677292
9.800000000000008,-1.284969412853844,-0.12090317467399238
10.000999999999896,-1.3443813834706473,-0.10609298573315074
10.200999999999786,-1.3993555293787385,-0.09452387785577775
10.400999999999675,-1.4577937732390427,-0.0812190526834446
10.600999999999564,-1.523568633367863,-0.06361515752746585
10.800999999999453,-1.5843228230101687,-0.048970563217899624
11.000999999999342,-1.6577158649798278,-0.025677944244311517
11.200999999999231,-1.7384520150622724,0.011168949768665535
11.40099999999912,-1.8145300182387782,0.04858685124573389
11.60099999999901,-1.8891120564324242,0.08312435984819908
11.800999999998899,-1.9610545260235996,0.11434334206604994
12.000999999998788,-2.028437447338456,0.15299372130853553
12.200999999998677,-2.0796005807597093,0.21093947988478898
12.400999999998566,-2.1103062769754777,0.2569204972507623
12.600999999998455,-2.1233797527614073,0.29714320185512955
12.800999999998345,-2.1233250729002915,0.34392038602232905
13.000999999998234,-2.1206594739695728,0.39423829332694654
13.200999999998123,-2.1125956479523285,0.45003130248112133
13.400999999998012,-2.10273674583684,0.5089147433004082
13.600999999997901,-2.086058382532427,0.567100522335101
13.80099999999779,-2.069192838267899,0.6308865037606416
14.00099999999768,-2.049041068750849,0.6942662318960618
14.200999999997569,-2.0265974440108603,0.7596059366821376
14.400999999997458,-1.9986944695992779,0.8238900531531645
14.600999999997347,-1.9637392051661866,0.879430850720495
14.800999999997236,-1.9101542779177434,0.9150808580011981
15.000999999997125,-1.861842310063894,0.9316053558339805
15.200999999997014,-1.8116095892469302,0.9334101818965125
15.400999999996904,-1.7515640335727525,0.9252285959471254
15.600999999996793,-1.6838194615695103,0.9096576743479533
15.800999999996682,-1.614142518500214,0.8868238286242307
16.000999999996573,-1.5542342637541835,0.8516650660529345
16.200999999996817,-1.5143275183682516,0.8145425847921363
16.40099999999706,-1.4911618511704252,0.7702734449183021
16.600999999997306,-1.492412005810944,0.7095296204249946
16.80099999999755,-1.5236801012373047,0.6337436576262921
17.000999999997795,-1.5640846299564823,0.5591149017003866
17.20099999999804,-1.5991761279942667,0.48279997700541005
17.400999999998284,-1.627101315980189,0.40653414418648776
17.60099999999853,-1.6553716690481335,0.32694020230799725
17.800999999998773,-1.7094567413718966,0.2527702090686108
18.000999999999017,-1.7664983640291727,0.19474987637382518
18.20099999999926,-1.8194190275649635,0.15655156562053513
18.400999999999506,-1.8755311032723074,0.138187592176622
18.60099999999975,-1.9433189298274647,0.13598342592488696
18.799999999999994,-2.006265896244046,0.13991364232158685
19.000000000000238,-2.0758543599697523,0.15168959005163402
19.200000000000482,-2.1521199420761987,0.16783469512640567
19.400000000000727,-2.220321113975562,0.18639343450010476
19.60000000000097,-2.291957209105245,0.2115442202659352
19.800000000001216,-2.36110498459312,0.24223751488263864
20.00000000000146,-2.4347906013997966,0.27426670785626395
