Time (s),X (m),Y (m)
0.001,-0.0005732996449108882,0.0002669654388657892
0.20000000000000015,0.0018016013762797128,-0.0006074801369050152
0.4000000000000003,0.008313837973208537,-0.0031344560875923976
0.6000000000000004,0.013027928701328491,-0.008016726133627009
0.8000000000000006,0.01568650401352057,-0.014431320847466027
1.0000000000000007,0.027099250825670877,-0.019794175586945174
1.2009999999999785,0.04014566729795955,-0.026906519749063468
1.4009999999999565,0.06398934155254783,-0.03711048861153042
1.6009999999999345,0.084814220701839,-0.044200078362037605
1.8009999999999124,0.09134929507560406,-0.044329334729460566
2.0009999999998906,0.09952248103301914,-0.05036654092446223
2.2009999999998686,0.12050028990672691,-0.07177984616506548
2.4009999999998466,0.1448655884992573,-0.1024489209443041
2.6009999999998246,0.1698845235130089,-0.13110566979754834
2.8009999999998025,0.18926342344213215,-0.15705521300817984
3.0009999999997805,0.2043576800146433,-0.1760276403661512
3.2009999999997585,0.2130108721983517,-0.19658523106907405
3.4009999999997365,0.2176884032675792,-0.23018844346614029
3.6009999999997144,0.2211841683952882,-0.2675289008011587
3.8009999999996924,0.22505533586889132,-0.30095695147469437
4.000999999999671,0.2310699635872752,-0.3191667061671347
4.200999999999738,0.22736396383989402,-0.3414086737258308
4.400999999999804,0.22351601250029268,-0.3523310944886985
4.600999999999871,0.21728523975922107,-0.36454292763397045
4.800999999999938,0.20397093803933308,-0.3795719082295552
5.000000000000004,0.19357112888777028,-0.4045142021795813
5.200000000000071,0.1861098679021119,-0.42477546291488344
5.400000000000138,0.1846041624496371,-0.43843273380536313
5.600000000000205,0.1795758070733389,-0.4517769207159616
5.800000000000272,0.1692483389077101,-0.4758936094721125
6.000000000000338,0.1498105579244751,-0.5172551274128354
6.200000000000405,0.12467998837043448,-0.5581941439190473
6.400000000000472,0.10742444898342648,-0.5929954235593755
6.600000000000539,0.0945319182028457,-0.619685654030352
6.800000000000606,0.08886540950858168,-0.6470583293829143
7.000000000000672,0.08184307461146417,-0.6753847882958248
7.200000000000739,0.07393653178958011,-0.7042933304747914
7.400000000000806,0.06952752560547032,-0.7258498007614914
7.600000000000873,0.05782566329690605,-0.7573292487051159
7.8000000000009395,0.04184859680265879,-0.7923343526708609
8.000000000001005,0.029684919571001722,-0.8289383011605118
8.200000000000895,0.013147817318818027,-0.8661295933720103
8.400000000000784,-0.009861201454424378,-0.9123018689189225
8.600000000000673,-0.03256897980564038,-0.9519629548296833
8.800000000000562,-0.05983035467016675,-0.9835969651237274
9.000000000000451,-0.08618027416962386,-1.000068740342196
9.20000000000034,-0.1093733279373268,-1.0079114500436002
9.40000000000023,-0.1387307193067319,-1.0113349679930612
9.600000000000119,-0.1760657120948639,-1.0001905426304043
9.800000000000008,-0.21131758362346376,-0.9865630620362446
10.000999999999896,-0.2591556026178992,-0.957665654847313
10.200999999999786,-0.30007945673288644,-0.9386504895903129
10.400999999999675,-0.33441195415992897,-0.925131828300523
10.600999999999564,-0.3665793353960462,-0.9109256472331562
10.800999999999453,-0.40329152729901735,-0.878552154300706
11.000999999999342,-0.4257481654149559,-0.8337097901756347
11.200999999999231,-0.4351325415369028,-0.8039918660929121
11.40099999999912,-0.43763171936061435,-0.7665253151883709
11.60099999999901,-0.4376691048914167,-0.7399337550654906
11.800999999998899,-0.43029626842501734,-0.7186691982058828
12.000999999998788,-0.41164247239700047,-0.6848657927597755
12.200999999998677,-0.4029824775601504,-0.6569897104773134
12.400999999998566,-0.3822030831417312,-0.6076935503278104
12.600999999998455,-0.36160036198443046,-0.5611244740964481
12.800999999998345,-0.34022579616071225,-0.5217564550412701
13.000999999998234,-0.3260794633541379,-0.48468527703713205
13.200999999998123,-0.3167607852071705,-0.4568512274517558
13.400999999998012,-0.30902644169211685,-0.4336313402514893
13.600999999997901,-0.29521305588944063,-0.40784784240149785
13.80099999999779,-0.2855802658493816,-0.37985832967217964
14.00099999999768,-0.276073062157959,-0.34441648604538666
14.200999999997569,-0.26452415713313193,-0.31060188778633036
14.400999999997458,-0.251353975725231,-0.2828116014894864
14.600999999997347,-0.22843474883865944,-0.2491069446779435
14.800999999997236,-0.21538091314006053,-0.21860992689126935
15.000999999997125,-0.19844915885075512,-0.18797706606139855
15.200999999997014,-0.17229453181613386,-0.14544187551793245
15.400999999996904,-0.13560372026034628,-0.09523206986761215
15.600999999996793,-0.10284006774670708,-0.04252700720234458
15.800999999996682,-0.07060321118556709,-0.008756886496210106
16.000999999996573,-0.036598795651539145,-0.0025113548250143476
16.200999999996817,0.007570748971698667,-0.01495395334125551
16.40099999999706,0.05272183053394168,-0.0355545630803325
16.600999999997306,0.1034722900202632,-0.06628348289475464
16.80099999999755,0.15615403235999603,-0.10156726284184546
17.000999999997795,0.19534021125450582,-0.13767172800921196
17.20099999999804,0.21738431560926258,-0.1656175934271578
17.400999999998284,0.2318023750810841,-0.20127122746976917
17.60099999999853,0.2384617196303886,-0.2294347553019705
17.800999999998773,0.244638649349673,-0.2555159086184778
18.000999999999017,0.24790444829757008,-0.28526868895933016
18.20099999999926,0.250170103119621,-0.30020421710858414
18.400999999999506,0.25005623389925385,-0.32550364674545557
18.60099999999975,0.24691134428295883,-0.3555318031475014
18.799999999999994,0.24022538444885247,-0.3873158874114739
19.000000000000238,0.23362413989983122,-0.4078807813904754
19.200000000000482,0.2200266518103359,-0.4438366133337889
19.400000000000727,0.1987883730133633,-0.4860526979593332
19.60000000000097,0.1626167998965376,-0.5347705784348912
19.800000000001216,0.1225219764994789,-0.5776432855261144
20.00000000000146,0.0803465317752263,-0.6001272074862267
