Time (s),X (m),Y (m)
0.001,-0.0005732996449108882,-0.0002669654388657886
0.20000000000000015,0.00068947879008718,-0.00010370241414581605
0.4000000000000003,0.0012839259167502003,-5.340567258457952e-05
0.6000000000000004,0.002312229021688024,0.0002653159300864175
0.8000000000000006,0.003379569865439121,0.0007713206085255957
1.0000000000000007,0.004597719407133294,0.0014167602802239992
1.2009999999999785,0.006070320325061371,0.0020899468841066296
1.4009999999999565,0.007376760063338425,0.0026964820116573886
1.6009999999999345,0.008643637669244506,0.0032812053999979524
1.8009999999999124,0.009963058229396906,0.003910240963371199
2.0009999999998906,0.011398274631279496,0.004617679116050399
2.2009999999998686,0.012933166742273194,0.005390390675577583
2.4009999999998466,0.014526718975887358,0.006200270126237341
2.6009999999998246,0.01614639835110138,0.007034700192430234
2.8009999999998025,0.017797759548830595,0.007898037167119227
3.0009999999997805,0.019478681736468367,0.008790650334948698
3.2009999999997585,0.021203807555131845,0.009724837208826912
3.4009999999997365,0.022978372376900702,0.010699390698132211
3.6009999999997144,0.024797683401215995,0.011712027458785381
3.8009999999996924,0.026658481876128397,0.012759209165763239
4.000999999999671,0.028556706860778835,0.013839229418093894
4.200999999999738,0.03049097580486408,0.014953354720916145
4.400999999999804,0.03249935929516305,0.01609861115995569
4.600999999999871,0.03456437566509676,0.017279420225616956
4.800999999999938,0.03668919808241854,0.01845658309418539
5.000000000000004,0.03881070721383311,0.01973724340892957
5.200000000000071,0.04109119497642549,0.021067082147528983
5.400000000000138,0.04345155025513816,0.022415572672349022
5.600000000000205,0.045705168124455686,0.02379353062353443
5.800000000000272,0.04812442849966191,0.025249241271463916
6.000000000000338,0.05056918914506194,0.026761677383684027
6.200000000000405,0.05290566556449355,0.028286650769628805
6.400000000000472,0.055258954387486424,0.029851923762454432
6.600000000000539,0.05761685721751758,0.031451629529509355
6.800000000000606,0.059986327912344345,0.03308128670636726
7.000000000000672,0.06239546954703254,0.03476414042287839
7.200000000000739,0.06483716168516544,0.03650209131080109
7.400000000000806,0.06729422389749688,0.03828676218457343
7.600000000000873,0.06976135582320614,0.040114375441759775
7.8000000000009395,0.07223700013821763,0.041983417972269496
8.000000000001005,0.07472112065697381,0.04389388201894077
8.200000000000895,0.07719788575461187,0.045829628815575923
8.400000000000784,0.07954759286890357,0.04777549988204451
8.600000000000673,0.08187877302575045,0.04974508372666153
8.800000000000562,0.08442810368419085,0.05183106178409296
9.000000000000451,0.08697951326738163,0.0539557040794344
9.20000000000034,0.08919625983373353,0.05597576356098384
9.40000000000023,0.09161731277085694,0.058132654980587915
9.600000000000119,0.09387049835315218,0.060253384151459415
9.800000000000008,0.09612673870264146,0.06241582916054713
10.000999999999896,0.09840796864417736,0.06463577968600381
10.200999999999786,0.10067724272102192,0.06687591101775864
10.400999999999675,0.10296468616444494,0.06915885063296713
10.600999999999564,0.10526924726973533,0.07148466685417677
10.800999999999453,0.10758664972502177,0.07385090593086434
11.000999999999342,0.10991255540683073,0.0762577849215412
11.200999999999231,0.1122442776699283,0.07870426019293104
11.40099999999912,0.11458158724075103,0.081190684608394
11.60099999999901,0.1168188975314651,0.08361625450129716
11.800999999998899,0.11909791047982765,0.08616160478385032
12.000999999998788,0.12129788573920129,0.08868477915973959
12.200999999998677,0.12365540612177034,0.09135522461987196
12.400999999998566,0.1258347351290146,0.09390179284670118
12.600999999998455,0.12788306574203645,0.09641149705140006
12.800999999998345,0.12991706448123705,0.09894720414924373
13.000999999998234,0.13204102700286433,0.10162334835956163
13.200999999998123,0.1342884585839047,0.10443760423928809
13.400999999998012,0.13654434404524668,0.10727586419360169
13.600999999997901,0.13861031532898274,0.10998594927213458
13.80099999999779,0.1406819802258388,0.11273896626814968
14.00099999999768,0.14274215759776349,0.11552003697236383
14.200999999997569,0.14478898813992433,0.11832764411730182
14.400999999997458,0.1468265690119215,0.12116853648353684
14.600999999997347,0.14885736991696938,0.12404728892251758
14.800999999997236,0.15088082517540194,0.1269647733111884
15.000999999997125,0.15289451273756108,0.12991957072962348
15.200999999997014,0.1548951486695663,0.13291067523094563
15.400999999996904,0.15688129459306435,0.1359379713951504
15.600999999996793,0.15885057539039782,0.1389992518150901
15.800999999996682,0.16079393289769423,0.14206791283014972
16.000999999996573,0.16275223246111736,0.14525156354056312
16.200999999996817,0.164652805935398,0.1483879774966583
16.40099999999706,0.1665572741839127,0.15163206158900422
16.600999999997306,0.16842108264454844,0.15498310074752888
16.80099999999755,0.1702348274780363,0.15812228836786782
17.000999999997795,0.1720409025636808,0.16147823604883565
17.20099999999804,0.173870560174055,0.16492377652103465
17.400999999998284,0.17566180535883574,0.16843293391789813
17.60099999999853,0.17742733898783275,0.17197915320625481
17.800999999998773,0.1791544687091964,0.17555975646895325
18.000999999999017,0.1808385784466282,0.17916965393234166
18.20099999999926,0.18239920103945398,0.18267956816281689
18.400999999999506,0.18393460743024923,0.1864253334144297
18.60099999999975,0.18541826287123706,0.18989917798878897
18.799999999999994,0.18683345652413522,0.19353120139054905
19.000000000000238,0.1881991724120237,0.1973944465051531
19.200000000000482,0.1894994719355734,0.20111577562331528
19.400000000000727,0.19074118649919536,0.2049081111964698
19.60000000000097,0.19191190288411702,0.20874267798349636
19.800000000001216,0.19300673479115205,0.21261677223292477
20.00000000000146,0.1940498147068491,0.21663269652671804
