Time (s),X (m),Y (m)
0.001,0.001392298616347667,0.0003527853123316693
0.20000000000000015,0.0006037362419698721,-0.0002548295778194295
0.4000000000000003,0.0012915590108537065,-1.845319888804076e-05
0.6000000000000004,0.001948595757558914,0.00012133406592580254
0.8000000000000006,0.0025860171019709997,0.0002788375670843607
1.0000000000000007,0.003525655341833939,0.0005852927370613968
1.2009999999999785,0.004194112290272811,0.0007643807524240262
1.4009999999999565,0.004994668482770995,0.0010016358475321934
1.6009999999999345,0.005788504703958555,0.0012408232568011566
1.8009999999999124,0.006556593599216206,0.0014773546660459154
2.0009999999998906,0.007376017383466596,0.0017467292679385845
2.2009999999998686,0.008231114666478639,0.002039273796471992
2.4009999999998466,0.009095194801072602,0.0023392228069702755
2.6009999999998246,0.009970767839911774,0.002647414541968745
2.8009999999998025,0.01086091140495881,0.0029661776725918524
3.0009999999997805,0.01176661034393268,0.0032960513109606335
3.2009999999997585,0.01268901878388487,0.003637037423561423
3.4009999999997365,0.01362865216065353,0.0039898591750598495
3.6009999999997144,0.014583753962930773,0.004353391477132377
3.8009999999996924,0.015553026831733352,0.004726826290825044
4.000999999999671,0.01653746876743633,0.0051132431944985535
4.200999999999738,0.017537347146837124,0.0055130897122818165
4.400999999999804,0.018552458863067767,0.005926736631822164
4.600999999999871,0.01958217994790919,0.0063542593752009095
4.800999999999938,0.020625546316423583,0.006795876104563531
5.000000000000004,0.021677908496125546,0.007248424433642108
5.200000000000071,0.022747748669023137,0.007717265454540926
5.400000000000138,0.023830266063444034,0.008199288481609257
5.600000000000205,0.02492529715657623,0.008694524238728121
5.800000000000272,0.02603265919311969,0.00920287270929026
6.000000000000338,0.0271522676726069,0.009724253126101675
6.200000000000405,0.02828411977883673,0.010258783563436352
6.400000000000472,0.029428142256768933,0.010806258943091533
6.600000000000539,0.030584157093596243,0.011366471271512713
6.800000000000606,0.03175213789702411,0.011939280094416253
7.000000000000672,0.03293213213878532,0.012524784492048097
7.200000000000739,0.034124063096627535,0.013122891816042977
7.400000000000806,0.03532798129770662,0.013733639248401834
7.600000000000873,0.03654374361363214,0.014356988169017136
7.8000000000009395,0.03777129311743182,0.014993115985967451
8.000000000001005,0.03901047222160567,0.015641930642318645
8.200000000000895,0.04026114692682116,0.0163033719148193
8.400000000000784,0.04152329057075046,0.01697740639343046
8.600000000000673,0.04279692592676728,0.017664226515581524
8.800000000000562,0.04408207124561031,0.01836391752730114
9.000000000000451,0.04537866919010239,0.019076456429735024
9.20000000000034,0.046686792086337456,0.019801861546994967
9.40000000000023,0.048006377582367914,0.020540226583032124
9.600000000000119,0.049337330713863974,0.021291578588655404
9.800000000000008,0.05067964720422606,0.0220561355682376
10.000999999999896,0.052036960238978476,0.02283753320656931
10.200999999999786,0.05340182554580758,0.02362887972461714
10.400999999999675,0.05477788722602409,0.02443366395598829
10.600999999999564,0.05616510434273949,0.025251934494722395
10.800999999999453,0.05756340226304201,0.02608376009394973
11.000999999999342,0.058972726231748915,0.026929252167013376
11.200999999999231,0.06039313708021412,0.02778872529624944
11.40099999999912,0.06182462015842145,0.02866229949542436
11.60099999999901,0.06326714781603572,0.029550074692589228
11.800999999998899,0.06472071618307394,0.03045222772208669
12.000999999998788,0.06618524049628388,0.03136886878419167
12.200999999998677,0.06766064407357372,0.032300114068315164
12.400999999998566,0.06914690538168435,0.033246204955326805
12.600999999998455,0.07064404389818839,0.03420730399589407
12.800999999998345,0.07222974238849299,0.03523738372340967
13.000999999998234,0.07384743010671858,0.03629038404176077
13.200999999998123,0.07548235709803609,0.03736438867214645
13.400999999998012,0.07712185555519296,0.038453999348887644
13.600999999997901,0.0788537623131621,0.039613374201325456
13.80099999999779,0.0806237744711704,0.040807228580849716
14.00099999999768,0.08240163768271495,0.04201295207237737
14.200999999997569,0.0842398747357397,0.04326216175576605
14.400999999997458,0.08610032623524227,0.04455902225837603
14.600999999997347,0.08801093963998043,0.04589297586129036
14.800999999997236,0.08992073472670205,0.04724203640722856
15.000999999997125,0.09184198558035044,0.04862368843568766
15.200999999997014,0.09379451100986606,0.05003768527835331
15.400999999996904,0.0957447681004309,0.05146866448843621
15.600999999996793,0.09770697427056553,0.052942066246129
15.800999999996682,0.09967537203305345,0.05443644103588292
16.000999999996573,0.10168586956643696,0.055964660330935036
16.200999999996817,0.10369277448466444,0.05750961811066215
16.40099999999706,0.1057073146942206,0.05908297478504285
16.600999999997306,0.10774819702191937,0.06068499561415996
16.80099999999755,0.10974529104149836,0.06228572040505753
17.000999999997795,0.11177785088452515,0.06394821383392864
17.20099999999804,0.1138279567659248,0.06563165764017259
17.400999999998284,0.11588208675142009,0.06733633857828478
17.60099999999853,0.11798040371214367,0.06908127857702415
17.800999999998773,0.1200370830260698,0.07081998650074355
18.000999999999017,0.12210454069555308,0.07260276965508325
18.20099999999926,0.1241785094941306,0.074411595400318
18.400999999999506,0.12627127801543667,0.07625495113990476
18.60099999999975,0.12837170449673088,0.07812736500273489
18.799999999999994,0.13047230577596705,0.08001826871240432
19.000000000000238,0.1325638586376743,0.08193201987808714
19.200000000000482,0.13467157665781626,0.08387821333346926
19.400000000000727,0.13675360925336866,0.08584258039909158
19.60000000000097,0.1388550552974735,0.08784400651158923
19.800000000001216,0.1409635288329828,0.08987472641186937
20.00000000000146,0.14308012680590906,0.09193429050081964
