Time (s),X (m),Y (m)
0.001,-0.00023999057263828476,-0.0007901558823345064
0.20000000000000015,0.002365592740678322,0.001196760767559235
0.4000000000000003,0.0029558756952782995,0.001923402820684701
0.6000000000000004,0.008716564621900676,0.0035957070639227083
0.8000000000000006,0.018206355205192874,0.003025990773676498
1.0000000000000007,0.02810479356258832,0.0022367883501947664
1.2009999999999785,0.04095148814652817,0.00610161511819085
1.4009999999999565,0.05660593541024165,0.014018918275765953
1.6009999999999345,0.07733087410776193,0.02676889188984844
1.8009999999999124,0.1018322867432752,0.041936144985861935
2.0009999999998906,0.1267013913388158,0.05502841710385663
2.2009999999998686,0.1473375493719019,0.07027955611385588
2.4009999999998466,0.1667869848521449,0.10393809004536815
2.6009999999998246,0.18683969567602937,0.1409733725970193
2.8009999999998025,0.20710743896737893,0.15408385645067188
3.0009999999997805,0.22802236467184794,0.1705648779589094
3.2009999999997585,0.25279158520490597,0.1791332090201944
3.4009999999997365,0.270898424520011,0.19022414812403965
3.6009999999997144,0.2851353829825594,0.19327455549878503
3.8009999999996924,0.3138429984052073,0.2167956976379716
4.000999999999671,0.3507612561322131,0.23994115378869063
4.200999999999738,0.39724515921117437,0.26842444138991356
4.400999999999804,0.45207408612234645,0.2982091333414616
4.600999999999871,0.5014239267922094,0.3220390902824672
4.800999999999938,0.5551820242116429,0.35523212444490604
5.000000000000004,0.6125877055158977,0.40390135079225914
5.200000000000071,0.6688828994220867,0.4438880813284697
5.400000000000138,0.72167573277606,0.4767673424567338
5.600000000000205,0.7751561825453344,0.5016128836374941
5.800000000000272,0.8385255678086188,0.5200307621215907
6.000000000000338,0.9033738636609225,0.5237717990627206
6.200000000000405,0.9480655496107327,0.5136022730288732
6.400000000000472,0.9789813124815406,0.49269254116088623
6.600000000000539,1.000451898510516,0.46148238800717534
6.800000000000606,1.0298540891112868,0.4234276704762516
7.000000000000672,1.0651771502605663,0.3825190924630886
7.200000000000739,1.1080176250333267,0.3306017495086013
7.400000000000806,1.145928454002154,0.273914961125239
7.600000000000873,1.187302073801311,0.21172906365349498
7.8000000000009395,1.2231962531619913,0.14701275217501378
8.000000000001005,1.2600797602796299,0.07381683711310782
8.200000000000895,1.2930678357110414,-0.0013727166688353128
8.400000000000784,1.3160629643087753,-0.0738683370145218
8.600000000000673,1.318660005017238,-0.1361392474631573
8.800000000000562,1.2949883807430176,-0.18386415135016324
9.000000000000451,1.255788312114332,-0.23022149689449925
9.20000000000034,1.207456126371759,-0.2654637087289095
9.40000000000023,1.1501464415221256,-0.3007841724289283
9.600000000000119,1.0867532941519868,-0.3420266905597693
9.800000000000008,1.027807985314673,-0.37904594464701963
10.000999999999896,0.9671761399087867,-0.4048904462992867
10.200999999999786,0.9128926901219288,-0.4072438362831321
10.400999999999675,0.8754344268233286,-0.38361490374080176
10.600999999999564,0.8466780724324194,-0.3442779775014002
10.800999999999453,0.8248833418055349,-0.2935371635354414
11.000999999999342,0.8019143553599839,-0.23079665464283144
11.200999999999231,0.7929898399636366,-0.17986789688916774
11.40099999999912,0.8031037509215478,-0.15991914284710376
11.60099999999901,0.8294468727195589,-0.13363499395099945
11.800999999998899,0.8656677097335634,-0.10491291930101793
12.000999999998788,0.9094050942023783,-0.06396141868876741
12.200999999998677,0.9569248949027414,-0.020886473680311747
12.400999999998566,1.000676118149765,0.010866302183913096
12.600999999998455,1.0380870221223366,0.05300397806722257
12.800999999998345,1.0651348384052852,0.10389229560237623
13.000999999998234,1.0837651428757658,0.15808844692925927
13.200999999998123,1.0955760745082863,0.22552964581813184
13.400999999998012,1.1086574393992688,0.29171772424085035
13.600999999997901,1.1288504025009656,0.35007118359441497
13.80099999999779,1.1680656271856373,0.3998916644626391
14.00099999999768,1.2169931673267662,0.443876224891861
14.200999999997569,1.2653767173234343,0.48479108852978464
14.400999999997458,1.3146559373175926,0.5362758529604769
14.600999999997347,1.3648817129073965,0.5842840091308884
14.800999999997236,1.419771750659369,0.64395462880329
15.000999999997125,1.4796941502943568,0.6919389046371954
15.200999999997014,1.5485321794900089,0.746580983510322
15.400999999996904,1.6248403523541148,0.8017657952375019
15.600999999996793,1.689292289326878,0.841766219354414
15.800999999996682,1.754661153621517,0.8706987283437118
16.000999999996573,1.7923751324169874,0.8707220255791694
16.200999999996817,1.8223791336713668,0.842679408355817
16.40099999999706,1.8762392138166006,0.8012543183867471
16.600999999997306,1.9357245956092783,0.754653717561285
16.80099999999755,1.9938549265451726,0.7052604586444291
17.000999999997795,2.041128012255535,0.6512967285673622
17.20099999999804,2.1074603616427536,0.5936665924334249
17.400999999998284,2.1599089198734887,0.5320130060110028
17.60099999999853,2.2137478003812814,0.4610271310658779
17.800999999998773,2.269164291272824,0.37823061963245763
18.000999999999017,2.3214058099855004,0.29557378820287566
18.20099999999926,2.378415562738524,0.2111935784718267
18.400999999999506,2.4318318644535295,0.1272500810475692
18.60099999999975,2.4912184115557836,0.04299137237402091
18.799999999999994,2.5363834305390185,-0.03618379216287004
19.000000000000238,2.5772964384585366,-0.11813973679015195
19.200000000000482,2.628847402499435,-0.20335330478166763
19.400000000000727,2.675950992123041,-0.29815555037436337
19.60000000000097,2.7158072799506363,-0.3964680974797056
19.800000000001216,2.7474888903553683,-0.4930509543095496
20.00000000000146,2.767290919318834,-0.581520301297633
