Time (s),X (m),Y (m)
0.001,-0.00042190612164786544,-0.0005916298972236683
0.20000000000000015,0.0026167549657677117,0.0011364547552605634
0.4000000000000003,0.00627429012218664,-0.0014935877870954327
0.6000000000000004,0.015654364461506587,-0.0024515726781229423
0.8000000000000006,0.03354176245548048,0.0017893391646886846
1.0000000000000007,0.04062299179824516,0.009331583738752052
1.2009999999999785,0.05372253393293245,0.016799426286247303
1.4009999999999565,0.07649600931033801,0.018811761488617924
1.6009999999999345,0.10631106249498369,0.007273776478130442
1.8009999999999124,0.1329610365948444,-0.012473830833311956
2.0009999999998906,0.17249841333147337,-0.03976506491660126
2.2009999999998686,0.20799131229027473,-0.07005133672198093
2.4009999999998466,0.2373038210780716,-0.1029172157374754
2.6009999999998246,0.25616495132990574,-0.12954686052371922
2.8009999999998025,0.2734424949217066,-0.1554800418940413
3.0009999999997805,0.2848630796369201,-0.18007109717980982
3.2009999999997585,0.300845422552535,-0.20872986454958
3.4009999999997365,0.3253548356736231,-0.2423528473132017
3.6009999999997144,0.3591465709420184,-0.28345615803631663
3.8009999999996924,0.39640565118493937,-0.32635958524105585
4.000999999999671,0.4321726954523626,-0.3703864841131414
4.200999999999738,0.4743694874275628,-0.4150688600461994
4.400999999999804,0.5278416472661255,-0.45169593329635455
4.600999999999871,0.5922776533205085,-0.48940776340471803
4.800999999999938,0.6505652972594533,-0.532071708334098
5.000000000000004,0.6970112820678086,-0.576677592719033
5.200000000000071,0.7396491000129057,-0.6224490007978705
5.400000000000138,0.7834496021340401,-0.6771653834653393
5.600000000000205,0.8282920218220067,-0.7359967989209587
5.800000000000272,0.8671007660578833,-0.8103818973372157
6.000000000000338,0.8854366205751323,-0.876983133542148
6.200000000000405,0.8800052493268713,-0.9334328555084386
6.400000000000472,0.8623079347707532,-0.9782118730987545
6.600000000000539,0.8349180473174276,-1.0162892980040004
6.800000000000606,0.7967494166891189,-1.062964405974746
7.000000000000672,0.7517582235553649,-1.1190060784971922
7.200000000000739,0.6988814143404937,-1.1758311885426393
7.400000000000806,0.6446295252942141,-1.220977018118762
7.600000000000873,0.5917828620201493,-1.264832677711715
7.8000000000009395,0.5409316708502007,-1.3093805363509816
8.000000000001005,0.4900496670528592,-1.355983685518892
8.200000000000895,0.44635960552323567,-1.4086742344600538
8.400000000000784,0.4059420261067608,-1.4643419008519427
8.600000000000673,0.3684154471187272,-1.5202354130270381
8.800000000000562,0.32857055822991627,-1.5693163506001284
9.000000000000451,0.28245422793886693,-1.6265263564107113
9.20000000000034,0.2264539831162339,-1.6875633865946689
9.40000000000023,0.16109149644725693,-1.7602793260213727
9.600000000000119,0.08884254444091019,-1.8279561831420479
9.800000000000008,0.013885012537318055,-1.8829854157219557
10.000999999999896,-0.06873617495063271,-1.9360053028182496
10.200999999999786,-0.14675681271403343,-1.9846208462511048
10.400999999999675,-0.2167484740193878,-2.0301135256717138
10.600999999999564,-0.28410280601910154,-2.0705071945658617
10.800999999999453,-0.3570466980697725,-2.106199337371358
11.000999999999342,-0.42983034307617146,-2.1333560690531983
11.200999999999231,-0.503842517415661,-2.1405315767388595
11.40099999999912,-0.5653024670791906,-2.1211138131424847
11.60099999999901,-0.6207221254596567,-2.087774435356723
11.800999999998899,-0.683822319688557,-2.0391801921591672
12.000999999998788,-0.7562850795203985,-1.9817741127708592
12.200999999998677,-0.8183142244719438,-1.9216647706117793
12.400999999998566,-0.8605787480901992,-1.8637388433532525
12.600999999998455,-0.8845909102765039,-1.8081810009014698
12.800999999998345,-0.905246697551163,-1.7619459051932203
13.000999999998234,-0.9486245731041283,-1.7182787947438505
13.200999999998123,-0.9948168796792595,-1.681335330340206
13.400999999998012,-1.0555020036513878,-1.6538435010464925
13.600999999997901,-1.1326490880880267,-1.6443997293846733
13.80099999999779,-1.2080187623856034,-1.628546562983985
14.00099999999768,-1.2834202826803331,-1.586219787417343
14.200999999997569,-1.3509628688224504,-1.521257940552789
14.400999999997458,-1.409324165245711,-1.448337548791901
14.600999999997347,-1.442647337233743,-1.3730482383946443
14.800999999997236,-1.437595371183693,-1.3086060283595031
15.000999999997125,-1.403779873363613,-1.2551393509570108
15.200999999997014,-1.3510872317623315,-1.2083894746469181
15.400999999996904,-1.2896552800417063,-1.170861025858744
15.600999999996793,-1.2219111606933082,-1.155852295060418
15.800999999996682,-1.153231139374353,-1.158812577109607
16.000999999996573,-1.0960455198374457,-1.182463542714686
16.200999999996817,-1.044077661591119,-1.2165327634789935
16.40099999999706,-0.9936158325472899,-1.2637650329960317
16.600999999997306,-0.9477066729105841,-1.3264795691324351
16.80099999999755,-0.9110831253951323,-1.3893644638162073
17.000999999997795,-0.8873433294468688,-1.4545099536096073
17.20099999999804,-0.8758293264441092,-1.5184382184113665
17.400999999998284,-0.880833170453247,-1.5723697339322449
17.60099999999853,-0.9071079160607181,-1.620347454006029
17.800999999998773,-0.9501888694827583,-1.6661110855745496
18.000999999999017,-0.996360950623667,-1.703712104579974
18.20099999999926,-1.0442037564090199,-1.726828265996853
18.400999999999506,-1.0933246162509431,-1.73419040704473
18.60099999999975,-1.1349753364996609,-1.7265992636300749
18.799999999999994,-1.1650429726720684,-1.7135225855206841
19.000000000000238,-1.1994844221078393,-1.6962411141978677
19.200000000000482,-1.2326069761756904,-1.6796839149637508
19.400000000000727,-1.282233059724947,-1.6716061241698927
19.60000000000097,-1.3380842407849332,-1.6703471351090309
19.800000000001216,-1.405115821423172,-1.6671004207432178
20.00000000000146,-1.4815407633209359,-1.6615343813640595
