Time (s),X (m),Y (m)
0.001,-0.00016860096042250976,0.000844935058449024
0.20000000000000015,0.0016393703584924066,-0.0011970952986690162
0.4000000000000003,0.0033176032288976137,0.003217919881693483
0.6000000000000004,0.00035408917817026286,0.024211284590455125
0.8000000000000006,0.002012365436982549,0.029272068540560536
1.0000000000000007,0.017187227907085666,0.01963024170053635
1.2009999999999785,0.035283738808965584,0.010288790667993585
1.4009999999999565,0.05069197764654487,0.014390041634158397
1.6009999999999345,0.06839676308967761,0.014000795153307412
1.8009999999999124,0.07794435649586103,0.019596738830738616
2.0009999999998906,0.08992387683635099,0.027483816485276168
2.2009999999998686,0.1124562044486406,0.03052113485641959
2.4009999999998466,0.13170199287937726,0.02697740326747219
2.6009999999998246,0.1520246116702072,0.026807685811885387
2.8009999999998025,0.167671549188179,0.028547039447193355
3.0009999999997805,0.17266442774050764,0.03442384841070507
3.2009999999997585,0.18850914341306033,0.04012485107538439
3.4009999999997365,0.21048649576051717,0.04710498830172088
3.6009999999997144,0.2333499121177995,0.05213365021897292
3.8009999999996924,0.24855655150222936,0.06071246167456757
4.000999999999671,0.2661406830352873,0.06393197907913764
4.200999999999738,0.28152665438956975,0.06965499072970657
4.400999999999804,0.308905036603537,0.06873815210428129
4.600999999999871,0.333289470461097,0.07353826752485045
4.800999999999938,0.3559212676911163,0.08235249890370093
5.000000000000004,0.37590841625032434,0.0936682652087716
5.200000000000071,0.40515030950091135,0.10015975281864443
5.400000000000138,0.4294218499393784,0.10442111563488463
5.600000000000205,0.4507475715101371,0.11232997831705184
5.800000000000272,0.4723598597997081,0.1263485447262325
6.000000000000338,0.49713980136245417,0.13748786631474963
6.200000000000405,0.5328406999365799,0.14587614242945734
6.400000000000472,0.5613501227591756,0.15483868658318486
6.600000000000539,0.5733323553778056,0.16734163687192125
6.800000000000606,0.5854845923649646,0.17619098916675574
7.000000000000672,0.5965058542761673,0.1899270600079762
7.200000000000739,0.6106928478472192,0.20364822278265313
7.400000000000806,0.6291774750211011,0.2184870815089754
7.600000000000873,0.6415481355594806,0.23337806175160614
7.8000000000009395,0.6592487347407155,0.2507319848616748
8.000000000001005,0.6937216746942865,0.26319141507051635
8.200000000000895,0.734680432630507,0.2726136279536279
8.400000000000784,0.7760307331304167,0.2785198948340364
8.600000000000673,0.8195520820809398,0.28305264157337445
8.800000000000562,0.8661900480874369,0.2908138389983647
9.000000000000451,0.9134791142413261,0.2954296088901476
9.20000000000034,0.9649370536080922,0.29337924542532484
9.40000000000023,1.0149864108246494,0.29339701939025337
9.600000000000119,1.06282655785618,0.2924052059169195
9.800000000000008,1.1092589627495826,0.29515115703429823
10.000999999999896,1.1404062730696691,0.30133423420638344
10.200999999999786,1.1604360864208019,0.312471308929238
10.400999999999675,1.1944486570952613,0.3252213691407053
10.600999999999564,1.2304631908148622,0.34069387289191133
10.800999999999453,1.271164617245375,0.3492358666389788
11.000999999999342,1.3093456985852288,0.3537794806205075
11.200999999999231,1.3443853275745226,0.35755147530305575
11.40099999999912,1.36555495624365,0.3656713674506427
11.60099999999901,1.4082536468181632,0.3704812894821109
11.800999999998899,1.442978190516144,0.37471958143489026
12.000999999998788,1.4715903956753382,0.3823434739514279
12.200999999998677,1.510560275843215,0.38873863186395763
12.400999999998566,1.5502046026260676,0.39399815481061007
12.600999999998455,1.5827340793170586,0.3972794046746575
12.800999999998345,1.626939068715862,0.40261814742772223
13.000999999998234,1.6665711432207218,0.4094088130641275
13.200999999998123,1.6990951556302176,0.4176305540290432
13.400999999998012,1.7275187818689621,0.428676410792582
13.600999999997901,1.760106997609309,0.4353484798196207
13.80099999999779,1.8012034748707366,0.4391503611159594
14.00099999999768,1.8279706766251613,0.4549492268987255
14.200999999997569,1.8561265395622357,0.4698439838306601
14.400999999997458,1.8865300852743736,0.4748568080101295
14.600999999997347,1.9185760958065292,0.4814642504023053
14.800999999997236,1.950985221506023,0.4879196196802273
15.000999999997125,1.9841517839523692,0.49495370424711643
15.200999999997014,2.019351455572194,0.498909670275156
15.400999999996904,2.0604944676668033,0.5050130345922007
15.600999999996793,2.0912731186134637,0.5152578330160344
15.800999999996682,2.117446248384389,0.5266977189735258
16.000999999996573,2.134265335310808,0.541544447654597
16.200999999996817,2.1554346603522156,0.556876165020088
16.40099999999706,2.186363192541476,0.5732373945163703
16.600999999997306,2.221123148014597,0.5867101194936049
16.80099999999755,2.2391917448013974,0.6036476782232477
17.000999999997795,2.2642842838621076,0.6227850028834484
17.20099999999804,2.2802162983004104,0.6421905861428843
17.400999999998284,2.306610023242549,0.6596324141963917
17.60099999999853,2.3411476844997745,0.6802760200368674
17.800999999998773,2.3780239990731036,0.6986229581032367
18.000999999999017,2.4028526274516944,0.7138626119422952
18.20099999999926,2.430600471676271,0.727243160112762
18.400999999999506,2.455421368614678,0.7415532352821532
18.60099999999975,2.477215322516118,0.7526996777289089
18.799999999999994,2.497280678924253,0.7631965023251349
19.000000000000238,2.5290854492323946,0.7751732306517417
19.200000000000482,2.5622364647135476,0.7899825687340258
19.400000000000727,2.5930495455293325,0.8040020546083539
19.60000000000097,2.629777451148277,0.815137805362894
19.800000000001216,2.6690600395765847,0.8196436697656633
20.00000000000146,2.7320268793898155,0.8165929880495084
