Time (s),X (m),Y (m)
0.001,-0.00030633420604510037,-0.000729363142846258
0.20000000000000015,0.0008369095495567389,-7.96167710007913e-06
0.4000000000000003,0.0019664912111772015,0.00034216936721004955
0.6000000000000004,0.003201482876481293,-0.00040101155849600395
0.8000000000000006,0.007188180222557937,0.00025709884304981674
1.0000000000000007,0.01113232431911719,0.0008341529500042686
1.2009999999999785,0.016364025512322876,0.002703369607005473
1.4009999999999565,0.023757215274450093,0.005723330856394207
1.6009999999999345,0.030766326169839087,0.010758121447525101
1.8009999999999124,0.0384245216490831,0.013632478846751367
2.0009999999998906,0.04662754779247181,0.020682960073608647
2.2009999999998686,0.05335160763524204,0.02441334360437917
2.4009999999998466,0.05906613662420773,0.02549773901335898
2.6009999999998246,0.06487584910853808,0.02790876428499047
2.8009999999998025,0.07096282116012834,0.031576348066194346
3.0009999999997805,0.07748503657488595,0.03798585527749923
3.2009999999997585,0.08305429658762918,0.04295885150139801
3.4009999999997365,0.08924073837354747,0.04844189129121267
3.6009999999997144,0.09472535131187752,0.05321713507020338
3.8009999999996924,0.09866948258163907,0.05826221665710073
4.000999999999671,0.10389466375620553,0.06516906286708032
4.200999999999738,0.10830227198573357,0.07135694139294273
4.400999999999804,0.11252043540673716,0.07691472877851119
4.600999999999871,0.11494116051918186,0.08544611241664085
4.800999999999938,0.11736348120108303,0.09163030900595771
5.000000000000004,0.12156456084965986,0.09589189026574667
5.200000000000071,0.12522636615931462,0.10162210078453476
5.400000000000138,0.12737237979807292,0.108606412653172
5.600000000000205,0.12881066629490148,0.11528239009184009
5.800000000000272,0.13224899436626575,0.12013130570472184
6.000000000000338,0.1351295397376896,0.1268291156903419
6.200000000000405,0.13618519521729228,0.13406398348990511
6.400000000000472,0.13590149928471582,0.14384809682204514
6.600000000000539,0.1356067552839562,0.15426396442156373
6.800000000000606,0.13207910194663977,0.16491691343653528
7.000000000000672,0.1306242022718667,0.17514445773636825
7.200000000000739,0.12923668804140281,0.18389285765755928
7.400000000000806,0.12843110586447903,0.18938749983164999
7.600000000000873,0.12652443293391843,0.19664758520154013
7.8000000000009395,0.1218664425409627,0.2058773372631522
8.000000000001005,0.12207182694955966,0.21232083690231301
8.200000000000895,0.11718939366617684,0.2216749785882728
8.400000000000784,0.11132823714863903,0.23107466771288868
8.600000000000673,0.10421305780599092,0.2399135121017206
8.800000000000562,0.10012953027230116,0.249520996108441
9.000000000000451,0.09246660711549635,0.2583543263952858
9.20000000000034,0.08734762694110974,0.26693359254884363
9.40000000000023,0.07668053280522692,0.27645828797671973
9.600000000000119,0.07219892277638029,0.2836390844503547
9.800000000000008,0.06616160893685419,0.2944105405010556
10.000999999999896,0.056770806204500514,0.3018074565101315
10.200999999999786,0.04812171777171566,0.3077954400370579
10.400999999999675,0.042418343627841464,0.3130551683272224
10.600999999999564,0.03380319667619365,0.3178903882171815
10.800999999999453,0.02564552505934048,0.3222894037756308
11.000999999999342,0.01498084107778413,0.3255388272968206
11.200999999999231,0.010694127016114482,0.32930252256204395
11.40099999999912,0.00490954086620889,0.3303132896714222
11.60099999999901,-0.005494037150650038,0.3316094862490274
11.800999999998899,-0.011015270330510404,0.33166071665017705
12.000999999998788,-0.021768753807120247,0.33243879086674066
12.200999999998677,-0.02767896442384331,0.3339260336858281
12.400999999998566,-0.03427703213745987,0.33584569661970154
12.600999999998455,-0.04451003426831988,0.33571224369407043
12.800999999998345,-0.05399695668991556,0.33413581792692704
13.000999999998234,-0.062332881777674036,0.33400541285319424
13.200999999998123,-0.07101033156451023,0.3314206885880564
13.400999999998012,-0.08377483581900079,0.3269186390535977
13.600999999997901,-0.09308292141482562,0.3254347659830565
13.80099999999779,-0.10262019148700556,0.32017359032960613
14.00099999999768,-0.1123261938113407,0.3169764090398569
14.200999999997569,-0.12385112848077416,0.3120821359341967
14.400999999997458,-0.13573636330377514,0.30452615149160744
14.600999999997347,-0.14582573500038346,0.30057795953794403
14.800999999997236,-0.15749565735123072,0.2908716728072403
15.000999999997125,-0.16743546282743274,0.28400143534918976
15.200999999997014,-0.17674977434888384,0.27918126685712946
15.400999999996904,-0.18668044393544092,0.26959945697793175
15.600999999996793,-0.19692329898067637,0.262988836378037
15.800999999996682,-0.20529154756621512,0.2589853918851455
16.000999999996573,-0.21028374047096263,0.25284760659670485
16.200999999996817,-0.21912184588838526,0.2489535258928673
16.40099999999706,-0.2251697101530791,0.2446286181227341
16.600999999997306,-0.234097115769706,0.2384702623644894
16.80099999999755,-0.24169439894261313,0.23260241659892572
17.000999999997795,-0.24484557770070908,0.2254747456321616
17.20099999999804,-0.2491805487026694,0.21958490530988065
17.400999999998284,-0.24937700499929577,0.21031467056153613
17.60099999999853,-0.2481475977544476,0.19799241863338726
17.800999999998773,-0.2465234195986181,0.18841080030437135
18.000999999999017,-0.24474195327766488,0.17773287879282623
18.20099999999926,-0.24359466909162075,0.16928646098630065
18.400999999999506,-0.2433831788574175,0.1635295834200152
18.60099999999975,-0.24185983427847174,0.15144111105171537
18.799999999999994,-0.23740811996728667,0.13917817487950776
19.000000000000238,-0.23317731080485216,0.12828849969043984
19.200000000000482,-0.2233126842365412,0.11527333735004629
19.400000000000727,-0.2187023585891736,0.10658012984139249
19.60000000000097,-0.21473029002011135,0.09711881936444952
19.800000000001216,-0.2082684647235004,0.08576065542222495
20.00000000000146,-0.20415843455478014,0.07402430085915085
