Time (s),X (m),Y (m)
0.001,-0.00016860096042250976,0.000844935058449024
0.20000000000000015,0.0009252064215970331,-0.0004509249684094465
0.4000000000000003,0.001225439041517242,-0.00014604885264778327
0.6000000000000004,0.001735164778780533,-0.000381263269923323
0.8000000000000006,0.002434700078868377,-0.0009512076880165784
1.0000000000000007,0.0030516357475296094,-0.0012793788439569567
1.2009999999999785,0.0036677942141073376,-0.001613331954076112
1.4009999999999565,0.0043275719495838565,-0.002088105923055043
1.6009999999999345,0.005018127253661804,-0.0026492840042626484
1.8009999999999124,0.005723140038090449,-0.0032157008934382996
2.0009999999998906,0.0064422484760492645,-0.0037687650433803873
2.2009999999998686,0.007179766111572676,-0.004332448157252018
2.4009999999998466,0.00793552688075999,-0.004924059499511389
2.6009999999998246,0.008710347367565261,-0.005550677096112829
2.8009999999998025,0.009504303170788351,-0.006208636021548299
3.0009999999997805,0.010316396437998553,-0.006890046851568486
3.2009999999997585,0.011144696603444701,-0.007589614298701214
3.4009999999997365,0.01198966384614804,-0.008306060354241368
3.6009999999997144,0.012850639193147051,-0.00903902484486225
3.8009999999996924,0.013727943915641845,-0.009789181412658542
4.000999999999671,0.014620348788799873,-0.010556062646098324
4.200999999999738,0.01552601913002608,-0.011337074019306476
4.400999999999804,0.01644437029316076,-0.01213029529086631
4.600999999999871,0.01737534294227993,-0.012934789137245278
4.800999999999938,0.018318932959832064,-0.013749524501196904
5.000000000000004,0.01928362358002684,-0.014592915202312498
5.200000000000071,0.020252052679489298,-0.015425593069832422
5.400000000000138,0.021233115101406283,-0.016265271605230187
5.600000000000205,0.022227028185535205,-0.017110726857075566
5.800000000000272,0.023233738062996903,-0.0179615915338058
6.000000000000338,0.024253150484371093,-0.018817552881315095
6.200000000000405,0.025285144406616087,-0.019678392925727903
6.400000000000472,0.02632965921321628,-0.020543874857914913
6.600000000000539,0.027386928601419367,-0.021413759865945417
6.800000000000606,0.02845690099572229,-0.02228794682740224
7.000000000000672,0.029539642907831426,-0.023166270117273246
7.200000000000739,0.030635007647816865,-0.024048447616720047
7.400000000000806,0.03174286790843112,-0.024934342973517633
7.600000000000873,0.03286322230676156,-0.02582355452463628
7.8000000000009395,0.03399631353011046,-0.026716090175877727
8.000000000001005,0.035142043578395545,-0.02761211779353486
8.200000000000895,0.03630016337236302,-0.02851157061783545
8.400000000000784,0.03747057013226661,-0.029414354588755163
8.600000000000673,0.038653156126101866,-0.030320277386673034
8.800000000000562,0.03984816528570845,-0.031229261283592692
9.000000000000451,0.041055587880222726,-0.03214125151919822
9.20000000000034,0.0422754255015806,-0.03305597549574128
9.40000000000023,0.04350802253734576,-0.0339731288510546
9.600000000000119,0.0447532321819866,-0.03489239050716423
9.800000000000008,0.04601085139007796,-0.035813577372994364
10.000999999999896,0.047269874731599985,-0.03672121874068053
10.200999999999786,0.04855182163464452,-0.037645540967996834
10.400999999999675,0.04984575221205981,-0.03857082941022987
10.600999999999564,0.051151502752427726,-0.03949674865145116
10.800999999999453,0.05246880978272445,-0.04042307280454895
11.000999999999342,0.053797473931218434,-0.04134953052638482
11.200999999999231,0.0551375352718883,-0.04227593316079218
11.40099999999912,0.0564889010066609,-0.04320197410149208
11.60099999999901,0.05785131644054782,-0.044127390567863016
11.800999999998899,0.05922450344249532,-0.04505200386015413
12.000999999998788,0.060608375449314175,-0.045975656436700554
12.200999999998677,0.06200287799462822,-0.0468981017158518
12.400999999998566,0.06340826815228941,-0.047818999464687886
12.600999999998455,0.06482455705827637,-0.048738136301181414
12.800999999998345,0.06625161245549174,-0.049655221598526346
13.000999999998234,0.06768920384340121,-0.050569954198034325
13.200999999998123,0.06913709964703849,-0.05148206842148823
13.400999999998012,0.07059505357930948,-0.052391419950256764
13.600999999997901,0.07207994568090735,-0.053364630665387276
13.80099999999779,0.07360749257782459,-0.05434916220686069
14.00099999999768,0.07514238866884054,-0.05533491985358994
14.200999999997569,0.07667471969302649,-0.056311107740411696
14.400999999997458,0.0782131043599851,-0.057346971582738646
14.600999999997347,0.07981022420654453,-0.058380894020043685
14.800999999997236,0.08141504310188408,-0.05941450793513649
15.000999999997125,0.08306366826574733,-0.060458605215532694
15.200999999997014,0.0846519492203274,-0.061464654405909536
15.400999999996904,0.08630735824136608,-0.06252421997510374
15.600999999996793,0.08799743076748115,-0.06358863524829612
15.800999999996682,0.08973466514704437,-0.0646606865132152
16.000999999996573,0.09147336582267011,-0.06571477755032928
16.200999999996817,0.09324485254533893,-0.06676463085493313
16.40099999999706,0.09504331578216005,-0.06780521522256638
16.600999999997306,0.09683335259968044,-0.06882119893232587
16.80099999999755,0.09862969793600501,-0.06982353269619064
17.000999999997795,0.10040566776838948,-0.07081100326508097
17.20099999999804,0.10219959221858137,-0.07177529538733993
17.400999999998284,0.10401330858472246,-0.07271759062248889
17.60099999999853,0.10584754405713823,-0.07365430488899932
17.800999999998773,0.1076551695739252,-0.07455902948390428
18.000999999999017,0.10948930102284546,-0.07545529293674626
18.20099999999926,0.11132640709323101,-0.07633116388180317
18.400999999999506,0.11316491400842871,-0.0771866948066433
18.60099999999975,0.11503406922865554,-0.07802519473265832
18.799999999999994,0.1169365294316663,-0.07886029426984886
19.000000000000238,0.11873664816058951,-0.07962491471391688
19.200000000000482,0.1205706889745652,-0.0803943248647089
19.400000000000727,0.12240219694085153,-0.08114003130668919
19.60000000000097,0.1242316684769771,-0.08186189610776619
19.800000000001216,0.1260608309276939,-0.08256010557196276
20.00000000000146,0.12801155673051529,-0.0832649662567512
