Time (s),X (m),Y (m)
0.001,-0.00042190612164786544,-0.0005916298972236683
0.20000000000000015,0.0021867241802495116,0.0012611569733955185
0.4000000000000003,0.003755355874996062,0.0020674495997120095
0.6000000000000004,0.005486388399682618,0.006078889134334055
0.8000000000000006,-0.00048204004664888526,0.010063814200742097
1.0000000000000007,0.01534747102595787,0.00845323939301985
1.2009999999999785,0.038855159570248154,0.002185747424836464
1.4009999999999565,0.0536799452967187,-0.008016318548788865
1.6009999999999345,0.07602449754655378,-0.024829632680125977
1.8009999999999124,0.10193449754462029,-0.049320317015098925
2.0009999999998906,0.12609107865845134,-0.0784609200199331
2.2009999999998686,0.15085893909517706,-0.10834129706017866
2.4009999999998466,0.18447919858158862,-0.1480664846559943
2.6009999999998246,0.22049482047318397,-0.1874549813553504
2.8009999999998025,0.24947826296388856,-0.2210911583903279
3.0009999999997805,0.27260951255532195,-0.24696509464073188
3.2009999999997585,0.27497491032166255,-0.2700340018320918
3.4009999999997365,0.25897706401156245,-0.30325362783289495
3.6009999999997144,0.23536969328225835,-0.33639900481514706
3.8009999999996924,0.2003871832347883,-0.37366549420682305
4.000999999999671,0.16179970552796497,-0.41036744404348974
4.200999999999738,0.12184461778073748,-0.4517152929617864
4.400999999999804,0.07971666661570648,-0.48690089888201715
4.600999999999871,0.03668548891892094,-0.518368630247861
4.800999999999938,-0.006965877070691086,-0.5517695922240744
5.000000000000004,-0.05317980951394053,-0.5927985752662723
5.200000000000071,-0.10428206892377043,-0.6336772471357889
5.400000000000138,-0.1521467370882785,-0.6657332021310052
5.600000000000205,-0.20288273070339266,-0.6980634833149578
5.800000000000272,-0.25572762221951006,-0.7339392361625072
6.000000000000338,-0.30786437610172845,-0.771541981290604
6.200000000000405,-0.36246962603564953,-0.8156814611033446
6.400000000000472,-0.42198974029662534,-0.8633865399418819
6.600000000000539,-0.48001430324545125,-0.9052917971576001
6.800000000000606,-0.5386533339258216,-0.9427534477030544
7.000000000000672,-0.6076400046086081,-0.9780874762445402
7.200000000000739,-0.6714483416727358,-1.0076672005874205
7.400000000000806,-0.7267669429686399,-1.0238037138122689
7.600000000000873,-0.7689256408727181,-1.014178085263421
7.8000000000009395,-0.8061314432119396,-0.9851899447374123
8.000000000001005,-0.8370341618003236,-0.9470655596330919
8.200000000000895,-0.8702480188689131,-0.9041741173960052
8.400000000000784,-0.9073046297932509,-0.8589671301099248
8.600000000000673,-0.9405469077569758,-0.811144296716368
8.800000000000562,-0.97232301300405,-0.7608439869357592
9.000000000000451,-1.0119895657820757,-0.7026996533531372
9.20000000000034,-1.0631870952607503,-0.6317368057784224
9.40000000000023,-1.1135097756582584,-0.5575377821678573
9.600000000000119,-1.1524072355038009,-0.4843118227509112
9.800000000000008,-1.172092837183619,-0.4188028484487959
10.000999999999896,-1.177001996985099,-0.3615905628375768
10.200999999999786,-1.1583678922018676,-0.30620443188107016
10.400999999999675,-1.1244213381796764,-0.24842418846052225
10.600999999999564,-1.0772020167032696,-0.19410377343674415
10.800999999999453,-1.0163601603595167,-0.13569104715905553
11.000999999999342,-0.9476528144719243,-0.07367827881492897
11.200999999999231,-0.876122479476432,-0.012143327905492145
11.40099999999912,-0.8129108637048297,0.03933612983698613
11.60099999999901,-0.7403738134089825,0.07923189815087142
11.800999999998899,-0.6648074135394548,0.10862353599523411
12.000999999998788,-0.5885244133785666,0.12608677072199828
12.200999999998677,-0.528486080758872,0.13316551938458557
12.400999999998566,-0.47012840734906197,0.12788872536515172
12.600999999998455,-0.41714502861380515,0.09840654642500382
12.800999999998345,-0.3666574003791808,0.050162833549252765
13.000999999998234,-0.32128956768319916,-0.011957187605758392
13.200999999998123,-0.27980791616876144,-0.07850698588635459
13.400999999998012,-0.24766437144808257,-0.15457367579815187
13.600999999997901,-0.25038530233546086,-0.23261883393637842
13.80099999999779,-0.2793374937975014,-0.29670628902565604
14.00099999999768,-0.3201818320254302,-0.3469219354190845
14.200999999997569,-0.3696721322140153,-0.39603293237651227
14.400999999997458,-0.43380559883094094,-0.4458367738106089
14.600999999997347,-0.49867702024317706,-0.4939043475694301
14.800999999997236,-0.5650795566525555,-0.5457027353956013
15.000999999997125,-0.6275381434293135,-0.5916355247312307
15.200999999997014,-0.6816563659790589,-0.6301412638555296
15.400999999996904,-0.7345900983625687,-0.6705596735796016
15.600999999996793,-0.7806767670689901,-0.7207073496114115
15.800999999996682,-0.8235838637873759,-0.7794256616797046
16.000999999996573,-0.8663674876426724,-0.8428908005918403
16.200999999996817,-0.9104910723908333,-0.8997890786348356
16.40099999999706,-0.9654743301077338,-0.9478805966698511
16.600999999997306,-1.0311872670544144,-0.9977782234759403
16.80099999999755,-1.1006182292713218,-1.0494474048890416
17.000999999997795,-1.1726660639769815,-1.1154881646058716
17.20099999999804,-1.2507709368855107,-1.1932594956247113
17.400999999998284,-1.32887810926146,-1.262351780842124
17.60099999999853,-1.4055098659766538,-1.330367322852349
17.800999999998773,-1.4809753862926711,-1.3936269815832016
18.000999999999017,-1.5549405305329014,-1.4443563470687262
18.20099999999926,-1.628558922116656,-1.4981019011716616
18.400999999999506,-1.7013859156278528,-1.560648220452115
18.60099999999975,-1.7744947632166892,-1.6182060258620075
18.799999999999994,-1.844618625467621,-1.6666633621414368
19.000000000000238,-1.9191535967579196,-1.725372466679055
19.200000000000482,-1.9962372754430044,-1.7759564699112333
19.400000000000727,-2.0762139899002694,-1.8295560414397323
19.60000000000097,-2.1631414851042465,-1.889742549665733
19.800000000001216,-2.2543866000851747,-1.9437059566430974
20.00000000000146,-2.344967632653002,-1.9799749390878758
