Time (s),X (m),Y (m)
0.001,0.00033312994539159724,0.0010275501737767782
0.20000000000000015,0.0008594197971275548,-9.999044135241518e-05
0.4000000000000003,0.0016060812737696774,-0.0001502316673197263
0.6000000000000004,0.0031295108826822605,-0.00188836644995123
0.8000000000000006,0.006346740916134009,-0.0003449635850648485
1.0000000000000007,0.009032039942518916,0.0010366015161103453
1.2009999999999785,0.01350144385038464,0.0005541484628999518
1.4009999999999565,0.01663110107110857,0.0021050843510830365
1.6009999999999345,0.01945751311399534,0.004453699059687033
1.8009999999999124,0.021309430422668366,0.00911893843907988
2.0009999999998906,0.02630397114050101,0.01340505953326753
2.2009999999998686,0.031644021432947644,0.013543212994963338
2.4009999999998466,0.035918196898750976,0.013623676413506076
2.6009999999998246,0.04035904180418457,0.01619097640187265
2.8009999999998025,0.04516360972331635,0.01978915486945868
3.0009999999997805,0.05002413845228859,0.025548974626994236
3.2009999999997585,0.05396492224913249,0.02890936099417507
3.4009999999997365,0.06050504467526147,0.02913820513502582
3.6009999999997144,0.06945004111488941,0.027427661525354072
3.8009999999996924,0.07606485987736472,0.032100578935836746
4.000999999999671,0.08498649702550831,0.030912448957510653
4.200999999999738,0.09134148467993751,0.03415824220677624
4.400999999999804,0.09802176675739764,0.03693287977950521
4.600999999999871,0.10592386496925757,0.03719772816273346
4.800999999999938,0.1150783002107307,0.041762152448001945
5.000000000000004,0.12328671564908021,0.044942002780644176
5.200000000000071,0.13009301217804448,0.04928100383409374
5.400000000000138,0.14018417086401766,0.05070872419348259
5.600000000000205,0.1507295105026111,0.052464061873269165
5.800000000000272,0.15867969425304548,0.05538373896778692
6.000000000000338,0.16676526896247093,0.0623230727373261
6.200000000000405,0.17688865589356784,0.06413953435979408
6.400000000000472,0.18478232648609916,0.06796961698146398
6.600000000000539,0.19076524391464986,0.06956062752366256
6.800000000000606,0.19983504041717898,0.07145918159111021
7.000000000000672,0.2071660837837712,0.07470090265802506
7.200000000000739,0.21462905821504014,0.07787907689107151
7.400000000000806,0.22432264436541233,0.07779389336521618
7.600000000000873,0.23485100915552737,0.07806899282489813
7.8000000000009395,0.24559191086036025,0.0786669388901063
8.000000000001005,0.25583509729207043,0.07964387975620396
8.200000000000895,0.26639376908727586,0.07926309388760519
8.400000000000784,0.27511941961366704,0.07894161201837335
8.600000000000673,0.2823233121752991,0.0829379169931967
8.800000000000562,0.28860920745811497,0.08607178747243303
9.000000000000451,0.2956534734861381,0.08980777303187626
9.20000000000034,0.3031193695924966,0.08939954012660695
9.40000000000023,0.31324771361618575,0.08989377064122753
9.600000000000119,0.32283619976898487,0.09468872795721689
9.800000000000008,0.3330659196068699,0.0990074157212611
10.000999999999896,0.34518107317200725,0.10560643293454766
10.200999999999786,0.3580580974358865,0.10749434261314339
10.400999999999675,0.368912222403863,0.10108251874697097
10.600999999999564,0.3758619881973644,0.09964012882508175
10.800999999999453,0.3840050003324135,0.10153329427361871
11.000999999999342,0.395854548824347,0.10283103487279466
11.200999999999231,0.4072979998364279,0.10665291972710204
11.40099999999912,0.41987735920109687,0.1070172862833427
11.60099999999901,0.43145178445510435,0.11081652020287105
11.800999999998899,0.44270390572717905,0.11217739896315537
12.000999999998788,0.4545904539273144,0.11648750152330098
12.200999999998677,0.4654774547613064,0.12011065628912926
12.400999999998566,0.47638296734166397,0.12171442000728037
12.600999999998455,0.48662742755808025,0.12231390420486009
12.800999999998345,0.500871959804524,0.119961499309313
13.000999999998234,0.5133382995700417,0.12244980357441779
13.200999999998123,0.5237524860160047,0.12315871523162336
13.400999999998012,0.5316553790472517,0.12154205049112315
13.600999999997901,0.5390358087375958,0.11595481584914216
13.80099999999779,0.5458143615563934,0.1145631613582885
14.00099999999768,0.5545370784308854,0.11598622104845067
14.200999999997569,0.5650717001822132,0.11616676647811332
14.400999999997458,0.5762218339163174,0.11698702988094553
14.600999999997347,0.5893993878948848,0.11506375874919773
14.800999999997236,0.6010218034568913,0.11088764591499364
15.000999999997125,0.6132692639200091,0.11526101904279865
15.200999999997014,0.6217194793383656,0.11259525548039913
15.400999999996904,0.6312665247819655,0.11219768449074022
15.600999999996793,0.6410917189569296,0.1098719373421412
15.800999999996682,0.6527238881619029,0.10992545098261153
16.000999999996573,0.6624669655717741,0.11032633205767478
16.200999999996817,0.6719632180113835,0.10825174905865925
16.40099999999706,0.6817025960656166,0.10658393404998993
16.600999999997306,0.6917878143641254,0.10328833987052527
16.80099999999755,0.7018470232967857,0.10590490452710861
17.000999999997795,0.7121726577170103,0.10274899913184912
17.20099999999804,0.7197909450189085,0.09711452192518194
17.400999999998284,0.7230145337318172,0.093925116363762
17.60099999999853,0.7309180864196356,0.09165110602668769
17.800999999998773,0.7379457801291922,0.08986968474645943
18.000999999999017,0.7471152215595328,0.08536054377169397
18.20099999999926,0.7541249774161282,0.07876775200359071
18.400999999999506,0.7589247199992621,0.07271710084825242
18.60099999999975,0.7623137902419539,0.06972278536202745
18.799999999999994,0.7706230905235365,0.07029894760602495
19.000000000000238,0.77896131585721,0.0693427035783705
19.200000000000482,0.7870413190903999,0.06389009830770855
19.400000000000727,0.7961384402889259,0.06438257275647577
19.60000000000097,0.8028416013357961,0.06318269208610298
19.800000000001216,0.8088350392201915,0.06383251063324169
20.00000000000146,0.818347766372629,0.06147347429191546
