Time (s),X (m),Y (m)
0.001,0.0014505791105779379,-8.989899140956135e-05
0.20000000000000015,0.0005810022169900146,0.0001907670768964314
0.4000000000000003,0.0029810778169813592,-0.0008117196281457242
0.6000000000000004,0.00414543250378564,-0.0015644017109067352
0.8000000000000006,0.015210285976945095,-0.005614112402031633
1.0000000000000007,0.042798663485036796,-0.012047160138269572
1.2009999999999785,0.06548263254807195,-0.019982591731987485
1.4009999999999565,0.09184790895021355,-0.028252290840625024
1.6009999999999345,0.11767027176203874,-0.041253995242444684
1.8009999999999124,0.1495219475854264,-0.05529383102893873
2.0009999999998906,0.186319057707913,-0.07142688590063517
2.2009999999998686,0.21508840773602855,-0.08618186894352713
2.4009999999998466,0.24705551782439888,-0.1070299922969254
2.6009999999998246,0.27424205752125985,-0.1270390863692525
2.8009999999998025,0.3047612721622881,-0.14898092847011946
3.0009999999997805,0.3437276705721249,-0.17670651053673694
3.2009999999997585,0.3830291010919769,-0.20839652275872841
3.4009999999997365,0.42417238751516617,-0.24236985750847306
3.6009999999997144,0.45547434129377645,-0.2801971345302785
3.8009999999996924,0.4718057253751829,-0.31337596441531557
4.000999999999671,0.4691859632032086,-0.35177692682691336
4.200999999999738,0.45723015061404143,-0.3989388772486
4.400999999999804,0.43412789476058766,-0.45216032256776073
4.600999999999871,0.41298246296485247,-0.4997122384846936
4.800999999999938,0.3785447755204363,-0.5600696023446249
5.000000000000004,0.33951070816645007,-0.6209125560695614
5.200000000000071,0.3052534800318479,-0.677131290972175
5.400000000000138,0.26921618990634916,-0.7212970529928818
5.600000000000205,0.22776023880327742,-0.7388556837610051
5.800000000000272,0.17754124782924358,-0.7356884380851808
6.000000000000338,0.1311744761460835,-0.7197712201824278
6.200000000000405,0.08518623564875569,-0.6926826963004873
6.400000000000472,0.050013416542410365,-0.6534682600875241
6.600000000000539,0.035405399107220674,-0.6110551606608955
6.800000000000606,0.038134451265401895,-0.5643634437444729
7.000000000000672,0.05510411741681511,-0.5166437095738209
7.200000000000739,0.08096110482932219,-0.469161122461867
7.400000000000806,0.11337393106444406,-0.4263599272733206
7.600000000000873,0.15780109707510426,-0.3834143893640287
7.8000000000009395,0.21159108757174597,-0.35612760475744
8.000000000001005,0.2609828592727507,-0.3474806370827135
8.200000000000895,0.304362700145516,-0.3558799172471378
8.400000000000784,0.34442393163443125,-0.37489830098345256
8.600000000000673,0.392191662245848,-0.40096961177896745
8.800000000000562,0.4390507446867814,-0.4280313468424715
9.000000000000451,0.4908850934056591,-0.45716913028573497
9.20000000000034,0.5491487877373807,-0.488648470747991
9.40000000000023,0.6079096339158497,-0.5240509930060865
9.600000000000119,0.671812295233671,-0.5708833951957528
9.800000000000008,0.7326247424967078,-0.6202898827788295
10.000999999999896,0.7760795471128207,-0.6760223086785611
10.200999999999786,0.789801749281166,-0.7335472258626479
10.400999999999675,0.7795757431182072,-0.7934067582432741
10.600999999999564,0.7554533459144716,-0.8596001462202371
10.800999999999453,0.7206290879775622,-0.9244881377263806
11.000999999999342,0.6767088674949329,-0.9879257367897537
11.200999999999231,0.6281959471721005,-1.050217174595026
11.40099999999912,0.5678737887372888,-1.1093283340206077
11.60099999999901,0.5046665829375769,-1.1477107372322655
11.800999999998899,0.4525843167861755,-1.159265184015034
12.000999999998788,0.3973181510872464,-1.1485989232994194
12.200999999998677,0.33547205809680936,-1.1224215589889084
12.400999999998566,0.2708477339133375,-1.0836943075891607
12.600999999998455,0.2079842077316456,-1.031156327331765
12.800999999998345,0.17047774748364902,-0.9733013651053365
13.000999999998234,0.17063225339786406,-0.9153862816979305
13.200999999998123,0.1902471687546981,-0.8565936007278313
13.400999999998012,0.21454631797521004,-0.798606837018041
13.600999999997901,0.24874607005974703,-0.7362361741845741
13.80099999999779,0.2822905870350825,-0.6794809941733669
14.00099999999768,0.32078477636637415,-0.6178215637604588
14.200999999997569,0.35859486278867164,-0.5573808504333116
14.400999999997458,0.39300407805776255,-0.500230027368853
14.600999999997347,0.43825835821671005,-0.4433566626460029
14.800999999997236,0.49313279243464075,-0.3854005848190432
15.000999999997125,0.5581876770225817,-0.3394076054534602
15.200999999997014,0.6208531274976757,-0.31912245363561254
15.400999999996904,0.6855659202167498,-0.3248894439162771
15.600999999996793,0.7500210163593446,-0.34882883098704953
15.800999999996682,0.8111353065462219,-0.37992065540495257
16.000999999996573,0.8701735161838875,-0.41576553807134076
16.200999999996817,0.9118474458930798,-0.45438703834627103
16.40099999999706,0.9258326805980226,-0.49626290167337367
16.600999999997306,0.9152852657155236,-0.5481474092446799
16.80099999999755,0.8961499131110395,-0.6056066790761226
17.000999999997795,0.8688665806552069,-0.6584298910651047
17.20099999999804,0.8428852284804998,-0.6965218649718488
17.400999999998284,0.801277971081137,-0.716148158214532
17.60099999999853,0.7463343613575809,-0.7052804863838189
17.800999999998773,0.6912401110913033,-0.6808323912614499
18.000999999999017,0.637412000227372,-0.6531775938504724
18.20099999999926,0.5932880664252536,-0.6115234203023578
18.400999999999506,0.5689105168497695,-0.5643899784741612
18.60099999999975,0.565868801886955,-0.5107094853242544
18.799999999999994,0.5750728949213718,-0.4586499921281495
19.000000000000238,0.5928742458455992,-0.40190209264754356
19.200000000000482,0.621770648397812,-0.3382944644298368
19.400000000000727,0.6557149917972762,-0.26873434746822156
19.60000000000097,0.6884999462823593,-0.20635155610143652
19.800000000001216,0.7247164023736811,-0.14264652862224933
20.00000000000146,0.7634266594072658,-0.08351615427434611
