Time (s),X (m),Y (m)
0.001,0.0005129279282107199,-0.0010275501737767782
0.20000000000000015,0.0018543411617070018,0.0009413485703737502
0.4000000000000003,0.007368698367878339,0.0010123917877367255
0.6000000000000004,0.017690221127384137,0.0025304559886928386
0.8000000000000006,0.0386654709166503,0.016474955352997856
1.0000000000000007,0.06853733206173933,0.03124453639606725
1.2009999999999785,0.10247293193903163,0.03330952583872506
1.4009999999999565,0.1383460498753704,0.03192976652843998
1.6009999999999345,0.16466490489822605,0.018967062861595937
1.8009999999999124,0.18657293598559288,-0.002898156454022693
2.0009999999998906,0.19053768289259948,-0.021776361473522826
2.2009999999998686,0.18312153304054926,-0.040843813088414706
2.4009999999998466,0.16184486106851007,-0.05460963288780072
2.6009999999998246,0.1308820096029532,-0.06452344348461954
2.8009999999998025,0.08922829131584907,-0.0632666135082927
3.0009999999997805,0.05463956843725393,-0.054111437762594465
3.2009999999997585,0.03085460084288404,-0.03670709100969328
3.4009999999997365,0.015516622770448185,-0.012205058867861043
3.6009999999997144,-0.011636074030754904,0.023464791915212512
3.8009999999996924,-0.041297396753309,0.06494231134973007
4.000999999999671,-0.06764647341141403,0.10803454036637276
4.200999999999738,-0.08476394935097809,0.154552013884844
4.400999999999804,-0.08147309019046685,0.16860586644984618
4.600999999999871,-0.0620972152594751,0.17477649349329713
4.800999999999938,-0.03759215754632707,0.18837856032961614
5.000000000000004,-0.002278313176977769,0.19838528498719324
5.200000000000071,0.03840447733611737,0.20212648739778025
5.400000000000138,0.08825297036767919,0.18781763861388553
5.600000000000205,0.14031207421348266,0.1564570339976995
5.800000000000272,0.1719705232228484,0.11544029039298057
6.000000000000338,0.18602282664679543,0.06820173428643259
6.200000000000405,0.17965207760774407,0.03765099178539908
6.400000000000472,0.15955507684480785,0.023482892720588903
6.600000000000539,0.12914855291168112,0.014539801357369101
6.800000000000606,0.09144995478311657,0.013860099598979901
7.000000000000672,0.06699986181624158,0.034775255522953324
7.200000000000739,0.06155467739009314,0.06869580083860279
7.400000000000806,0.06387506420237939,0.10951256078703393
7.600000000000873,0.06693815720453214,0.15351301766008477
7.8000000000009395,0.08316705184730712,0.172225546246816
8.000000000001005,0.1151505022640499,0.16691106857750931
8.200000000000895,0.15392894370827845,0.16288362985497365
8.400000000000784,0.19413036793013638,0.1753058000252902
8.600000000000673,0.23700216767040402,0.19704423873843127
8.800000000000562,0.2955419377872861,0.22726472827801245
9.000000000000451,0.36185620705830507,0.2473950389088751
9.20000000000034,0.41052528660569154,0.2473065468765936
9.40000000000023,0.4284334524125284,0.23297269410663776
9.600000000000119,0.43351027815589294,0.21754508385057506
9.800000000000008,0.42081688861833455,0.21389995588871846
10.000999999999896,0.40217438799934635,0.2309601819568379
10.200999999999786,0.3746705546347595,0.24952259452671138
10.400999999999675,0.34063555322666683,0.2704518838769877
10.600999999999564,0.304101796091065,0.2965944546520128
10.800999999999453,0.25566778890093483,0.30844147709359626
11.000999999999342,0.18952184918092152,0.3188515242442188
11.200999999999231,0.134226957058918,0.3421035909770428
11.40099999999912,0.09600542872346413,0.378083318368369
11.60099999999901,0.06667589490086827,0.42763810557442106
11.800999999998899,0.04885402006946653,0.48621189959117084
12.000999999998788,0.04601945459829939,0.5434554800199802
12.200999999998677,0.057735606675039505,0.5821305508287449
12.400999999998566,0.08967040975679548,0.6033387890712515
12.600999999998455,0.11638070952508447,0.6097090670773757
12.800999999998345,0.11624828507652657,0.6029378472921595
13.000999999998234,0.10527085284026788,0.5774032432369692
13.200999999998123,0.08243620725815187,0.5513141200123406
13.400999999998012,0.05362672949774985,0.5433565972966615
13.600999999997901,0.01773580625005924,0.5445773922547439
13.80099999999779,-0.02292734099640927,0.5534008653547619
14.00099999999768,-0.06276194176514566,0.5734744736725018
14.200999999997569,-0.10566679075609872,0.6044112440551979
14.400999999997458,-0.12734699996722543,0.6452248900953512
14.600999999997347,-0.14143083606795517,0.6961037138914604
14.800999999997236,-0.1473101351157185,0.7503415130676134
15.000999999997125,-0.14180054670354994,0.8057583966884206
15.200999999997014,-0.12885808239866,0.8526633203022026
15.400999999996904,-0.10316443606451484,0.8907937128176268
15.600999999996793,-0.06767289865367722,0.9280914607648086
15.800999999996682,-0.01598088267801152,0.9644661082461276
16.000999999996573,0.040779101552167914,0.9805103603111319
16.200999999996817,0.10592787451864863,0.9909169017809628
16.40099999999706,0.15943868232146366,0.9885496652684614
16.600999999997306,0.1846446797210749,0.9647629075032353
16.80099999999755,0.18715157927156956,0.9404648510566135
17.000999999997795,0.17447840188736718,0.914362144987464
17.20099999999804,0.16145704249309364,0.8843314168379907
17.400999999998284,0.13693831344221327,0.8602573253488233
17.60099999999853,0.0996755633649507,0.8342966157518503
17.800999999998773,0.040341388810811195,0.8143166813125091
18.000999999999017,-0.03332089141407624,0.8055753695753732
18.20099999999926,-0.08448172698628875,0.8108274961774203
18.400999999999506,-0.09950645723096514,0.8234086459111606
18.60099999999975,-0.10303217634817972,0.8425279402889503
18.799999999999994,-0.1031127395369334,0.8798418490441354
19.000000000000238,-0.09236925731906342,0.9026676017550183
19.200000000000482,-0.06624592812856041,0.907904097750693
19.400000000000727,-0.03548111602570825,0.906350338907316
19.60000000000097,-0.014271755867813452,0.8908806842179549
19.800000000001216,0.0017316851695261023,0.867985175038353
20.00000000000146,0.01403301585179148,0.8317478265778703
