Time (s),X (m),Y (m)
0.001,0.00024391513958915793,0.0010158048217711127
0.20000000000000015,0.0013249527980485874,-0.0008190348886094303
0.4000000000000003,0.00439170917431544,-0.008537121736855809
0.6000000000000004,0.013874971266796984,-0.007402152365497973
0.8000000000000006,0.023174344578090658,-0.02134926927723968
1.0000000000000007,0.038430280265812425,-0.0410442333797744
1.2009999999999785,0.055950966389721586,-0.06552713022804442
1.4009999999999565,0.08384442348282535,-0.09150600315452447
1.6009999999999345,0.101494179889447,-0.11542358252993903
1.8009999999999124,0.09928001703333048,-0.13032872860090655
2.0009999999998906,0.08576355013349868,-0.13448684613024944
2.2009999999998686,0.06720354368646009,-0.12733836697265893
2.4009999999998466,0.050897096027718115,-0.10906015297144539
2.6009999999998246,0.051516154387505994,-0.08589228333722228
2.8009999999998025,0.061541462498836144,-0.0650925219147544
3.0009999999997805,0.07495323383438832,-0.041282731816907337
3.2009999999997585,0.09474462482906056,-0.03265746446173731
3.4009999999997365,0.11900801702801368,-0.033863818047655314
3.6009999999997144,0.12655483942300583,-0.04604763592900834
3.8009999999996924,0.1080334240836257,-0.060252440455833674
4.000999999999671,0.08237450767233946,-0.07961011858210926
4.200999999999738,0.04852062138505293,-0.10563507647246051
4.400999999999804,0.020137393391432456,-0.13508971341872336
4.600999999999871,-0.001695983434315501,-0.17751585390255994
4.800999999999938,-0.02434839309497036,-0.21333924874929075
5.000000000000004,-0.06300475034804023,-0.22835682773080437
5.200000000000071,-0.10357528070483403,-0.22403893130406852
5.400000000000138,-0.14064812068453697,-0.20337629622909748
5.600000000000205,-0.1742933095092455,-0.17921018419721627
5.800000000000272,-0.21409271685558617,-0.14846258255648037
6.000000000000338,-0.25125211477380865,-0.10754450987086737
6.200000000000405,-0.26290561500028464,-0.0617907860388699
6.400000000000472,-0.2526113398655743,-0.016747550019953476
6.600000000000539,-0.23910961540771755,0.03241268362961578
6.800000000000606,-0.22250963846013835,0.07339027541833765
7.000000000000672,-0.20283749476065072,0.11296702015894489
7.200000000000739,-0.16935067506996063,0.14353499306178205
7.400000000000806,-0.1272128616289227,0.16292813029003325
7.600000000000873,-0.07635752124501549,0.1626883054701803
7.8000000000009395,-0.021328197424310826,0.17289952875037518
8.000000000001005,0.0353037266328742,0.17289813387081612
8.200000000000895,0.08627999726595746,0.16436508437836134
8.400000000000784,0.11806488644052363,0.14009611929181845
8.600000000000673,0.1203784096313942,0.1109369383668708
8.800000000000562,0.10034470918358498,0.08519667000480641
9.000000000000451,0.07372020437700956,0.051727578979786144
9.20000000000034,0.048221087508142746,0.005029213296660885
9.40000000000023,0.022621338726298637,-0.04239911796331694
9.600000000000119,-0.007564075035225937,-0.0964413291246695
9.800000000000008,-0.0380401941086039,-0.11547649622141985
10.000999999999896,-0.0665788182216764,-0.11113060460462731
10.200999999999786,-0.07096259514142406,-0.10013762297434263
10.400999999999675,-0.05256647050634777,-0.07910214758391416
10.600999999999564,-0.03409271506636379,-0.04406364402564173
10.800999999999453,-0.01574803916337275,-0.005692806952144853
11.000999999999342,0.01002337098952265,0.033100096733819195
11.200999999999231,0.041960310693779874,0.06834928611732558
11.40099999999912,0.07766099098438112,0.1060733904640498
11.60099999999901,0.11898902527346486,0.1228118565743516
11.800999999998899,0.16910913819896825,0.14546431767543525
12.000999999998788,0.2189579010055514,0.15162763609877408
12.200999999998677,0.2737006588915666,0.15280346197528694
12.400999999998566,0.3196557088742261,0.13956030823509671
12.600999999998455,0.36861790469329814,0.11750739491285524
12.800999999998345,0.42151458007564474,0.0987888509009046
13.000999999998234,0.4637651222966949,0.07590956459710121
13.200999999998123,0.5055465764707878,0.05126203280268745
13.400999999998012,0.549464068214798,0.017467966945385233
13.600999999997901,0.5668236174858989,-0.022413003751235932
13.80099999999779,0.5686279388069616,-0.06790813664848347
14.00099999999768,0.5513086501229121,-0.10256896245104725
14.200999999997569,0.5176141136335648,-0.11983686025000259
14.400999999997458,0.47065319844019765,-0.12269098535856589
14.600999999997347,0.42597338307087246,-0.10882700688159244
14.800999999997236,0.4001412019201193,-0.08134259985323096
15.000999999997125,0.3828680113472235,-0.042725625694206064
15.200999999997014,0.37254644170773654,0.00026490402399645857
15.400999999996904,0.3610059818291418,0.04376842229582127
15.600999999996793,0.34461314950633565,0.0951367693373482
15.800999999996682,0.3371938067261517,0.15056898068750774
16.000999999996573,0.32702511806835866,0.20867527537782105
16.200999999996817,0.33242479874267844,0.25873373271445294
16.40099999999706,0.34352766156410974,0.2999279104745971
16.600999999997306,0.33873032446074985,0.3464444528341674
16.80099999999755,0.35183346716702385,0.3875824978288657
17.000999999997795,0.36939482550924585,0.43117165703702276
17.20099999999804,0.3927897370473888,0.477865971910132
17.400999999998284,0.42694063830571327,0.5292816237421636
17.60099999999853,0.46333503880248916,0.5876616841253247
17.800999999998773,0.5102036736623474,0.6171947259864764
18.000999999999017,0.5643468177560785,0.6235818139299885
18.20099999999926,0.626666027270903,0.6225162187684645
18.400999999999506,0.67807900766423,0.6045057981826437
18.60099999999975,0.7197210663653935,0.5752994243332592
18.799999999999994,0.7354705923697633,0.5374585690032508
19.000000000000238,0.7428462803046707,0.4908454193521859
19.200000000000482,0.7412599885815325,0.45145964323398385
19.400000000000727,0.725129093680456,0.4212855572865017
19.60000000000097,0.699870443731425,0.3849103923799411
19.800000000001216,0.6688046886964389,0.34714295735111933
20.00000000000146,0.6377176808036106,0.3035891391218697
