Time (s),X (m),Y (m)
0.001,0.00033312994539159724,0.0010275501737767782
0.20000000000000015,0.0009726053005203834,-0.0011933450283871433
0.4000000000000003,0.004124843994251659,0.002979177184598898
0.6000000000000004,0.007340681788015458,0.004526959487506272
0.8000000000000006,0.016036213358971818,0.006950767136455729
1.0000000000000007,0.02751539950847752,0.010611545446192099
1.2009999999999785,0.034762488190532286,0.008251381699527155
1.4009999999999565,0.04692421140146012,0.006263439929798286
1.6009999999999345,0.059732502152133736,-0.0003653883187812068
1.8009999999999124,0.07779073626069787,-0.0030386203255329653
2.0009999999998906,0.09074395800255035,-0.007622463367373819
2.2009999999998686,0.09014630422036003,-0.01537503629503747
2.4009999999998466,0.09686080938986442,-0.023734809696007164
2.6009999999998246,0.12023630856985927,-0.024251677392063003
2.8009999999998025,0.13991903499518504,-0.03585474306419609
3.0009999999997805,0.150131753848794,-0.05532317829545184
3.2009999999997585,0.1539682412973825,-0.07861249020224385
3.4009999999997365,0.16377009521202968,-0.09211819722080851
3.6009999999997144,0.16602355522364218,-0.11327374703670573
3.8009999999996924,0.1680137745674588,-0.1294614503880162
4.000999999999671,0.17157264802880812,-0.14861709955203786
4.200999999999738,0.1759626763187988,-0.1695547101106271
4.400999999999804,0.18474398632636244,-0.1871431723095921
4.600999999999871,0.19258299296896703,-0.2041985069079456
4.800999999999938,0.2104368953384004,-0.21475862156392525
5.000000000000004,0.239323102243032,-0.21549986478998256
5.200000000000071,0.271424247841005,-0.2207594561717124
5.400000000000138,0.29683015514050737,-0.23564900733920613
5.600000000000205,0.317831596821445,-0.2595792535017889
5.800000000000272,0.32351018091050987,-0.2861152665481842
6.000000000000338,0.314275422019791,-0.30642159854110285
6.200000000000405,0.3159579991849846,-0.3309814492972762
6.400000000000472,0.3149388084988294,-0.35648448739112365
6.600000000000539,0.3184354521327287,-0.3804623568453309
6.800000000000606,0.3082145389538734,-0.39732963350546635
7.000000000000672,0.2840810209983424,-0.408449466767697
7.200000000000739,0.28144252355730986,-0.42129528973630603
7.400000000000806,0.26870279916084316,-0.4325160406053693
7.600000000000873,0.2485388238234415,-0.4478697561070284
7.8000000000009395,0.24196138082485188,-0.47417752950166653
8.000000000001005,0.23998920765817083,-0.49955790686966073
8.200000000000895,0.22998828642806227,-0.5264659497937271
8.400000000000784,0.223587818486915,-0.5564263500956862
8.600000000000673,0.21063956564886724,-0.5858093410812992
8.800000000000562,0.19873517549125244,-0.6092026622862481
9.000000000000451,0.19037266204635442,-0.63305933986902
9.20000000000034,0.18782607896557516,-0.6588607478031463
9.40000000000023,0.1906974157326531,-0.6907153604232946
9.600000000000119,0.18877278949902532,-0.7242249705025136
9.800000000000008,0.18715654163768888,-0.7615654164149814
10.000999999999896,0.17675947552404997,-0.7903081508502781
10.200999999999786,0.16986442995622844,-0.8180245998515427
10.400999999999675,0.15410436826765442,-0.8326635238403567
10.600999999999564,0.1295768285489719,-0.8353403471172551
10.800999999999453,0.10397282199551677,-0.8261213208391839
11.000999999999342,0.07342653275317301,-0.822258077246799
11.200999999999231,0.044049355622663905,-0.8182240514054816
11.40099999999912,0.034020653423268564,-0.8056405786860023
11.60099999999901,0.031229846801669934,-0.7826143370909857
11.800999999998899,0.039352803121429455,-0.762067734860083
12.000999999998788,0.05486884932424345,-0.7454039542111841
12.200999999998677,0.07766114809214963,-0.726462813891623
12.400999999998566,0.09252793335321453,-0.6957852811014145
12.600999999998455,0.1072518235523918,-0.6649071017294149
12.800999999998345,0.12027456445241977,-0.6348877021481955
13.000999999998234,0.14095581009817626,-0.6209000674795808
13.200999999998123,0.16969995212504113,-0.6134241253869226
13.400999999998012,0.20389186076812923,-0.6127691975718095
13.600999999997901,0.2422207272100136,-0.6232262755443392
13.80099999999779,0.2691093436451077,-0.6331633733292823
14.00099999999768,0.29582399526120995,-0.6449272872619909
14.200999999997569,0.3248682649300945,-0.6512205553610634
14.400999999997458,0.3516951824285448,-0.6610995293979395
14.600999999997347,0.3767746155910671,-0.6703826245871765
14.800999999997236,0.3933309542581649,-0.6853276683796874
15.000999999997125,0.41581871533187775,-0.7031952225622791
15.200999999997014,0.44256942104145514,-0.7251140592992623
15.400999999996904,0.4708683467343116,-0.7505713990051317
15.600999999996793,0.490281873613589,-0.7791635075341157
15.800999999996682,0.501023865461669,-0.8074096059921193
16.000999999996573,0.5209819879948342,-0.8345726456385307
16.200999999996817,0.5555594002967713,-0.8567797976587487
16.40099999999706,0.5711954205275132,-0.8837407114029869
16.600999999997306,0.5783234089656903,-0.9179282863509148
16.80099999999755,0.5933144082352828,-0.9453071247206656
17.000999999997795,0.6101503068321669,-0.973223325282207
17.20099999999804,0.6156998829872717,-1.0040432837413469
17.400999999998284,0.6318733472820993,-1.0329403886525703
17.60099999999853,0.6418881941513631,-1.05884626133404
17.800999999998773,0.6627610681996535,-1.086706355364407
18.000999999999017,0.6846229102605113,-1.1194517072579409
18.20099999999926,0.7063926636489454,-1.1495677710346208
18.400999999999506,0.7122057721588461,-1.1850802827545601
18.60099999999975,0.7034622361718582,-1.2183044772608407
18.799999999999994,0.6950178549778169,-1.2551606595207467
19.000000000000238,0.6920214458357044,-1.288125994941312
19.200000000000482,0.7011661686351625,-1.3222382881581078
19.400000000000727,0.7082443832154313,-1.3659096451445676
19.60000000000097,0.6949022655261367,-1.4032214327302541
19.800000000001216,0.6731860384352604,-1.439256160657
20.00000000000146,0.6516902317036178,-1.4647099655030023
