Time (s),X (m),Y (m)
0.001,0.0012131848191356664,0.000663019509439443
0.20000000000000015,0.0009036131481654262,-0.0007045523907183637
0.4000000000000003,0.010823181748748615,0.002524046828394895
0.6000000000000004,0.0366801507175802,0.01779297599827349
0.8000000000000006,0.059421160083156274,0.031679947213655954
1.0000000000000007,0.0758377774383652,0.044436004425765216
1.2009999999999785,0.09289576578247412,0.055442489028003125
1.4009999999999565,0.11502876733245453,0.06270022214630896
1.6009999999999345,0.13807796111485016,0.06960803751103942
1.8009999999999124,0.1541860193809517,0.06804831569577534
2.0009999999998906,0.16235369188987392,0.06123631657072969
2.2009999999998686,0.1777180102618451,0.04699053223617465
2.4009999999998466,0.192691220233767,0.02615610107585139
2.6009999999998246,0.20866168177468153,0.0008089728964883081
2.8009999999998025,0.2266982288488321,-0.02567841932760325
3.0009999999997805,0.2428271315022062,-0.054222014199936906
3.2009999999997585,0.26371465831231305,-0.08696300928616942
3.4009999999997365,0.2917082961855114,-0.12449629074553295
3.6009999999997144,0.31815266401504105,-0.1616271747225287
3.8009999999996924,0.3460076966316418,-0.20172671586687474
4.000999999999671,0.3776155127826711,-0.24571691663160813
4.200999999999738,0.4164037218404049,-0.29622738826827416
4.400999999999804,0.45220992284422856,-0.34608987722594164
4.600999999999871,0.4808192526773013,-0.3921233381800322
4.800999999999938,0.5078617242669985,-0.4314210387400227
5.000000000000004,0.5392674212002166,-0.48089810431376145
5.200000000000071,0.5629861826130433,-0.5338675551134263
5.400000000000138,0.5765641307700248,-0.5835409369817718
5.600000000000205,0.5751609372030667,-0.6256413069047277
5.800000000000272,0.5540714883482367,-0.6639556432844156
6.000000000000338,0.5250306015295998,-0.6972505473196398
6.200000000000405,0.48944321931133666,-0.7137438936058379
6.400000000000472,0.46749433780080774,-0.7052231485426662
6.600000000000539,0.44481569910858204,-0.679069285447605
6.800000000000606,0.42838024620123555,-0.6454953898094533
7.000000000000672,0.4015979117738859,-0.6018242456833935
7.200000000000739,0.3680917225362179,-0.5512421436284415
7.400000000000806,0.3257593287678579,-0.49740796748600224
7.600000000000873,0.2741315530251303,-0.43645911673342064
7.8000000000009395,0.21558753220086757,-0.3679366172955352
8.000000000001005,0.1651003701203137,-0.30037276638129057
8.200000000000895,0.11875100845329188,-0.23322920081739265
8.400000000000784,0.05932790305841767,-0.17280717131352424
8.600000000000673,-0.0019138653253362352,-0.12058332107064076
8.800000000000562,-0.07037541540225024,-0.08217259350242825
9.000000000000451,-0.1467297862795934,-0.05550747513152185
9.20000000000034,-0.2268518329420777,-0.0391415089010748
9.40000000000023,-0.3124927414185409,-0.038120581816255446
9.600000000000119,-0.39967743135459716,-0.040170574729555646
9.800000000000008,-0.48503585869379745,-0.03675508637041099
10.000999999999896,-0.5574160553358967,-0.02259033227285392
10.200999999999786,-0.626574751307632,-0.004712585161566103
10.400999999999675,-0.6935803582369897,0.019399260269378476
10.600999999999564,-0.7537217938083964,0.058971768434909186
10.800999999999453,-0.8112908391724566,0.11452327461150631
11.000999999999342,-0.8667291996422078,0.1784171955868133
11.200999999999231,-0.9208154493809142,0.2455224041300873
11.40099999999912,-0.9788064543647343,0.31525062674543014
11.60099999999901,-1.0320226631624696,0.3893132621121169
11.800999999998899,-1.0846737335025087,0.46654612530485795
12.000999999998788,-1.1422652686574621,0.5420215943245486
12.200999999998677,-1.2054944992205157,0.6238128258330656
12.400999999998566,-1.2740862025782438,0.7141588603722804
12.600999999998455,-1.339138511779588,0.8008994185223972
12.800999999998345,-1.4050357078569486,0.8853559625235015
13.000999999998234,-1.480432322154664,0.9718869692419506
13.200999999998123,-1.5606490866411036,1.0612956368490736
13.400999999998012,-1.6412789404641104,1.1441680724295749
13.600999999997901,-1.7231049363165662,1.2242181765771518
13.80099999999779,-1.799935226611784,1.3029302478633729
14.00099999999768,-1.8726269947904135,1.3828700841584358
14.200999999997569,-1.9373065959417484,1.4668334169305879
14.400999999997458,-1.9988976740247235,1.5511102348157995
14.600999999997347,-2.0690638013472564,1.6424911234144643
14.800999999997236,-2.1396270225246345,1.7386606884152986
15.000999999997125,-2.1981072274301865,1.8317525519631153
15.200999999997014,-2.2377779248567577,1.924064769752973
15.400999999996904,-2.2342451783371637,2.01567375104489
15.600999999996793,-2.1959467697400825,2.0945976393863575
15.800999999996682,-2.1387811898157456,2.1689687419210344
16.000999999996573,-2.077539674464355,2.2242838003141787
16.200999999996817,-2.0039618710857763,2.2757884741667542
16.40099999999706,-1.9345964634285213,2.3102410651089045
16.600999999997306,-1.8820535579404352,2.309008881416432
16.80099999999755,-1.8367077777134808,2.2828228729709257
17.000999999997795,-1.7927195867071621,2.2398956893651154
17.20099999999804,-1.7374174971152054,2.1900223378477244
17.400999999998284,-1.6819974631832775,2.1392103475009336
17.60099999999853,-1.6231042297998024,2.08435972570034
17.800999999998773,-1.5527015882725328,2.0146783131302093
18.000999999999017,-1.489836766955683,1.9391630439935943
18.20099999999926,-1.4357173442964435,1.8545721270500992
18.400999999999506,-1.4098830991309377,1.7816884814143226
18.60099999999975,-1.4117415722167375,1.7228800276844118
18.799999999999994,-1.4187432815943153,1.6637095780049
19.000000000000238,-1.444336361242765,1.5968740210256807
19.200000000000482,-1.4870376643452499,1.5392908291527918
19.400000000000727,-1.5374075259918718,1.4911988415760562
19.60000000000097,-1.599299138174822,1.4379601697385074
19.800000000001216,-1.6712403760003385,1.3755710990295948
20.00000000000146,-1.741712862039,1.3206225477109281
