Time (s),X (m),Y (m)
0.001,0.00042302893680115855,0.0010314752485082437
0.20000000000000015,0.0008837371623473428,-0.0003639561878353933
0.4000000000000003,0.0030778477076942546,-0.0005642468731626508
0.6000000000000004,0.008068358743864561,0.0024300382752281036
0.8000000000000006,0.01642285319796007,0.0061141421388388704
1.0000000000000007,0.023970377921781107,0.008737772122930216
1.2009999999999785,0.03136586134335175,0.007628887738182451
1.4009999999999565,0.03774671944692842,0.005487666314637031
1.6009999999999345,0.04557849238439972,-0.004768288951856418
1.8009999999999124,0.053533347802100256,-0.0015406389117355104
2.0009999999998906,0.0613291311652712,-0.00729763933782949
2.2009999999998686,0.07227690337977895,-0.00612603325773405
2.4009999999998466,0.0816438690681974,-0.00852674919338744
2.6009999999998246,0.09382427285490343,-0.0010978258572678394
2.8009999999998025,0.10972204744942862,0.005344537331510859
3.0009999999997805,0.12297194335585437,0.01063911234609399
3.2009999999997585,0.1379078894893701,0.017577162187406386
3.4009999999997365,0.1489988322683287,0.01241015690679415
3.6009999999997144,0.15483676512637293,0.006790112519363555
3.8009999999996924,0.1664444256467134,0.005361369920945649
4.000999999999671,0.18167765576476308,0.00597658267286461
4.200999999999738,0.19586324685977344,-0.0013809966523717354
4.400999999999804,0.2075794948481533,-0.006493255208252977
4.600999999999871,0.22160079710900407,0.006722625540754469
4.800999999999938,0.23908709608210874,0.004244238678986662
5.000000000000004,0.2557160554910836,0.011437853867412825
5.200000000000071,0.27335048448329613,0.011285911951122198
5.400000000000138,0.2896229182527778,0.0031067009747545423
5.600000000000205,0.3073360553943914,0.006957938168847406
5.800000000000272,0.3223248532402629,0.009716355764960136
6.000000000000338,0.33735614727702623,0.006055425900976382
6.200000000000405,0.3558888677114061,0.006163342695014299
6.400000000000472,0.3769540122899893,0.013458281013764744
6.600000000000539,0.3928087416250359,0.0152692525154437
6.800000000000606,0.4108218052866205,0.020680112991863595
7.000000000000672,0.4280170417635476,0.018036581106895842
7.200000000000739,0.44586063319792973,0.020319174246847052
7.400000000000806,0.46038903015821353,0.012239709187285563
7.600000000000873,0.47726163994198156,0.014126476078666189
7.8000000000009395,0.49225397835005513,0.022333811862053587
8.000000000001005,0.5068363231507134,0.02450071090473128
8.200000000000895,0.5220423857360388,0.02787748949518034
8.400000000000784,0.5416242134751751,0.030992984097438076
8.600000000000673,0.5598463097892703,0.027945263588670517
8.800000000000562,0.5763468077504756,0.03474526225564763
9.000000000000451,0.5931313256089724,0.03446783233749609
9.20000000000034,0.6063896501754937,0.02637152189134666
9.40000000000023,0.6217200411470029,0.0240242488677763
9.600000000000119,0.6331423148721063,0.01772666936037588
9.800000000000008,0.6469610802796184,0.021125663217492433
10.000999999999896,0.667994682380355,0.027784505658249796
10.200999999999786,0.6880267998966153,0.02820329573785878
10.400999999999675,0.7013366781211655,0.023452390626559582
10.600999999999564,0.716477852495373,0.021499523681515816
10.800999999999453,0.7317517327463222,0.02427966515460857
11.000999999999342,0.7506265212097813,0.02753096044812798
11.200999999999231,0.7681069096124746,0.02619319561877975
11.40099999999912,0.7821375485756576,0.018734948599541102
11.60099999999901,0.7953982473700139,0.010022116220608343
11.800999999998899,0.8083145241648456,0.009891947133615893
12.000999999998788,0.8223363581679577,-0.006831626371176731
12.200999999998677,0.8361554759830406,-0.013838368850581506
12.400999999998566,0.8509899866729412,-0.01969557199992421
12.600999999998455,0.8698505285566265,-0.016309001996099
12.800999999998345,0.8896384493549631,-0.020017567963401185
13.000999999998234,0.9085511092575906,-0.011668105770404003
13.200999999998123,0.9237198217436006,-0.0036688592276295094
13.400999999998012,0.9397973352653655,-0.0007239832964894109
13.600999999997901,0.9568029335423437,0.007296066436622638
13.80099999999779,0.977489853658684,0.01263720337579797
14.00099999999768,0.9951164899093098,0.012015683357194587
14.200999999997569,1.008023750658618,0.00903986462785305
14.400999999997458,1.0162522755476173,-0.001359265837686304
14.600999999997347,1.0189653964572907,-0.015668401875566576
14.800999999997236,1.0265604559748123,-0.020447860490591715
15.000999999997125,1.0398816510365674,-0.02573505651801781
15.200999999997014,1.0536941159435074,-0.026474939013848148
15.400999999996904,1.0701092614112193,-0.028212695271312812
15.600999999996793,1.0894002111415315,-0.02091986124286863
15.800999999996682,1.1034133816507001,-0.03725076166086505
16.000999999996573,1.1167844209963358,-0.049844528558939796
16.200999999996817,1.1289117124864594,-0.06122705432930836
16.40099999999706,1.144626325337075,-0.07281933117205483
16.600999999997306,1.159715932783839,-0.08346354909412297
16.80099999999755,1.175111821914948,-0.08450800341337769
17.000999999997795,1.186314777039443,-0.0901182360695186
17.20099999999804,1.1955170021008978,-0.10119329889961093
17.400999999998284,1.2065230466670862,-0.1101723408436908
17.60099999999853,1.2147874993819816,-0.12014099685653322
17.800999999998773,1.2262806203727967,-0.12965387808395729
18.000999999999017,1.2441251623288097,-0.1328000689766222
18.20099999999926,1.261491023919349,-0.13985737006992377
18.400999999999506,1.2834782831943223,-0.12986417627443056
18.60099999999975,1.3062157576341051,-0.1251662769663823
18.799999999999994,1.3202781296818162,-0.13235055378077248
19.000000000000238,1.337727189622722,-0.1365465698815967
19.200000000000482,1.3527540027234912,-0.14266457548426859
19.400000000000727,1.3709898969165186,-0.13549204706727033
19.60000000000097,1.3949325410774263,-0.12259335906812693
19.800000000001216,1.4208821268455554,-0.12083649017043617
20.00000000000146,1.4421033504421483,-0.11643464490443918
