Time (s),X (m),Y (m)
0.001,-0.00042190612164786414,0.0005916298972236686
0.20000000000000015,0.0017125261298552813,-0.001062827849628439
0.4000000000000003,0.001071097116360299,-0.000821209412676764
0.6000000000000004,0.00871236152868613,-0.005313227520705743
0.8000000000000006,0.018632980292904822,-0.011428610031482636
1.0000000000000007,0.032875373421455294,-0.02709473126240092
1.2009999999999785,0.05067054155422178,-0.04798948343628271
1.4009999999999565,0.06709753701158046,-0.0781337016589452
1.6009999999999345,0.0730643523790478,-0.11421991051650297
1.8009999999999124,0.07582917590251477,-0.13852958098621468
2.0009999999998906,0.07256907422139189,-0.1629864437856881
2.2009999999998686,0.06376520321939301,-0.19814220154206555
2.4009999999998466,0.05090883633313397,-0.23455058421012964
2.6009999999998246,0.0324636993880313,-0.27158688782875456
2.8009999999998025,0.006502596468531565,-0.31040984558443147
3.0009999999997805,-0.023417502219880537,-0.3530778566530932
3.2009999999997585,-0.050753666526583946,-0.38856864193184154
3.4009999999997365,-0.07477702177238817,-0.4184982482222569
3.6009999999997144,-0.09400136111056873,-0.4423815479904446
3.8009999999996924,-0.11335405694445631,-0.4574671684284319
4.000999999999671,-0.13282021529811922,-0.4676060549000995
4.200999999999738,-0.14424794465592286,-0.4747537661648077
4.400999999999804,-0.15951256824343527,-0.476992066193758
4.600999999999871,-0.18768126314683223,-0.4750638757014453
4.800999999999938,-0.21795051556842013,-0.46140360037395733
5.000000000000004,-0.254543232590958,-0.44041540933920303
5.200000000000071,-0.28977183603986995,-0.4242383163517812
5.400000000000138,-0.3150020762306973,-0.4117429842872108
5.600000000000205,-0.34167776512862574,-0.40531165198354546
5.800000000000272,-0.3753501503302524,-0.40110917827993686
6.000000000000338,-0.4097533978889181,-0.3906158611270777
6.200000000000405,-0.45151724551898825,-0.3744920493978138
6.400000000000472,-0.5025515067843089,-0.3481504197720749
6.600000000000539,-0.552467698345294,-0.32159483729690086
6.800000000000606,-0.5917220379122058,-0.3043482102527871
7.000000000000672,-0.6305526449437683,-0.28925660415958954
7.200000000000739,-0.6855501855929265,-0.2768115086820666
7.400000000000806,-0.7465437716431083,-0.2573856499612653
7.600000000000873,-0.8094696591141274,-0.2320740200837776
7.8000000000009395,-0.8639719165453162,-0.2138940157842127
8.000000000001005,-0.9123322317325161,-0.18013847896701551
8.200000000000895,-0.9514515154910432,-0.14495763209834142
8.400000000000784,-0.9755389041697085,-0.100429973920387
8.600000000000673,-0.977926599928612,-0.05361963532426011
8.800000000000562,-0.9628648454137773,0.004311604426990277
9.000000000000451,-0.9396624645964313,0.07655977094198572
9.20000000000034,-0.9253468347189099,0.1395942702786657
9.40000000000023,-0.9088043609144578,0.19828661652379584
9.600000000000119,-0.8858046735008263,0.2544066145023043
9.800000000000008,-0.8696808428150695,0.30869847686799695
10.000999999999896,-0.8548091334816399,0.36824511651969266
10.200999999999786,-0.8283360586535069,0.4298749928442343
10.400999999999675,-0.7946254156550074,0.4863176467188745
10.600999999999564,-0.7467082115911078,0.5309099630260522
10.800999999999453,-0.6982634266089872,0.5582053961956633
11.000999999999342,-0.6448785880096773,0.5698613903522958
11.200999999999231,-0.584356179620073,0.5572687634047377
11.40099999999912,-0.5159522319874225,0.5173891992171264
11.60099999999901,-0.4571628810414952,0.47395388935669824
11.800999999998899,-0.41789301127940226,0.42699308190846474
12.000999999998788,-0.38967401372805666,0.3891158856150808
12.200999999998677,-0.37440549172759635,0.33868512662415995
12.400999999998566,-0.370796577044304,0.2863480867944285
12.600999999998455,-0.3699953211352003,0.2404463619028946
12.800999999998345,-0.3693410085748891,0.19531857115121468
13.000999999998234,-0.37599331039887485,0.1382820206594938
13.200999999998123,-0.3838937015777734,0.08150676884006046
13.400999999998012,-0.3956076937433093,0.02325308048976575
13.600999999997901,-0.4148536440898908,-0.04054707874883228
13.80099999999779,-0.4347748287271446,-0.10368790731516135
14.00099999999768,-0.47830351399139676,-0.16820768667002312
14.200999999997569,-0.525462221597263,-0.21279761914339973
14.400999999997458,-0.5840909492143715,-0.23287616665913674
14.600999999997347,-0.6494722241552967,-0.22509902984895483
14.800999999997236,-0.7123234977027442,-0.20813334083587856
15.000999999997125,-0.7721943255911538,-0.1909558436215979
15.200999999997014,-0.8376713576991445,-0.17091177917911163
15.400999999996904,-0.9043869642639283,-0.1458195170475196
15.600999999996793,-0.9681715170999459,-0.1265643181520021
15.800999999996682,-1.0346716744147428,-0.08521508592378224
16.000999999996573,-1.0893584985355023,-0.039547196851915524
16.200999999996817,-1.127060293811556,0.0022430368332437434
16.40099999999706,-1.1497250076788714,0.042953629430893224
16.600999999997306,-1.1554226695846728,0.09167589197107064
16.80099999999755,-1.1463714625362702,0.1444793847058922
17.000999999997795,-1.1363079547888155,0.2002551233954532
17.20099999999804,-1.1242015742636904,0.2643120735539444
17.400999999998284,-1.1012323207340038,0.3424973235406912
17.60099999999853,-1.0821266218725314,0.4154047298557488
17.800999999998773,-1.0603617804954686,0.48962107914932707
18.000999999999017,-1.0395901393175881,0.5646889793858811
18.20099999999926,-1.0042439239424066,0.6417193192661953
18.400999999999506,-0.9787197050077303,0.7127368706472954
18.60099999999975,-0.9562923891312728,0.7876957294381296
18.799999999999994,-0.946696425101058,0.8487081983342801
19.000000000000238,-0.9426529787536214,0.906273291159237
19.200000000000482,-0.9360566361253913,0.9677728979876986
19.400000000000727,-0.9155969400848023,1.0366847639603414
19.60000000000097,-0.8847556805640779,1.0991184889957109
19.800000000001216,-0.8429201963740888,1.1414489777223706
20.00000000000146,-0.7866528178404948,1.153374814060711
