Time (s),X (m),Y (m)
0.001,-0.000592775884969954,0.00017911379721200063
0.20000000000000015,0.0022506315825827693,-0.00038488424060149397
0.4000000000000003,0.010351951115282872,-0.00394253823879673
0.6000000000000004,0.013940590009957067,-0.007390767875309923
0.8000000000000006,0.02156269096466487,-0.017165666170359088
1.0000000000000007,0.04042333201563126,-0.037514144310447986
1.2009999999999785,0.056265029227551486,-0.05831497511007764
1.4009999999999565,0.06093153686536463,-0.08150358193830613
1.6009999999999345,0.05334929104364647,-0.10122759423005243
1.8009999999999124,0.03438201644947122,-0.12206298805727694
2.0009999999998906,0.007852534999134863,-0.14525262416144952
2.2009999999998686,-0.024905561115563895,-0.17030551707486388
2.4009999999998466,-0.06196494275257652,-0.18389220650125415
2.6009999999998246,-0.09573030576515738,-0.185034449900568
2.8009999999998025,-0.12659942496289986,-0.17840242278109245
3.0009999999997805,-0.1625193230654687,-0.16225901842028226
3.2009999999997585,-0.20149513847056588,-0.14044152917153863
3.4009999999997365,-0.23715760657132423,-0.10909623279132608
3.6009999999997144,-0.25361310009971766,-0.06964539601167984
3.8009999999996924,-0.25681025459485535,-0.03941171578462736
4.000999999999671,-0.23894697307372925,0.00661934592443976
4.200999999999738,-0.217848930844209,0.05494612486608241
4.400999999999804,-0.17776544637465747,0.0924350150216509
4.600999999999871,-0.12783116983097395,0.11417058206345716
4.800999999999938,-0.08250234173163423,0.12131894789743675
5.000000000000004,-0.03520716869962893,0.11382005554336587
5.200000000000071,0.011396332392104155,0.10300400419141677
5.400000000000138,0.06294844447009285,0.08434664320766132
5.600000000000205,0.11230512397794606,0.058543915239571365
5.800000000000272,0.1683617914060835,0.018864094613220028
6.000000000000338,0.2251739589888744,-0.033314644883475256
6.200000000000405,0.2678174141731384,-0.10459928461771682
6.400000000000472,0.28041214073748155,-0.17271709502325272
6.600000000000539,0.2777158988746449,-0.233133707661048
6.800000000000606,0.24514571450775943,-0.2957960287957884
7.000000000000672,0.19998723627677276,-0.3474103222645349
7.200000000000739,0.1586381937600165,-0.37453290415480095
7.400000000000806,0.11515494191675381,-0.3805652638102474
7.600000000000873,0.06743868020382063,-0.36092125306563394
7.8000000000009395,0.030122045965454737,-0.3331512486468136
8.000000000001005,0.009239822845823233,-0.2965640549020346
8.200000000000895,0.0016792987381260118,-0.2539278501146566
8.400000000000784,0.014477556129486603,-0.2018728968647082
8.600000000000673,0.03979820055017963,-0.14641392551048285
8.800000000000562,0.0700507315544747,-0.09140396039077214
9.000000000000451,0.1104520452957714,-0.03518312118653418
9.20000000000034,0.15902124561269093,0.005596587815546649
9.40000000000023,0.2059452219515937,0.017972991265138818
9.600000000000119,0.2597070763146378,0.006875355990287663
9.800000000000008,0.30716855730194026,-0.005068861996842489
10.000999999999896,0.3524623207657226,-0.014441703491995377
10.200999999999786,0.39643998748174564,-0.04281250251623708
10.400999999999675,0.4210517481478869,-0.08041161264611935
10.600999999999564,0.4165507261320063,-0.13378119523937876
10.800999999999453,0.3877335169337087,-0.19347706925679467
11.000999999999342,0.3395945842626295,-0.2451278995763233
11.200999999999231,0.2882261136399879,-0.2780244366650046
11.40099999999912,0.2436479994053218,-0.29388635322106027
11.60099999999901,0.1887481084870578,-0.2956464183694508
11.800999999998899,0.138063061394193,-0.28761563166658977
12.000999999998788,0.08842431490812738,-0.2696747867472682
12.200999999998677,0.031306970316837684,-0.23615344752099618
12.400999999998566,-0.02772016001718518,-0.19253528512599585
12.600999999998455,-0.09298327985027635,-0.1468955689403738
12.800999999998345,-0.15761944696240748,-0.0783430954446727
13.000999999998234,-0.20014800524147344,0.007173707229441637
13.200999999998123,-0.21815968594122892,0.06741995633557998
13.400999999998012,-0.22442057946144356,0.11346589613993442
13.600999999997901,-0.21320491513824733,0.17305743198934007
13.80099999999779,-0.19425655598829006,0.23584354327550103
14.00099999999768,-0.16807448011903728,0.30486026336226624
14.200999999997569,-0.1394262330237599,0.38112545418998794
14.400999999997458,-0.11497313123086873,0.4601970857092941
14.600999999997347,-0.09302095890669046,0.5421228278455734
14.800999999997236,-0.07076970310781437,0.6195348116446469
15.000999999997125,-0.04119086694013273,0.6941428169566275
15.200999999997014,-0.0036396376107576097,0.7738603116975562
15.400999999996904,0.031679402859700154,0.8538965445559036
15.600999999996793,0.08689876215779978,0.9333864743289231
15.800999999996682,0.1454451270068997,0.9957482714576511
16.000999999996573,0.2031671076458606,1.0232610916770368
16.200999999996817,0.27027563906247626,1.0165549658326312
16.40099999999706,0.34841518243843755,0.9855461872679491
16.600999999997306,0.4272133819907879,0.9388994608281266
16.80099999999755,0.4940172022939946,0.888792153812419
17.000999999997795,0.5357998139501126,0.836236179854376
17.20099999999804,0.5501915311188326,0.7811323956717566
17.400999999998284,0.5488303312846177,0.7236889213338076
17.60099999999853,0.5417386309762517,0.6702301473860441
17.800999999998773,0.5305197574043322,0.6085444695337785
18.000999999999017,0.5138524580846207,0.5514916320582688
18.20099999999926,0.49428959265319466,0.49218247239712176
18.400999999999506,0.47119852966607195,0.4251622428791723
18.60099999999975,0.43644581323808335,0.34674015824480003
18.799999999999994,0.39206831940776016,0.2655253538219598
19.000000000000238,0.3432785009711571,0.18620241721451883
19.200000000000482,0.28504809007575255,0.1277696024575022
19.400000000000727,0.23201843956605875,0.10564553124523648
19.60000000000097,0.17908475860246517,0.11800022162468493
19.800000000001216,0.13875748434344606,0.14835940191125338
20.00000000000146,0.11657990680813686,0.1804353562029383
