Time (s),X (m),Y (m)
0.001,0.001392298616347667,-0.0003527853123316693
0.20000000000000015,-0.00030318467748671686,0.0007076411715759027
0.4000000000000003,0.0033608373443317066,-0.000898014718224637
0.6000000000000004,0.008654226239800639,-0.00048108619954996854
0.8000000000000006,0.01873933173341007,-0.002479206195896715
1.0000000000000007,0.028489909750475932,-0.0022537275406712435
1.2009999999999785,0.03155442920145832,-0.0017755246410464693
1.4009999999999565,0.041574816170318184,-0.013130410077141504
1.6009999999999345,0.04984385525314791,-0.03635737001355676
1.8009999999999124,0.054275430074951614,-0.05500870267600586
2.0009999999998906,0.05036641196159345,-0.07574701775716387
2.2009999999998686,0.04364213884728862,-0.09245235796928059
2.4009999999998466,0.03002268347659911,-0.116042092366517
2.6009999999998246,0.02070181768000742,-0.13713083677079654
2.8009999999998025,0.009045072233170264,-0.1662727870300751
3.0009999999997805,-0.006667770757747569,-0.19429497175505883
3.2009999999997585,-0.026675740371290377,-0.22520077267787586
3.4009999999997365,-0.04867600448789732,-0.25760284965587427
3.6009999999997144,-0.07838450493510564,-0.2939729443317248
3.8009999999996924,-0.10906978525569432,-0.33036794042579004
4.000999999999671,-0.13561896812203528,-0.35835639636437344
4.200999999999738,-0.1620904690912595,-0.3715328842702336
4.400999999999804,-0.18436603524906112,-0.37469085178373035
4.600999999999871,-0.22044033357997594,-0.36428274469125854
4.800999999999938,-0.25791506050858404,-0.3501699293437732
5.000000000000004,-0.2953494322551089,-0.3375985518067018
5.200000000000071,-0.33891703935265927,-0.32064379549757505
5.400000000000138,-0.38570914879482693,-0.29967070045122385
5.600000000000205,-0.4379007369322285,-0.2624807743147921
5.800000000000272,-0.4897857076400661,-0.2233123197824788
6.000000000000338,-0.5399269334946869,-0.18440399968090404
6.200000000000405,-0.5835797688263599,-0.1454194240555302
6.400000000000472,-0.6163259400311891,-0.10639106246419815
6.600000000000539,-0.6226355759974441,-0.05378236733973465
6.800000000000606,-0.6037996438683102,0.005775121516830576
7.000000000000672,-0.5753524469712628,0.06946769588947492
7.200000000000739,-0.5540811696736015,0.12486638582475143
7.400000000000806,-0.5212429586886388,0.18203635247907363
7.600000000000873,-0.4890953031463721,0.23642825223786393
7.8000000000009395,-0.4556040741174765,0.2908770393092109
8.000000000001005,-0.42074582801783333,0.3476394319192409
8.200000000000895,-0.37745989717026324,0.4170170940263298
8.400000000000784,-0.3428627793656747,0.4786183769164179
8.600000000000673,-0.31281663942943483,0.540684597456127
8.800000000000562,-0.2883065555773424,0.6038771226030543
9.000000000000451,-0.262373272776429,0.6679220492830305
9.20000000000034,-0.22572893485793255,0.7334774304634795
9.40000000000023,-0.1902713102407937,0.7919265081821114
9.600000000000119,-0.1657695723981193,0.8460453288405407
9.800000000000008,-0.14532850074737558,0.898296157492796
10.000999999999896,-0.12740650015669153,0.9424489086695796
10.200999999999786,-0.11389043882278653,0.9845988230015934
10.400999999999675,-0.09918339915632841,1.0320210809021697
10.600999999999564,-0.08088740351780159,1.0796396580967513
10.800999999999453,-0.06256329631533197,1.1317115632379422
11.000999999999342,-0.04400490509879083,1.189107051121797
11.200999999999231,-0.015473806423124088,1.249175894185952
11.40099999999912,0.015118363079926265,1.3132293992188124
11.60099999999901,0.04851185166305408,1.3750358128594093
11.800999999998899,0.07798864702874682,1.431892435075875
12.000999999998788,0.10406149930063159,1.4895491582289688
12.200999999998677,0.13197087181848605,1.5489511383411496
12.400999999998566,0.16636943063579626,1.6115845755747988
12.600999999998455,0.21419394348219364,1.6631440805468243
12.800999999998345,0.27039814668409046,1.6968287329390919
13.000999999998234,0.3165556551153577,1.7124335471534238
13.200999999998123,0.37792146720949904,1.7071703694857505
13.400999999998012,0.43825070267057614,1.6992273670459157
13.600999999997901,0.49906589246357913,1.6854589536201687
13.80099999999779,0.5671513656164466,1.6594076968599514
14.00099999999768,0.6293259011172595,1.635463045221892
14.200999999997569,0.6878605464628162,1.6130698264582881
14.400999999997458,0.744638114752424,1.5954282935352386
14.600999999997347,0.7824762325623039,1.5856763596319285
14.800999999997236,0.8202465023621669,1.5725346718534599
15.000999999997125,0.870282288943408,1.5484477029187773
15.200999999997014,0.9352259197047044,1.507516470590522
15.400999999996904,1.0035511835237594,1.4737065687626767
15.600999999996793,1.0701403607647229,1.43326064280862
15.800999999996682,1.1172968924903786,1.376272157366299
16.000999999996573,1.1360638026058076,1.3156542718246165
16.200999999996817,1.128813732031523,1.249916173205482
16.40099999999706,1.109048928509119,1.1810993083051078
16.600999999997306,1.0761025792420766,1.1126470191811308
16.80099999999755,1.0351479727970672,1.0588114449031942
17.000999999997795,0.9899732932698142,1.0340708193898318
17.20099999999804,0.931210907261138,1.0375554596746435
17.400999999998284,0.8744043338108416,1.0523269979182848
17.60099999999853,0.8177656726232072,1.0724058481052914
17.800999999998773,0.7607902928896481,1.1000583311573808
18.000999999999017,0.7035464588936852,1.1265549759879259
18.20099999999926,0.6393366587249436,1.157426672906629
18.400999999999506,0.5765443830493672,1.1879273088026965
18.60099999999975,0.5175087687705979,1.2214121902155788
18.799999999999994,0.48013334913107947,1.2665053612922172
19.000000000000238,0.46711752494405445,1.3065855371835
19.200000000000482,0.46903484072921076,1.3409446011476227
19.400000000000727,0.47859282456954055,1.3799422908284822
19.60000000000097,0.4989985115504431,1.4216693958265267
19.800000000001216,0.51961497012529,1.46248726690784
20.00000000000146,0.5470967519247749,1.5195973110345968
