Time (s),X (m),Y (m)
0.001,0.00042302893680115855,-0.0010314752485082442
0.20000000000000015,0.0016036393289559719,-0.0008801058070443408
0.4000000000000003,0.009748480253304714,0.005995620986945775
0.6000000000000004,0.026774595648790606,0.01780168581932709
0.8000000000000006,0.053930584263666224,0.030622248535691805
1.0000000000000007,0.0820448456306374,0.03559131130321883
1.2009999999999785,0.0969794430995843,0.03710411809770043
1.4009999999999565,0.09841349311450352,0.016668791892782423
1.6009999999999345,0.09312919695698446,-0.004760670928343783
1.8009999999999124,0.08616018087878055,-0.015877580541005347
2.0009999999998906,0.07667713393992365,-0.028635951006576527
2.2009999999998686,0.06038374394487787,-0.03092219096834956
2.4009999999998466,0.02200063644666811,-0.03027105087810776
2.6009999999998246,-0.039597645201157536,-0.02335425757505436
2.8009999999998025,-0.08974086001270935,-0.003926142105426778
3.0009999999997805,-0.13050135565947954,0.027831002925007474
3.2009999999997585,-0.15814961934141075,0.06222440012065724
3.4009999999997365,-0.17669899085770407,0.09246167968251177
3.6009999999997144,-0.18146798265713868,0.10695722658242467
3.8009999999996924,-0.1725247689490123,0.12497663310543357
4.000999999999671,-0.1640307687634799,0.13052323080227554
4.200999999999738,-0.14427901715636046,0.13150342428907746
4.400999999999804,-0.1120252388341957,0.1317897883191248
4.600999999999871,-0.09007196671586983,0.12656148421786434
4.800999999999938,-0.0700892877509393,0.10852591069391591
5.000000000000004,-0.04362111947449923,0.07975036738612969
5.200000000000071,-0.031054215488822968,0.05314122545702947
5.400000000000138,-0.026051685935246486,0.038516958608693065
5.600000000000205,-0.02833781571266348,0.03230602580722246
5.800000000000272,-0.044491891014676654,0.026151667341616298
6.000000000000338,-0.07383167407100809,0.022350530527157474
6.200000000000405,-0.11053580697766188,0.01622177732730983
6.400000000000472,-0.13411065658748736,0.014134681593301366
6.600000000000539,-0.1359941120409231,0.019823376232923053
6.800000000000606,-0.13191109463362907,0.03490614517983966
7.000000000000672,-0.12552438441915562,0.06627861680868208
7.200000000000739,-0.1227874599060585,0.10678943022749182
7.400000000000806,-0.11997590917545899,0.15299630902241343
7.600000000000873,-0.11227536483506047,0.19056602252467555
7.8000000000009395,-0.10363478451194678,0.23790290144426107
8.000000000001005,-0.09014957890634083,0.28623090027946446
8.200000000000895,-0.064370311993518,0.33115759104783915
8.400000000000784,-0.019089823878789988,0.36266608739196293
8.600000000000673,0.014467101694380029,0.3702307567017149
8.800000000000562,0.038725163361297575,0.3649231351935501
9.000000000000451,0.052203369382214954,0.3707322227785159
9.20000000000034,0.03878904026592328,0.36777187825764124
9.40000000000023,0.01740718596964003,0.37639897427892044
9.600000000000119,-0.0052102008657743445,0.39800274855224754
9.800000000000008,-0.023912648714951457,0.437229016657359
10.000999999999896,-0.034227114010612805,0.4780034311490147
10.200999999999786,-0.037134053226881736,0.5227661832075011
10.400999999999675,-0.031264678082494814,0.5660574363737977
10.600999999999564,-0.014244651596683667,0.6030692403189425
10.800999999999453,-0.0025236916924130633,0.6201748794280572
11.000999999999342,-0.016882315969098397,0.619555006532487
11.200999999999231,-0.02801754154312761,0.598876377912985
11.40099999999912,-0.02589542301395592,0.5672846742678832
11.60099999999901,-0.016370726027926934,0.5132122272074332
11.800999999998899,-0.0206109615088567,0.4643086886028275
12.000999999998788,-0.03217095776975161,0.44894265043372744
12.200999999998677,-0.05063395452255324,0.4529159598620131
12.400999999998566,-0.08111867895079782,0.4704659277464573
12.600999999998455,-0.12828085242349008,0.47281591084608204
12.800999999998345,-0.1832826701120091,0.4796052112027392
13.000999999998234,-0.2294324746931936,0.5053114544068454
13.200999999998123,-0.2579091201787096,0.5414805209801159
13.400999999998012,-0.2659398353012747,0.5810539183744805
13.600999999997901,-0.2640463241882881,0.6042209361712431
13.80099999999779,-0.24483004124250862,0.6433633423814379
14.00099999999768,-0.21017156798472264,0.6640626044624507
14.200999999997569,-0.16615766217815872,0.6670309947286732
14.400999999997458,-0.09172361728436322,0.6698467694848523
14.600999999997347,-0.025254197798564977,0.6681969546570866
14.800999999997236,0.0034352933468879427,0.6531833158152697
15.000999999997125,0.03091457471528686,0.6212139410848572
15.200999999997014,0.04862122697337674,0.5796641194076658
15.400999999996904,0.052612981341727275,0.5378803648484901
15.600999999996793,0.032825962724839404,0.49333988778523824
15.800999999996682,-0.008206487609364115,0.4524762278362453
16.000999999996573,-0.05512495728197038,0.424293538580117
16.200999999996817,-0.09306852169028447,0.41252519721323844
16.40099999999706,-0.10114983028195247,0.4199256387053042
16.600999999997306,-0.10279911390113654,0.4421402839467617
16.80099999999755,-0.12516706600700325,0.4773288580526929
17.000999999997795,-0.1392960421313496,0.5179137081640593
17.20099999999804,-0.16501363895226345,0.5628991595912729
17.400999999998284,-0.18943957207220707,0.6030901207739731
17.60099999999853,-0.21435239250279042,0.6575227209449966
17.800999999998773,-0.2278226131538544,0.7202780645885595
18.000999999999017,-0.22054722293654289,0.7552882003318991
18.20099999999926,-0.20109990848190254,0.7913049219723531
18.400999999999506,-0.17447657793556134,0.8237144670391168
18.60099999999975,-0.13760561036970015,0.8412169944830088
18.799999999999994,-0.10375017972003066,0.849262053530859
19.000000000000238,-0.08473885271654141,0.8463224992740008
19.200000000000482,-0.06302996166963239,0.831214467591249
19.400000000000727,-0.05744065024517599,0.8204451015469414
19.60000000000097,-0.07000098997604229,0.8223674760985022
19.800000000001216,-0.09339862806388456,0.8308442914872587
20.00000000000146,-0.12628415700435,0.8365697298632054
