Time (s),X (m),Y (m)
0.001,0.0008589492133542695,0.0009348340498585851
0.20000000000000015,0.00085063408283834,-0.00034796159273419564
0.4000000000000003,0.0027317233895864973,0.001161720476669594
0.6000000000000004,0.005806677032157921,0.003731415105373168
0.8000000000000006,0.009266530337422476,0.008205946018946253
1.0000000000000007,0.013465369175137448,0.008190944093195648
1.2009999999999785,0.02272038300173779,0.015401145314310484
1.4009999999999565,0.03905628490552921,0.01494932357166056
1.6009999999999345,0.046949269742645884,0.016208213112218806
1.8009999999999124,0.05678210518010067,0.019203213793711826
2.0009999999998906,0.06660439041572588,0.020579496442462732
2.2009999999998686,0.07402703587709751,0.020322425541396984
2.4009999999998466,0.08183939461768551,0.02443446718172259
2.6009999999998246,0.09053412074636213,0.031671860461947414
2.8009999999998025,0.10246244170202787,0.04221927828944233
3.0009999999997805,0.12219469146700342,0.04973759761299308
3.2009999999997585,0.14558341137531108,0.0663572433085815
3.4009999999997365,0.16268912776496258,0.07924911450578344
3.6009999999997144,0.17735755059498676,0.0905661635626961
3.8009999999996924,0.19540347616617568,0.10265835767443632
4.000999999999671,0.21518809261736885,0.11154735610204031
4.200999999999738,0.23633697136658963,0.12427171434562338
4.400999999999804,0.2520838689432397,0.13120355785909008
4.600999999999871,0.26718024994202727,0.12776509126125452
4.800999999999938,0.2784967636601682,0.12472230191425875
5.000000000000004,0.2951219266101897,0.13890957646963428
5.200000000000071,0.3112648331857368,0.15225592581478756
5.400000000000138,0.3244861205343445,0.1566238885762679
5.600000000000205,0.3394063817185013,0.1606398474163001
5.800000000000272,0.3600105340556457,0.1715004533280436
6.000000000000338,0.3787933671611256,0.1757057432811732
6.200000000000405,0.3942205295144587,0.1886592707271922
6.400000000000472,0.41014811719887795,0.19342480758136188
6.600000000000539,0.4319285130970913,0.20187247816933387
6.800000000000606,0.45677870912830093,0.20975256823121868
7.000000000000672,0.473594873755325,0.21419420457216196
7.200000000000739,0.49698929618548754,0.2250699020420656
7.400000000000806,0.5204657525409865,0.23152426488149977
7.600000000000873,0.539513943846532,0.24345712304382433
7.8000000000009395,0.5586692562739533,0.25026666531448954
8.000000000001005,0.5777098334444456,0.25178523649604273
8.200000000000895,0.5943728457979173,0.2602389066215671
8.400000000000784,0.6090197993930662,0.26397008311925185
8.600000000000673,0.6292352490671176,0.2783498447035377
8.800000000000562,0.6504240796951841,0.28810167047014024
9.000000000000451,0.669119020972588,0.29383540391359053
9.20000000000034,0.6830507520878446,0.3037082142137254
9.40000000000023,0.7026175168445039,0.31119814538801094
9.600000000000119,0.7216642504380298,0.3238643766163025
9.800000000000008,0.7433449044394461,0.3370262365410597
10.000999999999896,0.770118393765266,0.3559709096975108
10.200999999999786,0.7995878618656341,0.3777123433312433
10.400999999999675,0.8258636391155249,0.3934688417099667
10.600999999999564,0.8469868366243889,0.4008692593762033
10.800999999999453,0.8685229527419756,0.41781806093560936
11.000999999999342,0.8889184658222918,0.4241159193299597
11.200999999999231,0.909291960239637,0.4334757247471343
11.40099999999912,0.9282947063203246,0.45481535191807615
11.60099999999901,0.9505988161879011,0.48053537855050504
11.800999999998899,0.9762312934346745,0.5048514970633236
12.000999999998788,1.000861307531371,0.5148224927741613
12.200999999998677,1.0244809977843792,0.5304685397649791
12.400999999998566,1.0509236352532023,0.546628903371759
12.600999999998455,1.076813292417082,0.5582272704368053
12.800999999998345,1.1020248066116156,0.5690459115435981
13.000999999998234,1.1284983711453342,0.5844183152186717
13.200999999998123,1.1522926857536835,0.5883933391437289
13.400999999998012,1.1728981035151533,0.6059686616477797
13.600999999997901,1.1965515000260496,0.618184470400122
13.80099999999779,1.2183136642779213,0.6271325929416717
14.00099999999768,1.2441317217108707,0.6367803157951116
14.200999999997569,1.2716732141397957,0.641525345059966
14.400999999997458,1.2971673898156895,0.6564871738121099
14.600999999997347,1.3235598677561888,0.6741255249820997
14.800999999997236,1.3484875164616683,0.6810423803022939
15.000999999997125,1.3734983372343132,0.6916889073865762
15.200999999997014,1.3994746068480957,0.7067334280786539
15.400999999996904,1.423737322301554,0.7099997463917777
15.600999999996793,1.44678431451531,0.7168137004368661
15.800999999996682,1.4703518900204158,0.7267556030676458
16.000999999996573,1.4927721473857423,0.7451605807539388
16.200999999996817,1.5147272786503434,0.7587418907082659
16.40099999999706,1.5351453788268488,0.7731701690197317
16.600999999997306,1.5575271890235869,0.7962578522349884
16.80099999999755,1.5818284141764274,0.8129271765468488
17.000999999997795,1.604489118150521,0.8333468247080688
17.20099999999804,1.627626036592456,0.8478079037120304
17.400999999998284,1.6512708491160777,0.8631673068655189
17.60099999999853,1.6771853723336292,0.8758837880846686
17.800999999998773,1.7008607166130134,0.8923793586911766
18.000999999999017,1.7255865087434836,0.9054101308358151
18.20099999999926,1.7475892882779205,0.9189324572029146
18.400999999999506,1.7702134573246504,0.9256641766273095
18.60099999999975,1.7895888188309634,0.9372624744801961
18.799999999999994,1.8060830039402676,0.9586492757127576
19.000000000000238,1.8238390188554796,0.9717710963565688
19.200000000000482,1.8414819226770016,0.9879701883761977
19.400000000000727,1.8588906059381998,1.0088606753263887
19.60000000000097,1.8754596836481423,1.032048811282728
19.800000000001216,1.8948071438915743,1.0532708301983107
20.00000000000146,1.9141817313232845,1.0777449816251832
