Time (s),X (m),Y (m)
0.001,0.00015606349793537,0.0009963285817120476
0.20000000000000015,0.0012544925681127912,-0.0007566177981320704
0.4000000000000003,0.003670074374844981,0.0014946326703586931
0.6000000000000004,0.015462387489982497,0.016865013608315018
0.8000000000000006,0.03616401050036501,0.02957476142129694
1.0000000000000007,0.057259393702281315,0.04167267250612492
1.2009999999999785,0.0783306141268361,0.04654046243777685
1.4009999999999565,0.09975970846961345,0.05425577642703949
1.6009999999999345,0.12363762183272164,0.0508750849952175
1.8009999999999124,0.15336129655625277,0.05347322798034185
2.0009999999998906,0.181581466349122,0.05487420024732043
2.2009999999998686,0.1983531277962797,0.04274340225701623
2.4009999999998466,0.2122590195714177,0.019874044268078084
2.6009999999998246,0.2293617077008326,-0.00043910392442434
2.8009999999998025,0.253123687321392,-0.017499855396509518
3.0009999999997805,0.27465585702583,-0.03558325386385953
3.2009999999997585,0.29728931011519133,-0.05322511465178239
3.4009999999997365,0.3282642565786612,-0.06627575398321883
3.6009999999997144,0.3636184654987542,-0.07038131937684257
3.8009999999996924,0.40341321413410175,-0.06847392730496832
4.000999999999671,0.4428529414021907,-0.067452050100514
4.200999999999738,0.4801366571960229,-0.06843472623744136
4.400999999999804,0.5176124438269829,-0.08062900531865377
4.600999999999871,0.5545102806091963,-0.08842756916975922
4.800999999999938,0.589243817945683,-0.11139148802295032
5.000000000000004,0.621535911432801,-0.1416142029158354
5.200000000000071,0.6553245976054944,-0.16959640315830213
5.400000000000138,0.6947050646040193,-0.1940515231733795
5.600000000000205,0.7384457375947154,-0.19945783784608762
5.800000000000272,0.7838733714252861,-0.2053444827750654
6.000000000000338,0.8287840847467607,-0.20958000030327664
6.200000000000405,0.8609842738079972,-0.2329784711379545
6.400000000000472,0.8809281556384999,-0.26897204765916666
6.600000000000539,0.90905098832815,-0.3034301941351137
6.800000000000606,0.942166687092393,-0.3377449377164848
7.000000000000672,0.9568990302416942,-0.3709848819007127
7.200000000000739,0.9493236627219563,-0.40450953720497146
7.400000000000806,0.932464012675382,-0.4382080914711169
7.600000000000873,0.9253935850146271,-0.47614267793911197
7.8000000000009395,0.9002119263327228,-0.5135758216337553
8.000000000001005,0.8833616891490407,-0.5539607348521352
8.200000000000895,0.8696913641615949,-0.5948491522787538
8.400000000000784,0.8446949311605753,-0.6346510216153769
8.600000000000673,0.8162493370191819,-0.6722303867246139
8.800000000000562,0.7904898201619734,-0.7089956383755637
9.000000000000451,0.7744731677226245,-0.7511950697612123
9.20000000000034,0.7498147759692253,-0.7854907443609801
9.40000000000023,0.7168658926521566,-0.8154230502319951
9.600000000000119,0.6709885200483278,-0.8410764853486923
9.800000000000008,0.6363323869164665,-0.8728186278844475
10.000999999999896,0.595979709954982,-0.9054831665199662
10.200999999999786,0.5519685186106377,-0.9362792009797323
10.400999999999675,0.512406422549418,-0.9629935149082155
10.600999999999564,0.4711019153434778,-0.9917041915769914
10.800999999999453,0.42897347836398,-1.0236228991640193
11.000999999999342,0.3826912865614986,-1.0545862039989375
11.200999999999231,0.33691783205611736,-1.0892212461218058
11.40099999999912,0.28427739926265777,-1.1261013503619761
11.60099999999901,0.2330982468215905,-1.1476198153122827
11.800999999998899,0.1769302329333703,-1.1597289172619376
12.000999999998788,0.1187227850973491,-1.1536761791528787
12.200999999998677,0.0607500994424127,-1.135951003452775
12.400999999998566,0.00560905220016881,-1.1092337041047269
12.600999999998455,-0.04725049386408548,-1.085473837608011
12.800999999998345,-0.0998634775401688,-1.0676124900452237
13.000999999998234,-0.14727909234021724,-1.0450615963242313
13.200999999998123,-0.18339107406219843,-1.0148302861983427
13.400999999998012,-0.21267851359519852,-0.9763554282952778
13.600999999997901,-0.23031143954334796,-0.9219113483169792
13.80099999999779,-0.24887315342816013,-0.8623271437289867
14.00099999999768,-0.27045606316329723,-0.8079447014457236
14.200999999997569,-0.30059408553153016,-0.7566513736750428
14.400999999997458,-0.32052881671505823,-0.7026729272303149
14.600999999997347,-0.308960004983938,-0.6482189014091646
14.800999999997236,-0.2780453718091066,-0.6015548164489908
15.000999999997125,-0.24608995417137317,-0.5604647304438648
15.200999999997014,-0.21331057856897717,-0.5117036463375921
15.400999999996904,-0.17623361037929777,-0.4809723071565141
15.600999999996793,-0.13778120510435016,-0.47510990528705627
15.800999999996682,-0.09685415358923287,-0.4775209408782236
16.000999999996573,-0.059298280412427705,-0.4908387906484232
16.200999999996817,-0.02519675209320988,-0.5215384387900552
16.40099999999706,0.012453217150268255,-0.5611295966790818
16.600999999997306,0.03490197981761893,-0.6049223588400667
16.80099999999755,0.05538230664547431,-0.6537629991273008
17.000999999997795,0.07288520301383075,-0.7048716314290866
17.20099999999804,0.06267240966430102,-0.7518953932189258
17.400999999998284,0.020088960504540655,-0.7890870302211078
17.60099999999853,-0.021140647554706904,-0.8237287619562876
17.800999999998773,-0.06684817134024823,-0.8572563229465431
18.000999999999017,-0.11869638498122319,-0.8857795972984855
18.20099999999926,-0.17057331390474503,-0.9090444084317695
18.400999999999506,-0.21390911888805486,-0.9386120317043957
18.60099999999975,-0.26025433962302025,-0.9698357000210674
18.799999999999994,-0.29196091014707454,-1.0036828593625935
19.000000000000238,-0.31422958215911995,-1.0350519755667205
19.200000000000482,-0.3308473540931413,-1.0687458362508102
19.400000000000727,-0.350244849334379,-1.103352035988576
19.60000000000097,-0.37241426158114266,-1.1356413524933473
19.800000000001216,-0.3934305515774591,-1.1738348446062479
20.00000000000146,-0.4283009817502265,-1.2150820564605218
