Time (s),X (m),Y (m)
0.001,0.0009387665610552813,-0.0008932837685830058
0.20000000000000015,0.0006535332487943646,0.000991568187094114
0.4000000000000003,0.008192981031201507,-0.011544780786958234
0.6000000000000004,0.021779457009269042,-0.013442618380653316
0.8000000000000006,0.04201228103359346,-0.0227490483184914
1.0000000000000007,0.061407387615117166,-0.041458077045786156
1.2009999999999785,0.07986477380640963,-0.09092446648234256
1.4009999999999565,0.09649518255153451,-0.1414527553922344
1.6009999999999345,0.10923006595925289,-0.19903714395977062
1.8009999999999124,0.11765890832914315,-0.23829922952894944
2.0009999999998906,0.12360823235043826,-0.2843948851824579
2.2009999999998686,0.13575082628549545,-0.3212902839397808
2.4009999999998466,0.15218196225245928,-0.3561242391174125
2.6009999999998246,0.16637970588067372,-0.38666934039340467
2.8009999999998025,0.17905867935662675,-0.41973463628710467
3.0009999999997805,0.19557022244127864,-0.4479821458193589
3.2009999999997585,0.2192655134721033,-0.46883583061697404
3.4009999999997365,0.24349512196960418,-0.5052288484519574
3.6009999999997144,0.2634074294436679,-0.5453896313935492
3.8009999999996924,0.2860845979015896,-0.5834946073014574
4.000999999999671,0.31094811608660655,-0.6134088985170145
4.200999999999738,0.3361799229127911,-0.6434845219619623
4.400999999999804,0.3634454982290116,-0.6725819449225875
4.600999999999871,0.38039988796252217,-0.7268215426385157
4.800999999999938,0.3830788893954125,-0.788187362634922
5.000000000000004,0.3837162929219941,-0.8491222010801022
5.200000000000071,0.37775311899806885,-0.9175940220943177
5.400000000000138,0.38059954514255967,-0.983432456944136
5.600000000000205,0.38221192735525866,-1.0491467113194068
5.800000000000272,0.3860471586088436,-1.1054743317283782
6.000000000000338,0.39286788694180974,-1.154753279480776
6.200000000000405,0.40065032262084505,-1.2079795240205662
6.400000000000472,0.4082116727758301,-1.2670556481830522
6.600000000000539,0.41638885316288077,-1.31770262239616
6.800000000000606,0.4253145496739506,-1.3649423358455168
7.000000000000672,0.43462494295086823,-1.411105092068111
7.200000000000739,0.4444749703388942,-1.4640158075816783
7.400000000000806,0.45279937952860916,-1.5239385643813965
7.600000000000873,0.4585397955400355,-1.591774715947296
7.8000000000009395,0.4646903361400783,-1.667133247583382
8.000000000001005,0.4713476885137041,-1.7483183931192765
8.200000000000895,0.4796210280772533,-1.8357694404008142
8.400000000000784,0.4864185638732877,-1.9036426690475734
8.600000000000673,0.4932194797627204,-1.9536255538458052
8.800000000000562,0.5084308813412313,-1.9913157022754255
9.000000000000451,0.5286503608615184,-2.037973511602903
9.20000000000034,0.5468256289340457,-2.0933726483786517
9.40000000000023,0.5682221325167357,-2.1397278798160544
9.600000000000119,0.5899344395689546,-2.1817709289214453
9.800000000000008,0.6135436134479867,-2.2267325373279188
10.000999999999896,0.6321752163273854,-2.2918066771071097
10.200999999999786,0.6463581788398363,-2.360338309473602
10.400999999999675,0.6650779253039203,-2.4362892091464543
10.600999999999564,0.6761693594308223,-2.5087614156567346
10.800999999999453,0.666721446200996,-2.5854222335567054
11.000999999999342,0.6498562414119519,-2.6633425400331845
11.200999999999231,0.635769286903463,-2.7429009979091745
11.40099999999912,0.6324350971513495,-2.8168768394702064
11.60099999999901,0.6323255754035049,-2.893457603353087
11.800999999998899,0.6367056727568942,-2.9698933940349335
12.000999999998788,0.639216172707653,-3.0532900949317177
12.200999999998677,0.638222975071,-3.1427128405738154
12.400999999998566,0.6358283783895479,-3.2217029498095267
12.600999999998455,0.6264315572499869,-3.3046780427596643
12.800999999998345,0.6184526519044174,-3.3878270145525446
13.000999999998234,0.6138091528399173,-3.463874931071759
13.200999999998123,0.616100454236596,-3.544844906856332
13.400999999998012,0.6279827288320606,-3.619700807874657
13.600999999997901,0.6366830140723244,-3.705932806267115
13.80099999999779,0.641469475669116,-3.7970962506024133
14.00099999999768,0.6492809651756446,-3.887403022202986
14.200999999997569,0.6322887703311275,-3.9667673246927824
14.400999999997458,0.6066621035604198,-4.030709257853133
14.600999999997347,0.57518868927939,-4.080233762176865
14.800999999997236,0.5402404105560118,-4.129696578638427
15.000999999997125,0.5012051223219368,-4.1794096500066
15.200999999997014,0.4487553033476412,-4.204056906853961
15.400999999996904,0.38996281599912763,-4.189690406285751
15.600999999996793,0.3341187521754948,-4.156506048835948
15.800999999996682,0.2890066686013869,-4.102047312260812
16.000999999996573,0.2510240977061874,-4.037633232889972
16.200999999996817,0.2225413902769457,-3.972466735912485
16.40099999999706,0.1969124364923906,-3.8959352561436735
16.600999999997306,0.1863142369154948,-3.814348094605756
16.80099999999755,0.18562573191921242,-3.732441829071387
17.000999999997795,0.19137217463907572,-3.6539763763151556
17.20099999999804,0.229421255974503,-3.586092753544879
17.400999999998284,0.2891650716818564,-3.5435202139118327
17.60099999999853,0.349638035777305,-3.5134633904132127
17.800999999998773,0.40439317799742003,-3.490705413096783
18.000999999999017,0.4633924724971188,-3.47315931618093
18.20099999999926,0.5272680436844809,-3.463782087955385
18.400999999999506,0.5930717927342285,-3.464030416310185
18.60099999999975,0.6611695659688414,-3.4674874535261475
18.799999999999994,0.726961695116746,-3.465957792185493
19.000000000000238,0.7919939968318913,-3.486176383537197
19.200000000000482,0.8491933667850915,-3.504767740033367
19.400000000000727,0.8867635664126531,-3.542364998248012
19.60000000000097,0.915044607994151,-3.5824151041293484
19.800000000001216,0.9412693916683118,-3.635353768727618
20.00000000000146,0.971423716974028,-3.6888221946752897
