Time (s),X (m),Y (m)
0.001,-0.0005462407427453492,-0.00035278531233166996
0.20000000000000015,0.0019154178381940294,0.0006584739376005548
0.4000000000000003,-0.0010714582261614636,0.003264984354742313
0.6000000000000004,0.006705799665260127,0.009648580545078864
0.8000000000000006,0.012164355599101036,0.017231487950762996
1.0000000000000007,0.017442335077573583,0.02532580985317943
1.2009999999999785,0.022781947915918525,0.0343716621311872
1.4009999999999565,0.033762378052565066,0.039252502922140144
1.6009999999999345,0.05039707984916571,0.034423669438488944
1.8009999999999124,0.07405826408509442,0.021621413714158145
2.0009999999998906,0.1017414018784356,0.0027781167393271158
2.2009999999998686,0.12288559690549404,-0.01702583853640872
2.4009999999998466,0.1401038144206946,-0.03714852991896228
2.6009999999998246,0.1606777419399587,-0.05878003684006375
2.8009999999998025,0.1829277491984877,-0.07991908368154613
3.0009999999997805,0.19777269802323816,-0.1013919124985675
3.2009999999997585,0.22430377629171774,-0.12857106477631156
3.4009999999997365,0.2602686519559958,-0.16349274520705195
3.6009999999997144,0.2935944017490607,-0.19801567781178425
3.8009999999996924,0.33023842971050094,-0.23287878763902017
4.000999999999671,0.3635358463563097,-0.2691365081436665
4.200999999999738,0.39895066072000623,-0.3084299202641846
4.400999999999804,0.4327057894244218,-0.3502446607006339
4.600999999999871,0.4680711817841419,-0.3946577050715008
4.800999999999938,0.5009757873750824,-0.44701480359173246
5.000000000000004,0.5303254064765738,-0.48956106556008105
5.200000000000071,0.5580283136530324,-0.533228151959953
5.400000000000138,0.5802783036525015,-0.582925136705038
5.600000000000205,0.5975318809765953,-0.6173923616908822
5.800000000000272,0.6101411849215581,-0.6436865162956056
6.000000000000338,0.61543276392273,-0.6801069164287955
6.200000000000405,0.6153542872110012,-0.7331812691626574
6.400000000000472,0.6084187254477526,-0.780673891715432
6.600000000000539,0.5892380081771897,-0.8365810653379289
6.800000000000606,0.5648163832757289,-0.8857826082640118
7.000000000000672,0.5356147128390167,-0.9317877880570106
7.200000000000739,0.49946601708226906,-0.9884514074572824
7.400000000000806,0.46044418227513917,-1.0392088720203465
7.600000000000873,0.4170584278271591,-1.092146705916248
7.8000000000009395,0.3673596983211256,-1.1468269138721507
8.000000000001005,0.3161794088122783,-1.19859215471217
8.200000000000895,0.2636039560704214,-1.2543266035421432
8.400000000000784,0.2075300353275657,-1.3146086667755346
8.600000000000673,0.15505502683569172,-1.372350192744955
8.800000000000562,0.1065462118253111,-1.4239180020241544
9.000000000000451,0.06413196781593589,-1.4722619263746792
9.20000000000034,0.024262252873297543,-1.5136422664887268
9.40000000000023,-0.013397969525101219,-1.5470443205747144
9.600000000000119,-0.05480387138307918,-1.5863222969359876
9.800000000000008,-0.10431672312143757,-1.635849023929381
10.000999999999896,-0.15693913089631764,-1.684391922589566
10.200999999999786,-0.21315607549092597,-1.7409883634839467
10.400999999999675,-0.27136877407871185,-1.7997582818982993
10.600999999999564,-0.3299979978205562,-1.8521432123967947
10.800999999999453,-0.379062863361717,-1.9081980945391026
11.000999999999342,-0.41351703238110227,-1.9596467039722911
11.200999999999231,-0.4262879006832863,-2.029541265448763
11.40099999999912,-0.42964590680728254,-2.1075166203052835
11.60099999999901,-0.4434209039068985,-2.1791510374548175
11.800999999998899,-0.4724556742281066,-2.237836143824342
12.000999999998788,-0.513656619493494,-2.2949396850917974
12.200999999998677,-0.5626928302242213,-2.3519460403409895
12.400999999998566,-0.6144388441858668,-2.425290612341078
12.600999999998455,-0.6671125869076546,-2.502105342648148
12.800999999998345,-0.7165232645466003,-2.5657588809626457
13.000999999998234,-0.7646113340266381,-2.6243715425335687
13.200999999998123,-0.8099197636897941,-2.69088276783491
13.400999999998012,-0.8510540074782063,-2.7655464137573436
13.600999999997901,-0.888594533309776,-2.821147413391485
13.80099999999779,-0.9342278992420436,-2.875076914476353
14.00099999999768,-0.9839172929210444,-2.930101955347592
14.200999999997569,-1.0446479949262533,-2.9919653123927565
14.400999999997458,-1.1099583569376266,-3.054205296141255
14.600999999997347,-1.1761972650512562,-3.104307610153072
14.800999999997236,-1.2460123457898336,-3.135378383013904
15.000999999997125,-1.3202574613888092,-3.1427149876871736
15.200999999997014,-1.3888416111880226,-3.129320580386956
15.400999999996904,-1.4598420431766088,-3.1060700895387177
15.600999999996793,-1.528370647893382,-3.077718080747392
15.800999999996682,-1.6076704815623892,-3.051917749646875
16.000999999996573,-1.6720056896504523,-3.0217314969566496
16.200999999996817,-1.7326757608068195,-2.983935535165453
16.40099999999706,-1.7956348339639947,-2.9410066240141934
16.600999999997306,-1.8636278902831214,-2.888047364076128
16.80099999999755,-1.9303824052640814,-2.8318470642243563
17.000999999997795,-1.9970584999223417,-2.7772459145885633
17.20099999999804,-2.0710234194509676,-2.723705725057314
17.400999999998284,-2.1397470215346224,-2.670593555905942
17.60099999999853,-2.2056992019855333,-2.6146487922486124
17.800999999998773,-2.2803032006852666,-2.554270189356451
18.000999999999017,-2.3540148574516913,-2.488457087949588
18.20099999999926,-2.419020253751793,-2.42350240475092
18.400999999999506,-2.482213563418759,-2.3593173443028643
18.60099999999975,-2.5401670966727186,-2.2985043134040013
18.799999999999994,-2.590160412494295,-2.224938143833503
19.000000000000238,-2.618704924806414,-2.157686702300162
19.200000000000482,-2.618719100720171,-2.0961095013502318
19.400000000000727,-2.5909283803007757,-2.03813194430868
19.60000000000097,-2.543321123300944,-1.9780106174506527
19.800000000001216,-2.490686629498825,-1.9126937869859628
20.00000000000146,-2.4334711548718877,-1.8469169804416972
