Time (s),X (m),Y (m)
0.001,-0.00030633420604510037,-0.000729363142846258
0.20000000000000015,0.0019198752120203992,0.0008393253388209783
0.4000000000000003,0.004002943208558489,-0.0008540229711585249
0.6000000000000004,0.0046154906116473,-0.005734765690505305
0.8000000000000006,0.007351048488172733,-0.009809166284643839
1.0000000000000007,0.014007560991671235,-0.011526837671258928
1.2009999999999785,0.024044709377842,-0.0015050944195020293
1.4009999999999565,0.03400056339093713,0.0038618391115491997
1.6009999999999345,0.04459574656259518,0.006723529847136863
1.8009999999999124,0.05977266118687769,0.016369503753574956
2.0009999999998906,0.07896033838699762,0.02931357685223259
2.2009999999998686,0.1069018037052581,0.04657764653662692
2.4009999999998466,0.13071733957491613,0.055046787115550284
2.6009999999998246,0.15004410718839775,0.06014688616681913
2.8009999999998025,0.16404094366857352,0.0653150998995039
3.0009999999997805,0.18607730104653408,0.08546426128073108
3.2009999999997585,0.215866406079452,0.10931788934499274
3.4009999999997365,0.24682717074059676,0.12932839902216306
3.6009999999997144,0.26881402076505156,0.15106357602816045
3.8009999999996924,0.2792009854081937,0.17960956447764267
4.000999999999671,0.2871042484379765,0.2072714807721248
4.200999999999738,0.298187408915622,0.23664189373413314
4.400999999999804,0.30970257510977106,0.268457128914012
4.600999999999871,0.3224484234003176,0.28901923848885364
4.800999999999938,0.3339818413248873,0.3100579466752924
5.000000000000004,0.34772063398515335,0.3394930635020962
5.200000000000071,0.36397221765371907,0.3663591108182618
5.400000000000138,0.3789526122842417,0.38995771759668313
5.600000000000205,0.39022173048955927,0.4127922091212311
5.800000000000272,0.3990675326718805,0.43680998014109246
6.000000000000338,0.40689683064395105,0.45393828384024154
6.200000000000405,0.4185650639903129,0.47559129474598016
6.400000000000472,0.43536414274637586,0.4944622216794505
6.600000000000539,0.4538604336585601,0.5238936504999376
6.800000000000606,0.47081043494593533,0.5477578291056753
7.000000000000672,0.49159023123847984,0.5622283238334748
7.200000000000739,0.5053081637816949,0.5880062343545249
7.400000000000806,0.5187576252616205,0.6188326414093218
7.600000000000873,0.5352366141348293,0.6459986540519232
7.8000000000009395,0.5544985789185267,0.6720612351095401
8.000000000001005,0.5754585099676197,0.7047014498788093
8.200000000000895,0.603002434150927,0.7335318196847961
8.400000000000784,0.6343164528414605,0.7620931352297554
8.600000000000673,0.6658848709804281,0.7888786623617072
8.800000000000562,0.7009615827966361,0.8112862167126819
9.000000000000451,0.7389464046608979,0.8290983528358575
9.20000000000034,0.7695923883483009,0.8481726553827261
9.40000000000023,0.7957015916769449,0.8744945091310439
9.600000000000119,0.815838688207637,0.9146763156998322
9.800000000000008,0.8307836144819803,0.9558422988782119
10.000999999999896,0.8465242112331294,1.0039805456651059
10.200999999999786,0.8708704639680367,1.0428923551165135
10.400999999999675,0.9053936304925002,1.0718329750236264
10.600999999999564,0.9368718971850132,1.110989433509983
10.800999999999453,0.9529075212517963,1.1514185583424374
11.000999999999342,0.9606476788263297,1.1907704965923132
11.200999999999231,0.9702821194244612,1.2384591758676262
11.40099999999912,0.9854133505866388,1.276577986041096
11.60099999999901,1.0002163010739402,1.309192166006337
11.800999999998899,1.0164403794757735,1.3474999430203098
12.000999999998788,1.0375442316047072,1.3903727563559545
12.200999999998677,1.063543218533257,1.4325885450665456
12.400999999998566,1.0969374392096858,1.4667897288184117
12.600999999998455,1.1344814052783516,1.4895413278632874
12.800999999998345,1.1699258552447143,1.5222956324902261
13.000999999998234,1.204502746575356,1.5647425714087888
13.200999999998123,1.2395538831042845,1.6033387807076986
13.400999999998012,1.2797173668592359,1.6426920036928987
13.600999999997901,1.3148856355945249,1.692449115463179
13.80099999999779,1.3408600643336865,1.7470022130704426
14.00099999999768,1.3549547250822565,1.7960217643129335
14.200999999997569,1.35752290800116,1.8397720960185722
14.400999999997458,1.3587815699788073,1.8849549714581009
14.600999999997347,1.348655991220126,1.937583791834264
14.800999999997236,1.3279948037762954,1.9906087453901928
15.000999999997125,1.3059623126584023,2.04273079800318
15.200999999997014,1.2827757762597012,2.095637338891204
15.400999999996904,1.2587763871202602,2.1494132122004648
15.600999999996793,1.2327886675208395,2.20669594691843
15.800999999996682,1.1980201298311026,2.2609258934812146
16.000999999996573,1.1637328446144595,2.312603073572753
16.200999999996817,1.1395664101653344,2.358358654496569
16.40099999999706,1.1015903176587263,2.3964869207535657
16.600999999997306,1.0607210798392022,2.429222966744494
16.80099999999755,1.018589975081575,2.457058837414839
17.000999999997795,0.972950606840901,2.486140216180879
17.20099999999804,0.9198924096430153,2.5137243389793182
17.400999999998284,0.8665784342421451,2.545296453409403
17.60099999999853,0.806606826150526,2.5753656608800255
17.800999999998773,0.7660055744381897,2.601794816614661
18.000999999999017,0.717294321524578,2.6293150267601395
18.20099999999926,0.6587365918430937,2.6542553621469365
18.400999999999506,0.6025156426516711,2.677937994685983
18.60099999999975,0.5501724106543763,2.6969956129011994
18.799999999999994,0.4983953655345529,2.7050308881827267
19.000000000000238,0.45131563552765785,2.705268972025006
19.200000000000482,0.3981118942234969,2.7019134888254053
19.400000000000727,0.34501503952128093,2.7059941093611677
19.60000000000097,0.30249808410943274,2.7203288603281823
19.800000000001216,0.25192082117313985,2.728107338943453
20.00000000000146,0.19428738626327,2.7309774501555557
