Time (s),X (m),Y (m)
0.001,0.0010146588340248276,0.000844935058449024
0.20000000000000015,0.0006658442743045556,-0.0002691934905117223
0.4000000000000003,0.005442775803232368,-0.0009940496699229005
0.6000000000000004,0.009396094700418125,-0.0023332436209249022
0.8000000000000006,0.02371252968938676,0.006504878215149348
1.0000000000000007,0.04222926314580734,0.026252596140262683
1.2009999999999785,0.056376697325779476,0.03600610408270368
1.4009999999999565,0.07293705525867933,0.04198989301609658
1.6009999999999345,0.08699087659104934,0.03844985465550692
1.8009999999999124,0.1097352456798967,0.03639658817162894
2.0009999999998906,0.13281578908678437,0.034562340493987424
2.2009999999998686,0.15098281006703496,0.027444893847719296
2.4009999999998466,0.17786139829832925,0.019618802542992985
2.6009999999998246,0.1998109323588164,0.013890569463183742
2.8009999999998025,0.22726988937884263,0.01603199677382206
3.0009999999997805,0.24988370089569886,0.02017714236459546
3.2009999999997585,0.2780193594166728,0.013158999904998478
3.4009999999997365,0.3008798177130411,-0.000703208493675193
3.6009999999997144,0.3112524771698283,-0.021039080267406345
3.8009999999996924,0.3326098179833752,-0.04322858261785203
4.000999999999671,0.34207930166539535,-0.06591635407900492
4.200999999999738,0.36326572602557766,-0.08464149542580378
4.400999999999804,0.38604763574225803,-0.09440204867355682
4.600999999999871,0.40799860566757457,-0.10125548591398899
4.800999999999938,0.43567020179926147,-0.11094619884011916
5.000000000000004,0.4725802141350001,-0.12008359727837417
5.200000000000071,0.49220391049241763,-0.1378017767740281
5.400000000000138,0.5106829154565155,-0.16317331616925293
5.600000000000205,0.5331975871066627,-0.19241428994888754
5.800000000000272,0.5543704290060192,-0.221377926612889
6.000000000000338,0.5831959573346667,-0.2553616753177999
6.200000000000405,0.6189930242966346,-0.29312747029028774
6.400000000000472,0.6459392533039184,-0.32584440719820157
6.600000000000539,0.6824540962477501,-0.3520491211953757
6.800000000000606,0.7152791143133161,-0.37666290974909855
7.000000000000672,0.7408863275531112,-0.4045654217272094
7.200000000000739,0.776581943171169,-0.439650730176804
7.400000000000806,0.7931708315464454,-0.4738155390480898
7.600000000000873,0.8116175980103969,-0.5148576784495489
7.8000000000009395,0.8416742809432591,-0.5646398693262916
8.000000000001005,0.8814284582747105,-0.6165741926604248
8.200000000000895,0.909764666645453,-0.6708950758122756
8.400000000000784,0.9284357677518201,-0.7215872294150412
8.600000000000673,0.9502128656377724,-0.7784888106707528
8.800000000000562,0.9679943393959014,-0.8336313593647451
9.000000000000451,0.9801809880782182,-0.8817091715168162
9.20000000000034,0.9817369099530893,-0.9261494912595136
9.40000000000023,0.9684694490118209,-0.9678733057743909
9.600000000000119,0.9531736883407677,-1.0065830368772601
9.800000000000008,0.9349839912298252,-1.0541030862848513
10.000999999999896,0.913646329527113,-1.0952424310620965
10.200999999999786,0.8846865052958414,-1.1360536514576425
10.400999999999675,0.8543230697799384,-1.177316226984389
10.600999999999564,0.8154092520079801,-1.2200920617566524
10.800999999999453,0.7729397631221848,-1.2603331225211167
11.000999999999342,0.7275055450717443,-1.3014522248203357
11.200999999999231,0.6774166069364584,-1.3494044583507314
11.40099999999912,0.6318447516074313,-1.377176888787947
11.60099999999901,0.5794402701060719,-1.4062553936843722
11.800999999998899,0.5181252673244738,-1.4412152686157498
12.000999999998788,0.45768299669040935,-1.471228114316979
12.200999999998677,0.40008729886664857,-1.517668486929271
12.400999999998566,0.34342578583529637,-1.5773351526846722
12.600999999998455,0.28292274235693926,-1.6307393121959912
12.800999999998345,0.21887537269986299,-1.6763393555544381
13.000999999998234,0.160995462027266,-1.7210135377855842
13.200999999998123,0.09860187193987895,-1.7650565500197108
13.400999999998012,0.023055661983805095,-1.8137743787942842
13.600999999997901,-0.05658621134615681,-1.8587195132028491
13.80099999999779,-0.1322664893056867,-1.9116769460901422
14.00099999999768,-0.20431973083657942,-1.9674592281572618
14.200999999997569,-0.28036742557707156,-2.0160435874441416
14.400999999997458,-0.34282432135482566,-2.0526450005571664
14.600999999997347,-0.40429154295496333,-2.102184993546743
14.800999999997236,-0.4695513170348378,-2.1527783209786486
15.000999999997125,-0.5394826407602472,-2.1899519658390396
15.200999999997014,-0.6166674753684654,-2.231151093230234
15.400999999996904,-0.6929612243824235,-2.276466047566572
15.600999999996793,-0.7630901514819868,-2.326045612241888
15.800999999996682,-0.8289291971481765,-2.36682483378017
16.000999999996573,-0.8971843576400621,-2.4057831752814693
16.200999999996817,-0.9638396101644923,-2.4478277778288344
16.40099999999706,-1.0148091613199755,-2.519857496435399
16.600999999997306,-1.051087588377881,-2.5943862434707583
16.80099999999755,-1.0936396040796148,-2.658596033293746
17.000999999997795,-1.1503910637644128,-2.7206472547646756
17.20099999999804,-1.213357358764491,-2.764143901827196
17.400999999998284,-1.2795560736500382,-2.8182268097538903
17.60099999999853,-1.3277695813796038,-2.8840193275433803
17.800999999998773,-1.3555104492657,-2.9515184659557523
18.000999999999017,-1.3705624760179909,-3.032370690794471
18.20099999999926,-1.3841620598185949,-3.109429756078323
18.400999999999506,-1.4020579159728248,-3.171410336462254
18.60099999999975,-1.4398219053379433,-3.2208804847670858
18.799999999999994,-1.4800987270490993,-3.2617568419486926
19.000000000000238,-1.526053004730559,-3.3031333737003226
19.200000000000482,-1.5785390590231805,-3.347300883594555
19.400000000000727,-1.6336623503329097,-3.3961169675474854
19.60000000000097,-1.6912569064212832,-3.4389545006546496
19.800000000001216,-1.7440696589353513,-3.49742565264794
20.00000000000146,-1.7911711695764772,-3.5563070818511378
