Time (s),X (m),Y (m)
0.001,-0.0005462407427453492,-0.00035278531233166996
0.20000000000000015,0.0014379999353874226,0.000353391046814188
0.4000000000000003,0.0012942634845822614,0.0010308130287565531
0.6000000000000004,0.004491367739811886,0.004372169468615326
0.8000000000000006,0.014539893378612159,0.014175004261217834
1.0000000000000007,0.021798769948384398,0.022649274637738085
1.2009999999999785,0.022625220633579815,0.029570631757016425
1.4009999999999565,0.024405039679470098,0.033942257763112424
1.6009999999999345,0.03258193100521262,0.03934728989096538
1.8009999999999124,0.03936010502462701,0.045780204021000595
2.0009999999998906,0.04481904673378159,0.053176044974241915
2.2009999999998686,0.056155083632044,0.06537968298371793
2.4009999999998466,0.06685253079417096,0.07665949265532977
2.6009999999998246,0.0866826654089147,0.08976159797903711
2.8009999999998025,0.10025698402056421,0.10200417347186175
3.0009999999997805,0.11070224633824456,0.11117220341162044
3.2009999999997585,0.11373833727188996,0.11873380791326166
3.4009999999997365,0.12533439727403195,0.12783926020288394
3.6009999999997144,0.1409552695485386,0.13862567024263248
3.8009999999996924,0.15024765266564008,0.14818528547814314
4.000999999999671,0.15451132671717893,0.15592792906692382
4.200999999999738,0.166554179611205,0.16484502603588633
4.400999999999804,0.189462078087543,0.1770515344543173
4.600999999999871,0.21876912979947144,0.19452991684422175
4.800999999999938,0.23326322282859616,0.21072259949958186
5.000000000000004,0.2434134054959131,0.22301858211682155
5.200000000000071,0.2621103450286364,0.23394135769869268
5.400000000000138,0.2864963895893738,0.25017757903276827
5.600000000000205,0.3046191661772048,0.2702217782591889
5.800000000000272,0.32475755996880906,0.28905278910511867
6.000000000000338,0.3400628373626493,0.304194562047628
6.200000000000405,0.3663206572858285,0.3208097347489718
6.400000000000472,0.39832695739953045,0.33145968413465543
6.600000000000539,0.4200732724213064,0.33124798015604584
6.800000000000606,0.44837637790492696,0.31836027481844054
7.000000000000672,0.4745205365783292,0.3064076623076279
7.200000000000739,0.4866886137815593,0.2953571356505363
7.400000000000806,0.5011188180644292,0.2912446447057186
7.600000000000873,0.5247500539719843,0.29348443472324137
7.8000000000009395,0.5494604884552227,0.2951498881445636
8.000000000001005,0.5779094052938342,0.297022504156054
8.200000000000895,0.5890801315727403,0.29470433187520007
8.400000000000784,0.6125968027879195,0.2892510804369497
8.600000000000673,0.6474307930252883,0.28386894608822366
8.800000000000562,0.6785211241128201,0.2785335234620971
9.000000000000451,0.6977603941320624,0.2725023648864134
9.20000000000034,0.7247170915026124,0.2683007384166948
9.40000000000023,0.7547896904511369,0.2611446556847881
9.600000000000119,0.7853078703478525,0.24445550687097128
9.800000000000008,0.8144231253147262,0.2235404028034944
10.000999999999896,0.8431991328229338,0.20570692717543843
10.200999999999786,0.8721534176341139,0.1851126992465209
10.400999999999675,0.9030641539568002,0.16000566946217967
10.600999999999564,0.9250352934573383,0.1367190273925701
10.800999999999453,0.9536453990368996,0.11651333324647888
11.000999999999342,0.9686821545892058,0.1019415253794074
11.200999999999231,0.9836701034740007,0.09184662697657976
11.40099999999912,1.011459432616592,0.08860821525953215
11.60099999999901,1.0388815262779763,0.0869185003624634
11.800999999998899,1.0701956992886092,0.08546512403376218
12.000999999998788,1.0954359595154626,0.08558460316500663
12.200999999998677,1.1088476378133,0.08529289120498722
12.400999999998566,1.123668177690978,0.083117022474392
12.600999999998455,1.1523803065824887,0.08156314999590203
12.800999999998345,1.1866662534092638,0.08024647475407506
13.000999999998234,1.2245459371535279,0.07122259307633455
13.200999999998123,1.2601561149700833,0.052559021208346074
13.400999999998012,1.2895403926263893,0.025841969515620875
13.600999999997901,1.3185238985141645,0.0007519986288040217
13.80099999999779,1.3409821722260127,-0.022206595014165283
14.00099999999768,1.366976113459602,-0.044703852958501336
14.200999999997569,1.38908601049131,-0.05993414349933516
14.400999999997458,1.4140504020641225,-0.0746950491174998
14.600999999997347,1.4436544562292184,-0.09478202632460261
14.800999999997236,1.464377661891403,-0.11241676077609407
15.000999999997125,1.500112512492643,-0.12303170008792481
15.200999999997014,1.5366517779132958,-0.13407789010732685
15.400999999996904,1.5657340408529365,-0.15145240689471015
15.600999999996793,1.5906830602226736,-0.17130187429270458
15.800999999996682,1.6214388780356848,-0.1974593367546099
16.000999999996573,1.6518946701259063,-0.22851774252006823
16.200999999996817,1.6805304426814316,-0.2632456444536957
16.40099999999706,1.7063061461456606,-0.2932982374054874
16.600999999997306,1.7249445102083194,-0.3168030898201274
16.80099999999755,1.7525150267628706,-0.3443472283395241
17.000999999997795,1.785120395946225,-0.36680227990596853
17.20099999999804,1.8195043102148598,-0.38839955470693655
17.400999999998284,1.8548821929068215,-0.412488186307517
17.60099999999853,1.8836376454804782,-0.43617211345046164
17.800999999998773,1.9005524025477336,-0.45795565588864046
18.000999999999017,1.9200103900270482,-0.4756093971048621
18.20099999999926,1.9469180816504665,-0.49213457758021495
18.400999999999506,1.9703056936593333,-0.5009735625300121
18.60099999999975,1.989638739637788,-0.5020978564840459
18.799999999999994,2.018773269642818,-0.5051285267012792
19.000000000000238,2.054258334724483,-0.5197312882795628
19.200000000000482,2.1014033188589516,-0.548058374165612
19.400000000000727,2.141148962096469,-0.580085720508158
19.60000000000097,2.1765214094615675,-0.6109354491881022
19.800000000001216,2.211930781255874,-0.6422315435490162
20.00000000000146,2.2457287837928206,-0.6731573565718232
