Time (s),X (m),Y (m)
0.001,7.024362446948994e-05,0.0009692696795465077
0.20000000000000015,0.001448732651674081,-0.0010065190209445143
0.4000000000000003,0.00497439676933396,-0.0072981631983450165
0.6000000000000004,0.009785112808424234,-0.017297939891892402
0.8000000000000006,0.011984232744881789,-0.04127135737485844
1.0000000000000007,0.02076735479829691,-0.06568692212010985
1.2009999999999785,0.03589788603635967,-0.07686807800934534
1.4009999999999565,0.055794173374350074,-0.11127691134561785
1.6009999999999345,0.07832357109700501,-0.1465452264718877
1.8009999999999124,0.1051534790518444,-0.17393217631669966
2.0009999999998906,0.142913557549933,-0.19934371125929803
2.2009999999998686,0.18093752954807013,-0.2119774308314707
2.4009999999998466,0.22048251206361222,-0.22350407235330763
2.6009999999998246,0.25772305714859794,-0.2306736901767426
2.8009999999998025,0.2968030522419227,-0.23918015554293678
3.0009999999997805,0.3402222720178527,-0.2455610533456118
3.2009999999997585,0.3865562831304144,-0.25661680342238785
3.4009999999997365,0.4318199332393378,-0.2653934259921406
3.6009999999997144,0.47525579653722894,-0.2870332909718178
3.8009999999996924,0.5207910272047284,-0.31613112168002716
4.000999999999671,0.5621329535638734,-0.34189404035055054
4.200999999999738,0.6085131981736794,-0.3505243961691481
4.400999999999804,0.6443181801993763,-0.3821625110792588
4.600999999999871,0.6779208945937242,-0.41501342225209903
4.800999999999938,0.7121704695265253,-0.43290101154818766
5.000000000000004,0.74670661113608,-0.45286945829831754
5.200000000000071,0.7809154785747983,-0.47531652578516875
5.400000000000138,0.8104110591263027,-0.5024770815322991
5.600000000000205,0.8409508361486436,-0.5217105122494136
5.800000000000272,0.871592377193817,-0.5396412413845625
6.000000000000338,0.902631488726312,-0.5617237239136301
6.200000000000405,0.9284234900752939,-0.5941531309623002
6.400000000000472,0.9536821094438004,-0.6247518916044118
6.600000000000539,0.9846263877505255,-0.6438841992495662
6.800000000000606,1.0147940207689128,-0.6704717134631952
7.000000000000672,1.0494971447642134,-0.6979927322838487
7.200000000000739,1.090565929658719,-0.7113312227239108
7.400000000000806,1.1353963321108589,-0.7182922304714302
7.600000000000873,1.1787906302252005,-0.7102649456149308
7.8000000000009395,1.2248942475137718,-0.6941544045385837
8.000000000001005,1.277320699083812,-0.6703588401628376
8.200000000000895,1.3265473334029823,-0.6374298392945712
8.400000000000784,1.3626962313025934,-0.5985815988434743
8.600000000000673,1.391181297845173,-0.5582054131921254
8.800000000000562,1.428115261605541,-0.515363630947297
9.000000000000451,1.4572329240814361,-0.4653139350047517
9.20000000000034,1.490073812807951,-0.4093258080040099
9.40000000000023,1.528768793351871,-0.35622843768341006
9.600000000000119,1.5587306339968254,-0.30851795788972924
9.800000000000008,1.568098944624044,-0.2567502283107762
10.000999999999896,1.5867957525804393,-0.20390790587638666
10.200999999999786,1.6147400226805066,-0.15592671443074996
10.400999999999675,1.653872646668137,-0.10818934247915331
10.600999999999564,1.6966105478389664,-0.06238368907804573
10.800999999999453,1.7255115837542239,-0.013670884921018473
11.000999999999342,1.739864036620309,0.03821886468670556
11.200999999999231,1.750477887776015,0.08679815580618906
11.40099999999912,1.784345583636012,0.1232816603812301
11.60099999999901,1.8196757064063551,0.15392820505070287
11.800999999998899,1.8516273289247962,0.1760292063850945
12.000999999998788,1.8617228478864392,0.21122055334242312
12.200999999998677,1.8569254740863865,0.25505846865645143
12.400999999998566,1.862947441320739,0.29832389555484057
12.600999999998455,1.8814841675876803,0.3381458021431972
12.800999999998345,1.912746047288586,0.3765686881939844
13.000999999998234,1.9565117048875669,0.41316325534160475
13.200999999998123,1.9920363346290384,0.45294719167236847
13.400999999998012,2.0203903276286557,0.5005238358726424
13.600999999997901,2.0553820580534965,0.5485325657455098
13.80099999999779,2.0935349542587725,0.5978501073243011
14.00099999999768,2.128964881540858,0.6489075925068922
14.200999999997569,2.178629476477163,0.6940729697887611
14.400999999997458,2.2291215654407757,0.7384833913295483
14.600999999997347,2.2775114433033017,0.7819384832088324
14.800999999997236,2.332363631738136,0.8187260857346309
15.000999999997125,2.364446293141289,0.8513801529951747
15.200999999997014,2.3949744200039302,0.8870243329786418
15.400999999996904,2.4080699712513702,0.9305595910532636
15.600999999996793,2.4223305011258156,0.9777347107006282
15.800999999996682,2.43015964937353,1.0261091482091196
16.000999999996573,2.4463424644290863,1.0763983641255988
16.200999999996817,2.472676647441297,1.1265697280502711
16.40099999999706,2.503990698464881,1.1743497119692063
16.600999999997306,2.5258918363932787,1.2182577768146183
16.80099999999755,2.548425052010656,1.2551271992636532
17.000999999997795,2.593234047616744,1.2823963991057041
17.20099999999804,2.6390493323157416,1.307490640831767
17.400999999998284,2.6716086492188635,1.3366292223562566
17.60099999999853,2.6905546272708087,1.3650492967563463
17.800999999998773,2.7102951021079824,1.4022548541901985
18.000999999999017,2.751614851576335,1.4394080407665317
18.20099999999926,2.8049065260494803,1.4739831210894419
18.400999999999506,2.856477184053871,1.5122902062529349
18.60099999999975,2.896933664822783,1.5542064668257078
18.799999999999994,2.9193436579935272,1.6032752270165684
19.000000000000238,2.9466009219970855,1.6605816972612097
19.200000000000482,2.977573015351636,1.7220987977145807
19.400000000000727,3.003505564388922,1.7825632056194456
19.60000000000097,3.0234455910551494,1.8341334244581848
19.800000000001216,3.05116916762757,1.8818386918588954
20.00000000000146,3.08648811346437,1.9333389986827818
