Time (s),X (m),Y (m)
0.001,-0.00036712694553334884,-0.000663019509439443
0.20000000000000015,0.00117118666260857,0.0002678238102075314
0.4000000000000003,0.0026103605351236593,5.996190217019305e-05
0.6000000000000004,0.00894233318308814,0.002058919336361103
0.8000000000000006,0.016621220773116514,0.005857042784637242
1.0000000000000007,0.021453977787760415,0.004708043527154573
1.2009999999999785,0.024224349204386614,0.006276398789387947
1.4009999999999565,0.029375360346323626,0.009438822467392409
1.6009999999999345,0.032622369716623856,0.01086097002919935
1.8009999999999124,0.036141764125223984,0.00935966218829771
2.0009999999998906,0.04528711789864895,0.01878412895369987
2.2009999999998686,0.05517040493887535,0.03313124014397792
2.4009999999998466,0.062171863935702024,0.03611159046875035
2.6009999999998246,0.0714442816160086,0.040403846086830814
2.8009999999998025,0.07945592081279454,0.04140123758017313
3.0009999999997805,0.08960188903596081,0.039652906730254955
3.2009999999997585,0.0993211402216523,0.046833673886980696
3.4009999999997365,0.10776632962117869,0.05482108562255329
3.6009999999997144,0.11503473704004802,0.06966306428641197
3.8009999999996924,0.12326927880052281,0.08807514976369712
4.000999999999671,0.12935700579814638,0.09378441004363718
4.200999999999738,0.13375242066341433,0.09836955438765174
4.400999999999804,0.13658532608215473,0.11234096579597412
4.600999999999871,0.1437171048899316,0.1260842562489407
4.800999999999938,0.1474085587757829,0.12899389665586403
5.000000000000004,0.15241766576201649,0.12754849941553845
5.200000000000071,0.161720226318619,0.12778462760957893
5.400000000000138,0.167217035774706,0.13433630915145653
5.600000000000205,0.1679279075224305,0.14622246275834042
5.800000000000272,0.17472595878668207,0.15788605203719205
6.000000000000338,0.17717795736807487,0.1739698842749756
6.200000000000405,0.17561103723157367,0.18759727265384366
6.400000000000472,0.17689704704894155,0.20869275529553646
6.600000000000539,0.18140704188144735,0.2174404177615451
6.800000000000606,0.1898237068152828,0.2250445243915789
7.000000000000672,0.19726816295849767,0.24357325266245228
7.200000000000739,0.2045993379761076,0.2666989241765717
7.400000000000806,0.21047153549686853,0.2777774431756618
7.600000000000873,0.21619537376195852,0.2909198290286116
7.8000000000009395,0.21910661509694354,0.30515000251415125
8.000000000001005,0.21588407835509446,0.3241745289717486
8.200000000000895,0.21721216966592446,0.3469228903968978
8.400000000000784,0.21978193829284545,0.36643542012621877
8.600000000000673,0.2209243664536433,0.3846162321480633
8.800000000000562,0.2215881342584019,0.4000732938903864
9.000000000000451,0.2201014579008652,0.4149451512046191
9.20000000000034,0.22370901855642827,0.42697869015390194
9.40000000000023,0.22542418387519905,0.44213442208195036
9.600000000000119,0.22753120636721266,0.4665210619231856
9.800000000000008,0.23348734499974655,0.4802408044180545
10.000999999999896,0.24238560716540977,0.5023181070594926
10.200999999999786,0.2518646583292246,0.5182885078729409
10.400999999999675,0.2635563990104301,0.5354937193041636
10.600999999999564,0.28030849370398897,0.5486101669805433
10.800999999999453,0.2960874470152945,0.5656185477560196
11.000999999999342,0.3161968855017046,0.5832438728848645
11.200999999999231,0.333625913858943,0.6001535680372377
11.40099999999912,0.35203781748356355,0.6152971785238972
11.60099999999901,0.36844242421271983,0.6353051126147228
11.800999999998899,0.38321373380705304,0.6548332816623065
12.000999999998788,0.39507579999944964,0.6744562413300512
12.200999999998677,0.40177321388637016,0.6924790063231406
12.400999999998566,0.4069243826628679,0.7164841945314417
12.600999999998455,0.41551528207124466,0.7366148107394502
12.800999999998345,0.4270329492346513,0.7620629280362377
13.000999999998234,0.44115595016448583,0.7826020945702736
13.200999999998123,0.45409565198876084,0.8001505553061574
13.400999999998012,0.46500962605970975,0.8141518408884473
13.600999999997901,0.47898109736095645,0.8331333251881746
13.80099999999779,0.4913268498650848,0.8542760898470346
14.00099999999768,0.5078818016711916,0.87344467743895
14.200999999997569,0.5218292811410888,0.8954464898253314
14.400999999997458,0.5314108615555065,0.918500848772319
14.600999999997347,0.5405060818072579,0.9405975618224693
14.800999999997236,0.5486323984495827,0.9700984621040537
15.000999999997125,0.5611221372984901,0.9877986176555437
15.200999999997014,0.5706049270380817,1.013775075356479
15.400999999996904,0.5784149588261756,1.0378956334847969
15.600999999996793,0.5848449034305632,1.066009351256877
15.800999999996682,0.5877873536142588,1.0881156927422888
16.000999999996573,0.5889764160929188,1.1083886147690651
16.200999999996817,0.5850907002285981,1.1336811571139065
16.40099999999706,0.5820658813315344,1.1572779131949693
16.600999999997306,0.5821629494898954,1.1850404022739398
16.80099999999755,0.5830460476712062,1.213140039839018
17.000999999997795,0.5850699473202482,1.240793185622208
17.20099999999804,0.585578596906581,1.2711732063585286
17.400999999998284,0.585162779293339,1.2987048778182984
17.60099999999853,0.5846121329593545,1.3271734117150273
17.800999999998773,0.5846447405357302,1.3503550726042153
18.000999999999017,0.5879415918118275,1.3724679054666975
18.20099999999926,0.591876848205717,1.3937382527782187
18.400999999999506,0.5911098044130368,1.4159114214302684
18.60099999999975,0.5914862243490175,1.4385787884559502
18.799999999999994,0.5874527762874736,1.4687499944071725
19.000000000000238,0.5816983673017667,1.4957759376297932
19.200000000000482,0.5752194741098867,1.529681659732196
19.400000000000727,0.5656022368998832,1.5574284659211108
19.60000000000097,0.5568595248582067,1.5833364024999521
19.800000000001216,0.5451656316531847,1.60709048854747
20.00000000000146,0.5375653348074502,1.627535838776563
