Time (s),X (m),Y (m)
0.001,0.0007758142491328282,-0.0009692696795465074
0.20000000000000015,0.0006408057600592495,0.0007894630718814376
0.4000000000000003,0.005459634343133002,-0.010652793687872891
0.6000000000000004,0.01592629724534171,-0.016844536462539896
0.8000000000000006,0.0302201279898084,-0.01960824347497738
1.0000000000000007,0.04858077712047948,-0.030101251148698854
1.2009999999999785,0.062119745123245675,-0.05603966457770907
1.4009999999999565,0.08270838665353623,-0.060935356818894136
1.6009999999999345,0.10437120388942277,-0.05987929693251038
1.8009999999999124,0.1294514394558301,-0.04359777007365184
2.0009999999998906,0.1576652206548155,-0.05461130500578034
2.2009999999998686,0.18826139814224965,-0.07583497340058223
2.4009999999998466,0.21738916626240576,-0.09894294093147744
2.6009999999998246,0.2501017020421317,-0.11843559368638013
2.8009999999998025,0.28097965376174217,-0.15458602816326256
3.0009999999997805,0.3102248782518256,-0.19168681813773905
3.2009999999997585,0.3399502778443214,-0.22638308167646115
3.4009999999997365,0.37307419527815755,-0.2652606111550918
3.6009999999997144,0.4106521287948572,-0.29466325233568796
3.8009999999996924,0.4499051574352739,-0.3157465686606624
4.000999999999671,0.48914266223269504,-0.35004142750245026
4.200999999999738,0.5356117613955395,-0.3706181344594633
4.400999999999804,0.5860917872918558,-0.38545859944080507
4.600999999999871,0.6378257663922645,-0.3960329887100233
4.800999999999938,0.6901394213580393,-0.41002033974947427
5.000000000000004,0.7445501695582329,-0.421571906298599
5.200000000000071,0.7999182838295045,-0.4274219018696509
5.400000000000138,0.8577587473052218,-0.4354389676958515
5.600000000000205,0.9131959733627646,-0.4507496583288712
5.800000000000272,0.9709155326710934,-0.4634711452667847
6.000000000000338,1.025119753406633,-0.4601763059038319
6.200000000000405,1.0786044749966934,-0.44332820082555385
6.400000000000472,1.132418227119404,-0.42441211808437607
6.600000000000539,1.1878124378278405,-0.40829831600868977
6.800000000000606,1.243656199199153,-0.4054033646061734
7.000000000000672,1.301367070916937,-0.40296937583007214
7.200000000000739,1.3602767215762677,-0.4165748539609476
7.400000000000806,1.4117546338816722,-0.43307118081483514
7.600000000000873,1.4623097308127142,-0.4667188721782182
7.8000000000009395,1.511880086916667,-0.4993818525791533
8.000000000001005,1.5583831427086692,-0.5476476281927022
8.200000000000895,1.5992723838592695,-0.5960024004303169
8.400000000000784,1.639571224354242,-0.6481010858423442
8.600000000000673,1.6841821656328715,-0.6895424491240695
8.800000000000562,1.7335985192492651,-0.688350587856803
9.000000000000451,1.7859852778185936,-0.6805604177632039
9.20000000000034,1.8418452741614606,-0.6816933499314102
9.40000000000023,1.8937322482279713,-0.7202969238228716
9.600000000000119,1.9385070594541234,-0.7698451786273477
9.800000000000008,1.980389689321947,-0.8051657510310746
10.000999999999896,2.0284980816936664,-0.8382864517760406
10.200999999999786,2.0746124351634943,-0.845666398351783
10.400999999999675,2.117757635647677,-0.8726144345625598
10.600999999999564,2.1595948350627854,-0.905160767107606
10.800999999999453,2.204098684675804,-0.941009819687337
11.000999999999342,2.2528896311451083,-0.9604077311474977
11.200999999999231,2.3076357914459735,-0.9925612623791698
11.40099999999912,2.366633182287588,-1.0161840973767544
11.60099999999901,2.4300019079112727,-1.017730076333803
11.800999999998899,2.489325374430173,-1.0325029191699369
12.000999999998788,2.5422777802341003,-1.0726246063443894
12.200999999998677,2.5934640132039126,-1.0959071173370385
12.400999999998566,2.641535067586377,-1.1209473814673447
12.600999999998455,2.688430621905625,-1.1545024488659563
12.800999999998345,2.736805631616868,-1.1845736498381252
13.000999999998234,2.7843056535457826,-1.2058114092254
13.200999999998123,2.8310557210149354,-1.2189634725852223
13.400999999998012,2.8879208614532748,-1.232560958069077
13.600999999997901,2.9472991367204804,-1.2673815940469388
13.80099999999779,3.007612273442012,-1.3075214702587186
14.00099999999768,3.0622627672287055,-1.3565020573219444
14.200999999997569,3.1077633795688606,-1.4165436043094526
14.400999999997458,3.1481252763948606,-1.4965517587722577
14.600999999997347,3.1873772238215317,-1.5774878672155899
14.800999999997236,3.223644475677108,-1.6437907340781193
15.000999999997125,3.2615467080645044,-1.6926604473525793
15.200999999997014,3.3069933534423237,-1.7313325476843324
15.400999999996904,3.351464537611786,-1.7729904545104223
15.600999999996793,3.394242763745266,-1.820709292843034
15.800999999996682,3.4345621867537846,-1.8616153687012094
16.000999999996573,3.4788129706732245,-1.9122825159347798
16.200999999996817,3.5276196127188633,-1.9597547900715824
16.40099999999706,3.5807067515134645,-2.002104699868657
16.600999999997306,3.6318981722701316,-2.0488790591606056
16.80099999999755,3.6794777461289208,-2.1027674587239145
17.000999999997795,3.726666130635198,-2.146185194980775
17.20099999999804,3.7610069122426344,-2.1866518350667556
17.400999999998284,3.800699093314807,-2.219137244068056
17.60099999999853,3.8485855333431713,-2.221892608279576
17.800999999998773,3.9029400714921167,-2.231465198606026
18.000999999999017,3.9605642054179016,-2.2380428414540354
18.20099999999926,4.0190437226696965,-2.2528173933077418
18.400999999999506,4.07771056126185,-2.281826881249865
18.60099999999975,4.133761046300349,-2.3158193016218007
18.799999999999994,4.18726162049901,-2.3595338821943
19.000000000000238,4.2358213423613265,-2.4341311469649076
19.200000000000482,4.291134542602701,-2.491585716095192
19.400000000000727,4.3453058710858965,-2.538714856961175
19.60000000000097,4.399089842158539,-2.569915635493623
19.800000000001216,4.4529338130107465,-2.599420622620253
20.00000000000146,4.502591675955968,-2.6415790126445926
