Time (s),X (m),Y (m)
0.001,0.0013578629866597446,-0.0004359202765531099
0.20000000000000015,0.0005962764145912089,8.726284827748654e-05
0.4000000000000003,0.0012771260520135885,-0.00017569916561500785
0.6000000000000004,0.001969089898261496,-0.0004484976972037961
0.8000000000000006,0.0026413219907514725,-0.0007489323387242113
1.0000000000000007,0.0036407244151275956,-0.001287336779944711
1.2009999999999785,0.004414158814410763,-0.0016509365417674245
1.4009999999999565,0.005312317029673836,-0.002092739401776088
1.6009999999999345,0.006206985349793228,-0.0025279681944393685
1.8009999999999124,0.007093218630984877,-0.0029629077027454533
2.0009999999998906,0.008041349251243063,-0.003449801571860888
2.2009999999998686,0.00902992912296877,-0.003971014395768619
2.4009999999998466,0.010028636260141974,-0.0044957202660101106
2.6009999999998246,0.011037220640909685,-0.0050229431022364565
2.8009999999998025,0.01206041993677895,-0.005556160549218368
3.0009999999997805,0.01310123805338945,-0.006099034109452844
3.2009999999997585,0.014162249899365494,-0.00665405547330001
3.4009999999997365,0.015243401529029454,-0.00722073125272763
3.6009999999997144,0.016342778418920935,-0.007797192426135847
3.8009999999996924,0.017458769950900847,-0.0083817858459278
4.000999999999671,0.018590532897408776,-0.008974620581777042
4.200999999999738,0.019737843386171645,-0.009574735194524734
4.400999999999804,0.02090120353298028,-0.010182330047596076
4.600999999999871,0.02208074669422347,-0.010797146779824572
4.800999999999938,0.02327653990685165,-0.011418905357003429
5.000000000000004,0.024483416398043654,-0.012044713211976367
5.200000000000071,0.025711801938184706,-0.012678925563296218
5.400000000000138,0.026956691365324244,-0.013319248718034164
5.600000000000205,0.028218099517894186,-0.013965390658480138
5.800000000000272,0.029496161655612915,-0.014617036861406078
6.000000000000338,0.030791087721729064,-0.01527404617300142
6.200000000000405,0.03210320527000965,-0.01593642976265943
6.400000000000472,0.03343251287461215,-0.016603905520547097
6.600000000000539,0.03477899218513401,-0.017276126360248095
6.800000000000606,0.03614264889814375,-0.017952777870363784
7.000000000000672,0.0375236272371336,-0.018633517784785725
7.200000000000739,0.03892203560634001,-0.019318070456367173
7.400000000000806,0.04033803390704436,-0.020006257511525252
7.600000000000873,0.04177192166895372,-0.020698232066203946
7.8000000000009395,0.043223768979118844,-0.021393803747841285
8.000000000001005,0.04469362132518774,-0.02209271749320478
8.200000000000895,0.04618152646628926,-0.022794724381156633
8.400000000000784,0.04768753762214501,-0.023499586418871204
8.600000000000673,0.04921175079807631,-0.024207051356880005
8.800000000000562,0.05075466974453698,-0.02491686017869232
9.000000000000451,0.05231726077332922,-0.025628766255484287
9.20000000000034,0.05390038474691305,-0.0263425398129423
9.40000000000023,0.05550461909915424,-0.027057993677132765
9.600000000000119,0.05713032305798204,-0.02777500113516322
9.800000000000008,0.058777939062629764,-0.028493408519783017
10.000999999999896,0.060452350074891616,-0.029216058761525686
10.200999999999786,0.06214473926055373,-0.029936781905292798
10.400999999999675,0.06385981083255791,-0.030658303336837306
10.600999999999564,0.06559815390819873,-0.03138012700514468
10.800999999999453,0.06736066305910515,-0.032101760666260575
11.000999999999342,0.06914957900652634,-0.032814285399537665
11.200999999999231,0.07096662129032068,-0.033512944226949254
11.40099999999912,0.07280804489290853,-0.0341969780303021
11.60099999999901,0.07467294934916094,-0.03486583832059654
11.800999999998899,0.07656291157552655,-0.0355191188954807
12.000999999998788,0.07847705031363345,-0.036156071181082085
12.200999999998677,0.08041711454044158,-0.036776254343596174
12.400999999998566,0.08238330963080458,-0.03737851431387206
12.600999999998455,0.08437472103340941,-0.037962384685291915
12.800999999998345,0.0863913172842401,-0.03852711314958148
13.000999999998234,0.08843528508882775,-0.039072094608010796
13.200999999998123,0.09050612308498843,-0.039597481372038806
13.400999999998012,0.09260348764887535,-0.04010255484189162
13.600999999997901,0.0947283585380653,-0.0405868467677054
13.80099999999779,0.09711829436387462,-0.041058568174501764
14.00099999999768,0.09956282593034115,-0.041502696626497186
14.200999999997569,0.10249042347173799,-0.04194012337213882
14.400999999997458,0.1056721353762806,-0.04231415537790137
14.600999999997347,0.10892043416255864,-0.04258971875762449
14.800999999997236,0.11217054280245796,-0.042841972547754216
15.000999999997125,0.115493180205037,-0.04304498469671732
15.200999999997014,0.11882731359261917,-0.04317730403756139
15.400999999996904,0.12220538883632999,-0.043252928791755914
15.600999999996793,0.12560971617502228,-0.043275221280786945
15.800999999996682,0.12901271968997072,-0.04324237567083764
16.000999999996573,0.1324429791397802,-0.0431251821318
16.200999999996817,0.13592204871450314,-0.042971393585845286
16.40099999999706,0.13936846206484751,-0.042734606251107074
16.600999999997306,0.14290614004980962,-0.04241477314201864
16.80099999999755,0.14641126382892916,-0.04200906695290011
17.000999999997795,0.14986335726151978,-0.0414652591404731
17.20099999999804,0.15339601000596886,-0.040872667567694844
17.400999999998284,0.15692780488327318,-0.040181924087080025
17.60099999999853,0.1603961497817851,-0.03942600407356336
17.800999999998773,0.16387666783980004,-0.03853494728444299
18.000999999999017,0.16726970845406122,-0.03754651527400853
18.20099999999926,0.17063306328201158,-0.036482782980380365
18.400999999999506,0.17382711409424553,-0.035293594576625946
18.60099999999975,0.17695128871565904,-0.03404910204201101
18.799999999999994,0.1800102306442637,-0.03265469566899211
19.000000000000238,0.18310020660991164,-0.031164946360888172
19.200000000000482,0.1861267071381608,-0.029531768619911976
19.400000000000727,0.18923295146791128,-0.027172544286088805
19.60000000000097,0.19209540559697408,-0.022329004652422543
19.800000000001216,0.1970170475298354,-0.016419587900294685
20.00000000000146,0.20132463368986045,-0.01033945743029146
