Time (s),X (m),Y (m)
0.001,0.001267963995250183,-0.0005916298972236683
0.20000000000000015,0.0008843809766496228,-0.00012584728617807622
0.4000000000000003,0.00132907209362427,-0.00027317285365309067
0.6000000000000004,0.0019357678414420778,-0.0005272568067506457
0.8000000000000006,0.0028012302080689857,-0.0010484315302478077
1.0000000000000007,0.0035724414944858078,-0.001461646603038283
1.2009999999999785,0.004592416864960352,-0.0021319642862742114
1.4009999999999565,0.005568023350471457,-0.002747198653620165
1.6009999999999345,0.006568718158939665,-0.003379089810862327
1.8009999999999124,0.007665544467873362,-0.004098970443249841
2.0009999999998906,0.008840963179857936,-0.004890453076950216
2.2009999999998686,0.010086980496999425,-0.0057434277264588485
2.4009999999998466,0.011395544516817818,-0.006649584552424498
2.6009999999998246,0.012756880860073127,-0.0075975191369617645
2.8009999999998025,0.0141647703246424,-0.008582690870500856
3.0009999999997805,0.015613293594822391,-0.00960025705158781
3.2009999999997585,0.017103908677889666,-0.010651416905177447
3.4009999999997365,0.018635718036719207,-0.01173397163196953
3.6009999999997144,0.020206674352399957,-0.012845111118672778
3.8009999999996924,0.021805130976259465,-0.01397193892587602
4.000999999999671,0.023424366745647917,-0.01510452161104888
4.200999999999738,0.025065158597699384,-0.016243676608331026
4.400999999999804,0.02672793092045235,-0.017389649004005813
4.600999999999871,0.02841305968547341,-0.01854234551018197
4.800999999999938,0.030120530130090525,-0.019701508428911288
5.000000000000004,0.03183350761215669,-0.020855178742284125
5.200000000000071,0.03358421810735745,-0.022025367885469598
5.400000000000138,0.035356372962310215,-0.023200057215122142
5.600000000000205,0.03714967477639994,-0.024378712224196752
5.800000000000272,0.03896416717239549,-0.02556102019369023
6.000000000000338,0.040799755592456834,-0.026746523599841324
6.200000000000405,0.04265616658673963,-0.027934536604647536
6.400000000000472,0.044533288556064955,-0.0291243317183649
6.600000000000539,0.04643242472294576,-0.03031537896303973
6.800000000000606,0.04835445849906534,-0.03150704215519789
7.000000000000672,0.05029993979174542,-0.032698546211105205
7.200000000000739,0.052269238258867,-0.0338890855324293
7.400000000000806,0.0542627170712931,-0.035077471909707954
7.600000000000873,0.056280019380810224,-0.03626321328686852
7.8000000000009395,0.05831981096890187,-0.03744612526004108
8.000000000001005,0.060376587457184196,-0.03866171650674183
8.200000000000895,0.06241767240391142,-0.03992655535144143
8.400000000000784,0.06449673759163282,-0.04115626198454017
8.600000000000673,0.06660129016414487,-0.04243083058370408
8.800000000000562,0.06870748835645352,-0.04371802208787845
9.000000000000451,0.07091300162843694,-0.04504317085405823
9.20000000000034,0.07306211363539218,-0.04628318850079396
9.40000000000023,0.07532504312819018,-0.04754412877276637
9.600000000000119,0.07760810383735701,-0.048745856347977734
9.800000000000008,0.07986796687367509,-0.04992214025354361
10.000999999999896,0.08221614414880911,-0.05105253228315684
10.200999999999786,0.08465298309059471,-0.0521631744002056
10.400999999999675,0.08740555104679455,-0.05305391079078075
10.600999999999564,0.08991908511207128,-0.05393557062115988
10.800999999999453,0.09300309047246477,-0.054639671154745245
11.000999999999342,0.09574882008326047,-0.055408018174649305
11.200999999999231,0.0986428328578196,-0.05592978878227827
11.40099999999912,0.10161113280834859,-0.056407912077589856
11.60099999999901,0.10472777362874634,-0.056889006921779124
11.800999999998899,0.10774099261309131,-0.05726246948331618
12.000999999998788,0.11058844780325873,-0.05742967007165049
12.200999999998677,0.11369243050568752,-0.057588848342819014
12.400999999998566,0.11659009182120428,-0.0576338208724673
12.600999999998455,0.11969635019332553,-0.05766301675611934
12.800999999998345,0.12260070053010318,-0.057565284698400845
13.000999999998234,0.12532828576563088,-0.057323008179977944
13.200999999998123,0.12823644665049294,-0.057050518437653866
13.400999999998012,0.13114838414607632,-0.05671370278579767
13.600999999997901,0.1341322447188138,-0.05630053473247853
13.80099999999779,0.13711586676466767,-0.055829824630559785
14.00099999999768,0.13983624513683807,-0.055210571835753536
14.200999999997569,0.14256615153858843,-0.05456437695552491
14.400999999997458,0.1452228139629593,-0.05375768482511724
14.600999999997347,0.14788049047534227,-0.052920487341340174
14.800999999997236,0.15053950454319348,-0.05196586736513257
15.000999999997125,0.15309712401665926,-0.050946941929337915
15.200999999997014,0.15588877859327538,-0.0498697770332689
15.400999999996904,0.15797123899464854,-0.048648622655918225
15.600999999996793,0.16031473027147103,-0.0473349226004797
15.800999999996682,0.1627148289497706,-0.04604733738935781
16.000999999996573,0.1649103499562089,-0.04457310821467182
16.200999999996817,0.16697774869666437,-0.04305528727397245
16.40099999999706,0.16926057838228367,-0.0414377312571998
16.600999999997306,0.1709606490136931,-0.03975950738397173
16.80099999999755,0.17305383045544276,-0.03793812403094543
17.000999999997795,0.1746947783993128,-0.03607882387044217
17.20099999999804,0.17653759941534908,-0.03400941340342749
17.400999999998284,0.17823736638350104,-0.03203873474979869
17.60099999999853,0.1802720039114969,-0.029808838698896764
17.800999999998773,0.18203621022489141,-0.02769602511436387
18.000999999999017,0.18415305823397127,-0.025341234640696982
18.20099999999926,0.18588544038753366,-0.02305625473907321
18.400999999999506,0.18766131767075314,-0.020472158756043333
18.60099999999975,0.18867354810741263,-0.016861461950302036
18.799999999999994,0.19039746351903347,-0.013284174356451487
19.000000000000238,0.19136086163083166,-0.009714982461779433
19.200000000000482,0.19288607298042817,-0.005962928422494687
19.400000000000727,0.19382823934115193,-0.0018613579331944398
19.60000000000097,0.19501032326577414,0.0037822251491367244
19.800000000001216,0.19526186791933287,0.00909779413936597
20.00000000000146,0.19680062118262207,0.015389623346088793
