Time (s),X (m),Y (m)
0.001,0.00024391513958915793,-0.0010158048217711122
0.20000000000000015,0.0015199177283534257,3.219265276243404e-05
0.4000000000000003,0.00607475261947629,0.007353674681725572
0.6000000000000004,0.015204974733731997,0.01671740801917632
0.8000000000000006,0.03304129957187071,0.017850738163824945
1.0000000000000007,0.05881337444296739,0.010921131449265452
1.2009999999999785,0.08988970704647228,-0.0033650955276013704
1.4009999999999565,0.10902074316850627,-0.02360385422843566
1.6009999999999345,0.12267305062123267,-0.0455817682841051
1.8009999999999124,0.13263860476589737,-0.051230845087157556
2.0009999999998906,0.13038067045851237,-0.06670121712937255
2.2009999999998686,0.12319818114067757,-0.06744278899475188
2.4009999999998466,0.10912232325994752,-0.06627769779342912
2.6009999999998246,0.08673008001059512,-0.08369207105342788
2.8009999999998025,0.058469578205557524,-0.0960061792796032
3.0009999999997805,0.03308944674560052,-0.10160004302280085
3.2009999999997585,0.010587377694990246,-0.11297449179787493
3.4009999999997365,-0.01745062976150107,-0.14536729272594787
3.6009999999997144,-0.04663142906477875,-0.16694325771642768
3.8009999999996924,-0.07109988184531597,-0.17069413859438878
4.000999999999671,-0.10239212682023358,-0.17135187681025574
4.200999999999738,-0.13694601133080264,-0.16811153411622604
4.400999999999804,-0.16201781907199603,-0.15061209097447853
4.600999999999871,-0.18660979023421612,-0.12312496369655195
4.800999999999938,-0.2146078212652346,-0.0754636657756599
5.000000000000004,-0.24557311055810607,-0.019032260312240548
5.200000000000071,-0.26022212075301654,0.029295267040751718
5.400000000000138,-0.2685535717076504,0.08902940470748152
5.600000000000205,-0.2782289624907428,0.15405267576325749
5.800000000000272,-0.27911218738170146,0.20114768276342246
6.000000000000338,-0.2667489796451546,0.2363183517782084
6.200000000000405,-0.2440643953505181,0.2639501973795949
6.400000000000472,-0.21294087900450373,0.2850596258234469
6.600000000000539,-0.1863922871907695,0.2916346555000937
6.800000000000606,-0.1495434995982385,0.28300325283432143
7.000000000000672,-0.1040176600242259,0.26718721256152994
7.200000000000739,-0.04321364000854529,0.2375897928315504
7.400000000000806,0.011832176871193372,0.2016873318538346
7.600000000000873,0.05012009696449171,0.16311401303933665
7.8000000000009395,0.08409163869352784,0.12519904912203692
8.000000000001005,0.11663324271430282,0.08573433486383866
8.200000000000895,0.14766235280421133,0.04175129561157352
8.400000000000784,0.15952388893725583,0.0008867201451966923
8.600000000000673,0.1715816559178259,-0.04658015847065278
8.800000000000562,0.18977953063361594,-0.10127065781952858
9.000000000000451,0.20252927238530646,-0.1530143073444754
9.20000000000034,0.22671716694515537,-0.21505926722844085
9.40000000000023,0.24475433158373358,-0.2685137491416851
9.600000000000119,0.24354446156055204,-0.3075875044796022
9.800000000000008,0.22445498660119154,-0.33605235391860616
10.000999999999896,0.19285439689334463,-0.35548173814710754
10.200999999999786,0.14603260650803093,-0.3744165176586041
10.400999999999675,0.08825944602079402,-0.393681738930359
10.600999999999564,0.06331088680846679,-0.39693592144929996
10.800999999999453,0.04515585134118296,-0.37304112215692703
11.000999999999342,0.04110268537805947,-0.3314311224512413
11.200999999999231,0.033721024114863524,-0.2774002632595145
11.40099999999912,0.027888260363508655,-0.22128222002878384
11.60099999999901,0.031576551450859885,-0.17629127802028072
11.800999999998899,0.044056714294561414,-0.14387041951271956
12.000999999998788,0.07456807095033112,-0.11658562118484778
12.200999999998677,0.11712147625150271,-0.10465948200939464
12.400999999998566,0.16654591561072596,-0.0937658178854675
12.600999999998455,0.24061274137697183,-0.08832610545625219
12.800999999998345,0.31832935699375436,-0.08121454732524984
13.000999999998234,0.39152705957082784,-0.0770362931202495
13.200999999998123,0.44099155186208844,-0.09069113964630317
13.400999999998012,0.47161982419344045,-0.12412314043181435
13.600999999997901,0.490890479552616,-0.16950673869090507
13.80099999999779,0.5029822796770612,-0.2202361372591404
14.00099999999768,0.5357650089799861,-0.26482352120567054
14.200999999997569,0.6001454093786758,-0.30334529617385525
14.400999999997458,0.6527629226025607,-0.34036389167356224
14.600999999997347,0.6688718241026007,-0.377780001757303
14.800999999997236,0.6757708692683793,-0.4169065983357272
15.000999999997125,0.6777092844014968,-0.4699426866544921
15.200999999997014,0.6731300362595928,-0.5425373962381099
15.400999999996904,0.6604122104790205,-0.6090177598800964
15.600999999996793,0.6394332945696357,-0.6714392470314449
15.800999999996682,0.6004282628925278,-0.7219042270529125
16.000999999996573,0.5428028623893544,-0.7626476351012869
16.200999999996817,0.4708082444877918,-0.794739904914982
16.40099999999706,0.39221882821577075,-0.8144036040302629
16.600999999997306,0.32996507055066965,-0.8207329816872804
16.80099999999755,0.2910944939870523,-0.8108551227582068
17.000999999997795,0.2408810184088589,-0.7809499889587767
17.20099999999804,0.19640138431234552,-0.7344308974967881
17.400999999998284,0.13737778309259102,-0.6666942871234222
17.60099999999853,0.09974916846736628,-0.5991768775006
17.800999999998773,0.06510778134296856,-0.5371921801984583
18.000999999999017,0.030102600494867023,-0.4752409787514691
18.20099999999926,-0.017645365668583154,-0.4098390969820832
18.400999999999506,-0.06620007842656188,-0.34389210448143587
18.60099999999975,-0.10959082053927786,-0.27462832825850286
18.799999999999994,-0.12775930841491837,-0.2122549627326433
19.000000000000238,-0.13423316671500835,-0.14786195728874021
19.200000000000482,-0.12499772902444742,-0.092796834135524
19.400000000000727,-0.10281040786968276,-0.045557884587033665
19.60000000000097,-0.07344734418724619,-0.026583712147434546
19.800000000001216,-0.02988246581515536,-0.006048074101375769
20.00000000000146,0.027662842507081568,0.016630738632950906
