Time (s),X (m),Y (m)
0.001,0.00024391513958915793,-0.0010158048217711122
0.20000000000000015,0.0013820721899668056,0.0009834467170588253
0.4000000000000003,0.003545654016822336,0.004863073343052469
0.6000000000000004,0.011275062234473946,0.013879358462284639
0.8000000000000006,0.02176707466546565,0.020938416625023815
1.0000000000000007,0.03540416358968521,0.02785714927687373
1.2009999999999785,0.05576849202748784,0.03955214754830779
1.4009999999999565,0.07314093914873908,0.05198662855609103
1.6009999999999345,0.08125660198750767,0.05035024832576705
1.8009999999999124,0.09021674661209828,0.03741621059795193
2.0009999999998906,0.09699953793211731,0.020571780403989076
2.2009999999998686,0.0938449863284876,0.003964035790041702
2.4009999999998466,0.08721599149376873,-0.019093415552852183
2.6009999999998246,0.07619186422620068,-0.04716954713174241
2.8009999999998025,0.062391134158911156,-0.05477349865520398
3.0009999999997805,0.04163990123732698,-0.05972636590426152
3.2009999999997585,0.014760714260167252,-0.06688953833642851
3.4009999999997365,-0.0228332223063001,-0.07438340227948875
3.6009999999997144,-0.04649551751779066,-0.07796582592852457
3.8009999999996924,-0.05767686214414751,-0.06714206028523992
4.000999999999671,-0.054316085325573624,-0.05374624496546952
4.200999999999738,-0.04482479973535821,-0.03835170601949531
4.400999999999804,-0.037498517720860644,-0.022549344586187074
4.600999999999871,-0.03453587062694535,0.0013556986437562547
4.800999999999938,-0.028558897600290272,0.027289212669239858
5.000000000000004,-0.006725688543737096,0.047446587886891156
5.200000000000071,0.021790180239843023,0.056091359325568343
5.400000000000138,0.051278749716682996,0.05979536134649588
5.600000000000205,0.07976868648789122,0.06620409408199503
5.800000000000272,0.11400666214559843,0.06911352165241681
6.000000000000338,0.15740319109128942,0.08168191720459274
6.200000000000405,0.18946769563043436,0.08684598388097119
6.400000000000472,0.2075964394416062,0.07877280932388704
6.600000000000539,0.2135228813560274,0.05922451791788368
6.800000000000606,0.22238463777897344,0.02742691160297258
7.000000000000672,0.23521772725473952,-0.010344443787458685
7.200000000000739,0.23117452017233217,-0.03530627539691361
7.400000000000806,0.21796630326279365,-0.06783538425111547
7.600000000000873,0.19493087876541576,-0.09224167667518347
7.8000000000009395,0.16709867883587104,-0.10539653091333918
8.000000000001005,0.1361014160732723,-0.1091607109223622
8.200000000000895,0.09398837614181621,-0.10999676111811779
8.400000000000784,0.06363395463018247,-0.10774777146601101
8.600000000000673,0.03262805900286441,-0.08931247105806714
8.800000000000562,0.011462099145617645,-0.056913289966417355
9.000000000000451,0.004234374833069646,-0.028226722476536195
9.20000000000034,-0.0018050423620431767,0.0005868194629527915
9.40000000000023,-0.0036970164512903267,0.0337542108340701
9.600000000000119,-0.0025443298771290184,0.07617293253826012
9.800000000000008,0.005322191705857806,0.13204290819784098
10.000999999999896,0.025048627042856694,0.1541694047550259
10.200999999999786,0.05943752628204188,0.17190376265373553
10.400999999999675,0.08694702621863334,0.17699459148652283
10.600999999999564,0.10208247400018508,0.16608490259974484
10.800999999999453,0.09882161799179032,0.1431373081828457
11.000999999999342,0.076050685607903,0.12011253451716628
11.200999999999231,0.08732525241662083,0.09251619557844462
11.40099999999912,0.09917446564367302,0.05466024247032707
11.60099999999901,0.11675414255344214,0.014005883733214805
11.800999999998899,0.13662307336685334,-0.0310345428946471
12.000999999998788,0.13789514914290066,-0.07802681493150079
12.200999999998677,0.13713706377973836,-0.12592129817856756
12.400999999998566,0.1303668475861657,-0.16488690547693793
12.600999999998455,0.11797046671617042,-0.19504245385670407
12.800999999998345,0.10229185479567283,-0.21556013327599544
13.000999999998234,0.0764287915074282,-0.2361339879541576
13.200999999998123,0.048526567489525926,-0.23877413705544223
13.400999999998012,0.0210846854214099,-0.2363322532832547
13.600999999997901,-0.008576684046258831,-0.22627866804144153
13.80099999999779,-0.04328158052218219,-0.215547108213783
14.00099999999768,-0.0836262661973507,-0.20300234900779462
14.200999999997569,-0.11379828681559391,-0.18645034892721976
14.400999999997458,-0.13809736649879928,-0.16329556203253517
14.600999999997347,-0.16735398507380628,-0.13374937684017907
14.800999999997236,-0.18557178823517206,-0.09095461723330889
15.000999999997125,-0.19417055345236084,-0.04195593778114636
15.200999999997014,-0.19400223469128355,-0.001582873280797366
15.400999999996904,-0.1834930219076186,0.0322897506073938
15.600999999996793,-0.1673790464535102,0.06253828477712123
15.800999999996682,-0.15872729077967226,0.10151946913899922
16.000999999996573,-0.14565156193138484,0.14044188709819516
16.200999999996817,-0.12892440662993238,0.18172187541342852
16.40099999999706,-0.11261830707877457,0.22779916568033956
16.600999999997306,-0.08423652152075428,0.26196324665553844
16.80099999999755,-0.042276274461320956,0.2840270939725606
17.000999999997795,-0.0011490604968678786,0.2871802150277717
17.20099999999804,0.04043682161687826,0.2836578471299767
17.400999999998284,0.08362485063958477,0.27853205144372856
17.60099999999853,0.1180018058869249,0.267637474714488
17.800999999998773,0.14826711018400035,0.24882070842850426
18.000999999999017,0.19137626476769948,0.2339665117900839
18.20099999999926,0.24382720877203004,0.21592867403878765
18.400999999999506,0.26650844759608394,0.18954288400565564
18.60099999999975,0.26811806092664964,0.15483694811989918
18.799999999999994,0.27024809082034223,0.1118188956320596
19.000000000000238,0.271119074849741,0.05998351861266285
19.200000000000482,0.27039524039239676,-0.0037348197528633336
19.400000000000727,0.26681391067042215,-0.06913796325448535
19.60000000000097,0.25668250014568506,-0.1138804785839978
19.800000000001216,0.24121362204724792,-0.1285598999794888
20.00000000000146,0.2097448572783332,-0.14284257758865399
