Time (s),X (m),Y (m)
0.001,0.0008589492133542695,0.0009348340498585851
0.20000000000000015,0.0005726728942492615,-0.0008993421377351476
0.4000000000000003,0.0041082915378776435,-0.001673514446167652
0.6000000000000004,0.013495471100070789,-0.004831957041054755
0.8000000000000006,0.021866009160236073,-0.013430162836926947
1.0000000000000007,0.03434536820390361,-0.01908333484384083
1.2009999999999785,0.045949363276292406,-0.018694156233182428
1.4009999999999565,0.06014901044993044,-0.01783802897585114
1.6009999999999345,0.07462640224995952,-0.016602366681169947
1.8009999999999124,0.08390054358053409,-0.027878498784310427
2.0009999999998906,0.09455592946319932,-0.036230302132764666
2.2009999999998686,0.10859531614860127,-0.03039895958100873
2.4009999999998466,0.12105844618064804,-0.03243750674148447
2.6009999999998246,0.13935688615734146,-0.023994303715091553
2.8009999999998025,0.15654207538213222,-0.02121017937338135
3.0009999999997805,0.1765274485526096,-0.010979626541463505
3.2009999999997585,0.19496360843878333,-0.00721890143257532
3.4009999999997365,0.2159124418278667,0.00035759774099643904
3.6009999999997144,0.24181056779407664,0.01593720959587018
3.8009999999996924,0.26889236766825797,0.03517787993058106
4.000999999999671,0.29484643178888525,0.04571291106540994
4.200999999999738,0.32353093124043314,0.0637317896307286
4.400999999999804,0.3554798035955808,0.095785418320097
4.600999999999871,0.39297261693121877,0.135877444723469
4.800999999999938,0.4274186861342207,0.15549039797494213
5.000000000000004,0.4584816159045428,0.16345390741261617
5.200000000000071,0.49014693913120777,0.1803819121827616
5.400000000000138,0.5226310987344798,0.2016282292791547
5.600000000000205,0.5502531106044818,0.23373787559368076
5.800000000000272,0.5763490891188319,0.25869766070692746
6.000000000000338,0.5965924482648882,0.2804103822037023
6.200000000000405,0.6088388214924465,0.2940705775894424
6.400000000000472,0.6155973940925336,0.3052428675787471
6.600000000000539,0.6228950690587522,0.309165813565449
6.800000000000606,0.6362649759905044,0.3326579617312974
7.000000000000672,0.6572358267733431,0.35352111673107633
7.200000000000739,0.678257017401796,0.3777773139441049
7.400000000000806,0.6961552117757448,0.4112496714028345
7.600000000000873,0.7146646214205026,0.446436628750745
7.8000000000009395,0.7347904033090221,0.4861896256192538
8.000000000001005,0.761061533540177,0.527518876380482
8.200000000000895,0.7935673477302048,0.570716963854144
8.400000000000784,0.8257030438439513,0.5940377561525392
8.600000000000673,0.8626584337230826,0.6111332778091817
8.800000000000562,0.9045499170504304,0.6241246903191685
9.000000000000451,0.9574364600500669,0.6355298154026039
9.20000000000034,0.9845737682477479,0.6351826416100356
9.40000000000023,1.010717962235294,0.6174363768015788
9.600000000000119,1.0319043119893112,0.5930431359919373
9.800000000000008,1.056545248970212,0.5617566931337588
10.000999999999896,1.0778881215901357,0.5231788234820032
10.200999999999786,1.1098702583272826,0.47894579444757834
10.400999999999675,1.1342354900936455,0.4350751716440777
10.600999999999564,1.1575678860026044,0.39282878241339403
10.800999999999453,1.1830249994904063,0.34408860443875844
11.000999999999342,1.2042195895522756,0.29816226970284726
11.200999999999231,1.220784569463288,0.2495089737621264
11.40099999999912,1.2329918700265334,0.20519021601299278
11.60099999999901,1.242576509996332,0.15580636264021916
11.800999999998899,1.2500290506920138,0.09834078262911997
12.000999999998788,1.2579281892678198,0.044775219439259065
12.200999999998677,1.2731485966521638,-0.002798832472359579
12.400999999998566,1.2831507609394008,-0.04955589281251175
12.600999999998455,1.2889171547114446,-0.11099424762895184
12.800999999998345,1.295530579802947,-0.16191488791427908
13.000999999998234,1.292166083611788,-0.21775359556958596
13.200999999998123,1.2816211840503577,-0.27164203020217836
13.400999999998012,1.2611551406746748,-0.3071651809655671
13.600999999997901,1.2282797444651161,-0.33452893736672623
13.80099999999779,1.1912266795479023,-0.3644053837558513
14.00099999999768,1.1496601668658173,-0.39776811361818365
14.200999999997569,1.1047272311816836,-0.42442300150961254
14.400999999997458,1.0566553392230777,-0.45573928955227444
14.600999999997347,1.0155185560305262,-0.48439843400636995
14.800999999997236,0.9826005068759311,-0.5169971124289284
15.000999999997125,0.9511693513902499,-0.5427241883472848
15.200999999997014,0.9159632090212394,-0.5814717006553494
15.400999999996904,0.8805811943045376,-0.6158546425751478
15.600999999996793,0.8487314055487303,-0.6548014811611962
15.800999999996682,0.811684166493849,-0.6949995278500913
16.000999999996573,0.772413856445213,-0.7320525372191579
16.200999999996817,0.7321686606718669,-0.7525534450484649
16.40099999999706,0.69496722097416,-0.7870068873206387
16.600999999997306,0.6561861454257456,-0.8249411590054729
16.80099999999755,0.6151410461984206,-0.8683726438386009
17.000999999997795,0.5818257960285682,-0.9091481673342285
17.20099999999804,0.5568216573140531,-0.931481076298957
17.400999999998284,0.5251452778483714,-0.9633049303575475
17.60099999999853,0.48044255050231055,-0.9865598473579809
17.800999999998773,0.4391952845645612,-1.0180627095247783
18.000999999999017,0.4016482898914519,-1.061825638660803
18.20099999999926,0.372812349063668,-1.0951530127830666
18.400999999999506,0.3540940243669111,-1.1379437223951057
18.60099999999975,0.35214830229261207,-1.1965627128246528
18.799999999999994,0.3655450364350094,-1.263339775646426
19.000000000000238,0.3893948082229772,-1.328386454574688
19.200000000000482,0.41961574784060773,-1.389833855962042
19.400000000000727,0.4370359483602366,-1.4488573773484525
19.60000000000097,0.45933736143164794,-1.5126811793316535
19.800000000001216,0.47574331988188295,-1.5769215758964992
20.00000000000146,0.49242430241770524,-1.6364766611320964
