Time (s),X (m),Y (m)
0.001,0.0013163127053841656,0.0005157376242541218
0.20000000000000015,0.0006970224944743107,-0.00016373664394520593
0.4000000000000003,0.001564847676868,0.0002970869504636558
0.6000000000000004,0.0027238286315181192,0.00098556398933712
0.8000000000000006,0.004098527677947679,0.0018493810831200254
1.0000000000000007,0.005632773463044594,0.0028427573973428565
1.2009999999999785,0.0073432181518786,0.003911395258869887
1.4009999999999565,0.009245707689995318,0.005180457823204045
1.6009999999999345,0.011129009844139495,0.00640682169271638
1.8009999999999124,0.013181046281877185,0.007882544112193367
2.0009999999998906,0.015507183561747824,0.009544272372181114
2.2009999999998686,0.017863229730507045,0.011259118788511092
2.4009999999998466,0.02052194093110746,0.013044582055779025
2.6009999999998246,0.023117757097468498,0.014958355419351614
2.8009999999998025,0.026010816324586034,0.017014320136260714
3.0009999999997805,0.02885279882179581,0.019096614784795154
3.2009999999997585,0.031978926426383746,0.02147505285159421
3.4009999999997365,0.03487870630555872,0.02394853556789583
3.6009999999997144,0.038020216469352185,0.02655602455147867
3.8009999999996924,0.04062105106988968,0.02934521523960611
4.000999999999671,0.043395179731080966,0.03217232073668338
4.200999999999738,0.046246656413966705,0.03516468409335611
4.400999999999804,0.04908238421979188,0.03845537577855736
4.600999999999871,0.052008049071983135,0.042072272918130225
4.800999999999938,0.05488642239829359,0.045632316569278415
5.000000000000004,0.0578010602491914,0.049162243331291836
5.200000000000071,0.06016738038561427,0.0527326214200494
5.400000000000138,0.06248532929362934,0.05645308055497614
5.600000000000205,0.06472336764501355,0.06034114525078712
5.800000000000272,0.06688112822993321,0.06436675750408569
6.000000000000338,0.06894623663695329,0.06843129092859941
6.200000000000405,0.07091062274937725,0.0722145379909453
6.400000000000472,0.07286558323614493,0.07603204509747197
6.600000000000539,0.07464905896164223,0.07971408458894892
6.800000000000606,0.07623851356155245,0.08331245280447645
7.000000000000672,0.07766972882964152,0.08696706370677096
7.200000000000739,0.07884420659491854,0.09051994239967892
7.400000000000806,0.07983877899102414,0.09389016951400654
7.600000000000873,0.08072779609452554,0.09749494406887431
7.8000000000009395,0.08133688607211123,0.10078573676924582
8.000000000001005,0.08181709696903505,0.10402613813241163
8.200000000000895,0.08210915437883039,0.1072736948443738
8.400000000000784,0.08224320263012289,0.11043788163419348
8.600000000000673,0.08227173904233172,0.1137665031403206
8.800000000000562,0.08217832388334705,0.11717862384951626
9.000000000000451,0.08194021579093556,0.12062118541763289
9.20000000000034,0.08159727651563434,0.12402719863550923
9.40000000000023,0.08107636026537364,0.12746499913064666
9.600000000000119,0.08047107796092083,0.13083584793265057
9.800000000000008,0.07967336492984715,0.13423626326419066
10.000999999999896,0.07880132562489557,0.13761337007740523
10.200999999999786,0.0777989254764274,0.14095878886879887
10.400999999999675,0.07667068293873511,0.14430090635267057
10.600999999999564,0.07544584553784703,0.14753971222102533
10.800999999999453,0.07411864189573293,0.15086212240977473
11.000999999999342,0.07270710238298303,0.1540926113262042
11.200999999999231,0.0712091450180928,0.1573198548955689
11.40099999999912,0.06966811041583683,0.16056752413501874
11.60099999999901,0.06804862045936794,0.16393254691313763
11.800999999998899,0.06637655750047454,0.16722104751671904
12.000999999998788,0.0646228947173197,0.17052504917814387
12.200999999998677,0.06281282133399592,0.17384741962921993
12.400999999998566,0.06094879624987957,0.17715759198403436
12.600999999998455,0.05900394895305203,0.1805040601395929
12.800999999998345,0.057014013318201315,0.18383948072622158
13.000999999998234,0.05494660460998029,0.18719618881207695
13.200999999998123,0.0528001749881755,0.1906824851306334
13.400999999998012,0.050529966436754135,0.19412710274827596
13.600999999997901,0.04826667436369151,0.19767791983613292
13.80099999999779,0.045776968798282254,0.2014818811104137
14.00099999999768,0.043339561136887875,0.20493556777833197
14.200999999997569,0.0407446413552196,0.2083270309948331
14.400999999997458,0.03802681226979327,0.21199388005435552
14.600999999997347,0.03513767771013786,0.21550136311283952
14.800999999997236,0.032239853554986785,0.21890751042999348
15.000999999997125,0.0291769008006032,0.2225470820010512
15.200999999997014,0.02609036286499178,0.22605260995667814
15.400999999996904,0.022832440750448112,0.22954344033301116
15.600999999996793,0.01975846642780295,0.23272146513932965
15.800999999996682,0.016407158354724928,0.23611429935578684
16.000999999996573,0.012919762874342886,0.23954961448699166
16.200999999996817,0.00953062966802834,0.2426219054174787
16.40099999999706,0.005745175097293451,0.24583354134992727
16.600999999997306,0.0020135152827208706,0.24888118996719358
16.80099999999755,-0.0017906537995730507,0.25198678143420183
17.000999999997795,-0.005679783341250188,0.2548795374363572
17.20099999999804,-0.009667321577852278,0.2576684349308866
17.400999999998284,-0.013482806589363874,0.2603486730221203
17.60099999999853,-0.017439681224983683,0.26329019625240596
17.800999999998773,-0.021506184478526688,0.26619636221047244
18.000999999999017,-0.02541307445150421,0.2689521813420336
18.20099999999926,-0.029313017992341935,0.2715911759012315
18.400999999999506,-0.032984742478218906,0.27403880737897834
18.60099999999975,-0.036789277976246836,0.27660702600858
18.799999999999994,-0.04011880500171503,0.27904832501356225
19.000000000000238,-0.043917540630317796,0.28138233890627007
19.200000000000482,-0.04730299756285155,0.28358458584464197
19.400000000000727,-0.05111864053994937,0.285629171354419
19.60000000000097,-0.05455901305442009,0.28749016475596034
19.800000000001216,-0.05839041758891375,0.28917415451736683
20.00000000000146,-0.06185676352458378,0.2906452361891074
