Time (s),X (m),Y (m)
0.001,-9.270868745296317e-05,-0.0008932837685830058
0.20000000000000015,0.0020164874229152267,0.0006370966350998799
0.4000000000000003,0.007915787758998342,0.0027523027753908937
0.6000000000000004,0.015620839900183078,0.0005035270153143266
0.8000000000000006,0.024503798311854348,0.007186579737953101
1.0000000000000007,0.030537148842072998,0.0025103305894955408
1.2009999999999785,0.0405344918355743,-0.003478634825243027
1.4009999999999565,0.05356925326049015,-0.00296079501516441
1.6009999999999345,0.0681773322823714,-0.0016461011152360497
1.8009999999999124,0.08389281377833674,-0.0023626434269936143
2.0009999999998906,0.10291240955130877,-0.008018654040778674
2.2009999999998686,0.11986972075143347,-0.013097530709413248
2.4009999999998466,0.1442678211640323,-0.018963420520089654
2.6009999999998246,0.1712754530293867,-0.028519558347668977
2.8009999999998025,0.2014904233177748,-0.03708750023534444
3.0009999999997805,0.21388948765240737,-0.051771594228008797
3.2009999999997585,0.22513414828962774,-0.07417919807005134
3.4009999999997365,0.25112979305420224,-0.1024744592133237
3.6009999999997144,0.2674060460720881,-0.13091937823141436
3.8009999999996924,0.2957982782837762,-0.16098033416890772
4.000999999999671,0.31864310122934547,-0.1990734133033648
4.200999999999738,0.3392825392545113,-0.23643770024221966
4.400999999999804,0.36639692698393095,-0.27598062098352505
4.600999999999871,0.394228330547018,-0.314396446573363
4.800999999999938,0.4058470132095973,-0.3528568367659352
5.000000000000004,0.4403988642522266,-0.39107633206553616
5.200000000000071,0.4716039598888015,-0.4242246568660224
5.400000000000138,0.5054858248212758,-0.46099689056041177
5.600000000000205,0.5370066353385242,-0.5005179166671592
5.800000000000272,0.5470946113452811,-0.5377784162844597
6.000000000000338,0.5610946402109049,-0.5774266128956107
6.200000000000405,0.5808378347424865,-0.6205789414864412
6.400000000000472,0.6051006822294266,-0.6663545726461219
6.600000000000539,0.6274370875370127,-0.7130870257976785
6.800000000000606,0.6435713287536231,-0.7574009386521806
7.000000000000672,0.6698471339988737,-0.8091677742807987
7.200000000000739,0.6910834085685895,-0.8644219997728187
7.400000000000806,0.6982322050125518,-0.9154471487763812
7.600000000000873,0.7250017970612163,-0.9686517324355735
7.8000000000009395,0.7535118102976323,-1.020408752272443
8.000000000001005,0.7736428008766988,-1.0716840990756398
8.200000000000895,0.8016356901756646,-1.1319692656013072
8.400000000000784,0.8277462422634864,-1.191203075827889
8.600000000000673,0.8498297080367538,-1.245488969885131
8.800000000000562,0.8858092725222703,-1.305087940892139
9.000000000000451,0.9111790722301643,-1.359037483102132
9.20000000000034,0.9345765647417001,-1.410898691600609
9.40000000000023,0.9719757453849323,-1.473701091801143
9.600000000000119,1.005062987417404,-1.5372585211893899
9.800000000000008,1.0466112307041715,-1.602008395321898
10.000999999999896,1.0811805041944034,-1.668460932579895
10.200999999999786,1.1098160103756622,-1.7315027654260258
10.400999999999675,1.150694725766451,-1.7860037504008386
10.600999999999564,1.205153823763388,-1.8357479703926847
10.800999999999453,1.2479348625081923,-1.8940247420357985
11.000999999999342,1.2761022800056614,-1.9573431572043989
11.200999999999231,1.3285137867807955,-2.0165072280401373
11.40099999999912,1.376836612940708,-2.0730334445477525
11.60099999999901,1.4189908889547589,-2.130001836574841
11.800999999998899,1.4663322517996504,-2.1826997971083943
12.000999999998788,1.5308864937554256,-2.226017961650156
12.200999999998677,1.6025772600857968,-2.2524464319241195
12.400999999998566,1.6706521652748816,-2.273688987925565
12.600999999998455,1.7323421813323407,-2.295424499203885
12.800999999998345,1.7944383993353115,-2.317640212648021
13.000999999998234,1.86828720631933,-2.328431799158386
13.200999999998123,1.9222387484761985,-2.34335450838227
13.400999999998012,1.9616654587213522,-2.378367102439607
13.600999999997901,2.0053610388090175,-2.4325055298465696
13.80099999999779,2.057065431457625,-2.494367040116658
14.00099999999768,2.130180724850429,-2.550842330467394
14.200999999997569,2.210284751969778,-2.589457997625162
14.400999999997458,2.275220586449913,-2.615473080108296
14.600999999997347,2.341572433494377,-2.622909185541311
14.800999999997236,2.4144191715450645,-2.6203464216691748
15.000999999997125,2.4888201113167994,-2.6066215624439315
15.200999999997014,2.565391940411363,-2.5915403375639166
15.400999999996904,2.6296203150292548,-2.5881735030268382
15.600999999996793,2.68028231727207,-2.613486218027525
15.800999999996682,2.733332575423764,-2.6460713062708123
16.000999999996573,2.779192387961877,-2.6825292533643954
16.200999999996817,2.8350871384659713,-2.722085622076949
16.40099999999706,2.8923501833346172,-2.750789967464191
16.600999999997306,2.965254916168204,-2.7651093519130723
16.80099999999755,3.019936110057734,-2.7789222536163485
17.000999999997795,3.0604575539952847,-2.8022282323815877
17.20099999999804,3.119638006311334,-2.8291639141786455
17.400999999998284,3.1747389016471756,-2.8598977969164996
17.60099999999853,3.2223927682307694,-2.904882984703749
17.800999999998773,3.2693437765742943,-2.960105835999169
18.000999999999017,3.3053755284835566,-3.0160514229242
18.20099999999926,3.3336225545870097,-3.0764760549156085
18.400999999999506,3.3741049564522836,-3.14178662214174
18.60099999999975,3.439679598883357,-3.2013793158782717
18.799999999999994,3.503683561251326,-3.254688859802386
19.000000000000238,3.5579730264756613,-3.318794523464838
19.200000000000482,3.603910956353107,-3.385163468897965
19.400000000000727,3.6438045426101318,-3.4554009417355718
19.60000000000097,3.6862452960492633,-3.521152374094416
19.800000000001216,3.7341307437834503,-3.590866809075571
20.00000000000146,3.781648921755379,-3.660530123057822
