Time (s),X (m),Y (m)
0.001,-0.0004702548317818469,-0.0005157376242541218
0.20000000000000015,0.0033514675897943196,0.0018723345369211952
0.4000000000000003,0.011945685511484469,0.007656538210114271
0.6000000000000004,0.014973207281049707,0.008727109089675009
0.8000000000000006,0.023122497648589754,-0.00034615426888460614
1.0000000000000007,0.03532995757089104,-0.01457817171588654
1.2009999999999785,0.05456200013080556,-0.03450747217840525
1.4009999999999565,0.06919151742850682,-0.05225620348221288
1.6009999999999345,0.09084044234232103,-0.07012977217711232
1.8009999999999124,0.11933089504989802,-0.08853007941665199
2.0009999999998906,0.15198316389354408,-0.1074592405892941
2.2009999999998686,0.18396868633631797,-0.12894666203706823
2.4009999999998466,0.22186365835477098,-0.16017604726527437
2.6009999999998246,0.25959369427333234,-0.1966781171821429
2.8009999999998025,0.2993312812571975,-0.23666339221565688
3.0009999999997805,0.3397592161793713,-0.2708594706706285
3.2009999999997585,0.37564700903775666,-0.30495247544646853
3.4009999999997365,0.4127548262767779,-0.34460028368232476
3.6009999999997144,0.4577711802427719,-0.3933068871734981
3.8009999999996924,0.5048222406559502,-0.4439208430903482
4.000999999999671,0.5434517061259961,-0.5025783278854851
4.200999999999738,0.5601822225047167,-0.5613441620456421
4.400999999999804,0.5553703674653053,-0.6216465919123393
4.600999999999871,0.5338272288566843,-0.6843119450561765
4.800999999999938,0.4990690465303894,-0.7415215141817589
5.000000000000004,0.45642086385379455,-0.7926312919271084
5.200000000000071,0.40898243391985534,-0.8412075358361205
5.400000000000138,0.35315738072296243,-0.873775563055468
5.600000000000205,0.29191007137676034,-0.8855090850107478
5.800000000000272,0.226676078450775,-0.8842952094390546
6.000000000000338,0.15821968399183922,-0.873839722907539
6.200000000000405,0.09446585568886535,-0.866861193334126
6.400000000000472,0.0386637653130808,-0.8607971632592191
6.600000000000539,-0.02564661095043738,-0.8411002986032986
6.800000000000606,-0.08712793552547662,-0.8064215523488452
7.000000000000672,-0.14587283357511613,-0.7632507432098086
7.200000000000739,-0.19423176517651028,-0.7158557208827551
7.400000000000806,-0.24316806566176044,-0.6656067892611802
7.600000000000873,-0.3015194078791013,-0.6051434481188379
7.8000000000009395,-0.3594125942962436,-0.5387973147482957
8.000000000001005,-0.41151276856407154,-0.4732827629166058
8.200000000000895,-0.44932629232836485,-0.4134498145130842
8.400000000000784,-0.4562062974076716,-0.3577835347623629
8.600000000000673,-0.44479421393357516,-0.30338501466417256
8.800000000000562,-0.4205945142392205,-0.24469720052289154
9.000000000000451,-0.3824961955122003,-0.18128693892265402
9.20000000000034,-0.3371624728771435,-0.12941712064913852
9.40000000000023,-0.2823025325640938,-0.07908550520825663
9.600000000000119,-0.21762195798209513,-0.02312999486757247
9.800000000000008,-0.1492968628188549,0.043142077906491424
10.000999999999896,-0.07852584750340671,0.11265824829946597
10.200999999999786,-0.009132632166218834,0.18455144091211825
10.400999999999675,0.049118219137190396,0.2578895023032397
10.600999999999564,0.09753426523161639,0.32868998019924944
10.800999999999453,0.15092515239250545,0.4111178065630213
11.000999999999342,0.2153345821831008,0.494413614779818
11.200999999999231,0.2759889725733108,0.5587903862057783
11.40099999999912,0.3377246951610749,0.6161995781596457
11.60099999999901,0.40108491001254615,0.6725076439463431
11.800999999998899,0.46901787376604487,0.7254084876709999
12.000999999998788,0.5377474467433965,0.7753035964886594
12.200999999998677,0.6125298631000402,0.8130838725061014
12.400999999998566,0.6832326956513284,0.8313389053459972
12.600999999998455,0.757481179951771,0.8282613356380383
12.800999999998345,0.8251102627704942,0.7986278455514041
13.000999999998234,0.8871120170786572,0.7543351325238081
13.200999999998123,0.935887851474159,0.7037214720745197
13.400999999998012,0.9643302144764402,0.6525099441813127
13.600999999997901,0.9768500837641301,0.6016310103707266
13.80099999999779,0.9751289397729912,0.5386853534753333
14.00099999999768,0.9548713300750684,0.48783632776821456
14.200999999997569,0.9177098711224899,0.42520987217350004
14.400999999997458,0.8769059346797297,0.37188939130502474
14.600999999997347,0.8265785396339824,0.31480948698872896
14.800999999997236,0.7702777283004913,0.25352625081380076
15.000999999997125,0.7091597522334662,0.19126081879913898
15.200999999997014,0.6459057189226495,0.13036635314998188
15.400999999996904,0.5944236011235949,0.049558396654131816
15.600999999996793,0.5568088353759333,-0.024920353310075305
15.800999999996682,0.5278772143335903,-0.08881380798085349
16.000999999996573,0.4903675303088644,-0.15518969027924884
16.200999999996817,0.43526751690645193,-0.22251166153312793
16.40099999999706,0.36599001864997716,-0.26587989590518374
16.600999999997306,0.2954433295348288,-0.26841867820443044
16.80099999999755,0.23617670861632403,-0.24503163918519383
17.000999999997795,0.1844842684571684,-0.19772124835884966
17.20099999999804,0.15307483714964343,-0.1414679999634785
17.400999999998284,0.158563650402057,-0.08129912243317855
17.60099999999853,0.1797284440560501,-0.032607645421964156
17.800999999998773,0.2191504035502887,0.009917583523926975
18.000999999999017,0.25782415577372925,0.04048299958286255
18.20099999999926,0.3025010161652713,0.04857175408405568
18.400999999999506,0.3508604057456917,0.03166502939959096
18.60099999999975,0.39876144459445484,-0.0024650444197383114
18.799999999999994,0.44208513358073426,-0.04399038420712789
19.000000000000238,0.4651137355122558,-0.08467564713668875
19.200000000000482,0.46985398957112906,-0.1171966481671228
19.400000000000727,0.46129547811964117,-0.15570153497387434
19.60000000000097,0.44078253966014286,-0.19144984743016874
19.800000000001216,0.40868674612748973,-0.22362354062402506
20.00000000000146,0.3640400318651502,-0.2367337869913046
