Time (s),X (m),Y (m)
0.001,0.0009387665610552813,-0.0008932837685830058
0.20000000000000015,0.0004428213563435633,0.0007928666445180669
0.4000000000000003,0.00461229423800893,-0.00805370002235844
0.6000000000000004,0.014549358995224953,-0.018533300009150173
0.8000000000000006,0.024566311793123706,-0.02381193920659142
1.0000000000000007,0.03626106604566382,-0.03165050884863001
1.2009999999999785,0.05373733754696943,-0.0355228527248603
1.4009999999999565,0.07329823942200371,-0.049745045242630716
1.6009999999999345,0.09332726311832466,-0.0646784192656212
1.8009999999999124,0.1086347789508744,-0.10150839503340654
2.0009999999998906,0.12392773328300817,-0.13911838750211725
2.2009999999998686,0.14066393408133146,-0.16086466856423629
2.4009999999998466,0.16022549049557128,-0.18648463378522923
2.6009999999998246,0.18558935805093113,-0.19718780466266955
2.8009999999998025,0.20682774037983281,-0.22318039251800978
3.0009999999997805,0.22440972897587375,-0.24470639991340043
3.2009999999997585,0.24173017189645293,-0.2679472489430075
3.4009999999997365,0.2580979339151457,-0.2811850652805203
3.6009999999997144,0.28071533740543525,-0.2721652917012487
3.8009999999996924,0.30326364373831344,-0.2779162873298234
4.000999999999671,0.3257846362628443,-0.2989690948660142
4.200999999999738,0.34608583729642933,-0.326679066740929
4.400999999999804,0.3678109163769414,-0.3561115846359233
4.600999999999871,0.3909725545536122,-0.3823562439231715
4.800999999999938,0.4166041257002991,-0.40823380143349275
5.000000000000004,0.44212367969938215,-0.43576169689349464
5.200000000000071,0.46861400862161223,-0.46638379881851033
5.400000000000138,0.48929049393655805,-0.5187424441183789
5.600000000000205,0.5046742648428244,-0.5722868954382774
5.800000000000272,0.5147638686498144,-0.609130662614028
6.000000000000338,0.5328449259575184,-0.6244998731579284
6.200000000000405,0.5518348777074373,-0.6390549086868684
6.400000000000472,0.5681419433950778,-0.6652805757918127
6.600000000000539,0.5746910780661647,-0.7014155472524645
6.800000000000606,0.5895011341043566,-0.7303752004048262
7.000000000000672,0.6114564670061455,-0.751868358935246
7.200000000000739,0.6362032087313704,-0.7743844686851712
7.400000000000806,0.6655515099216165,-0.7789279005682325
7.600000000000873,0.6923906766726537,-0.7956573248246215
7.8000000000009395,0.717128518116726,-0.8354183528034693
8.000000000001005,0.7391700012807947,-0.8770265787851065
8.200000000000895,0.7586428613594061,-0.9251503950216716
8.400000000000784,0.7844973848220427,-0.965967221972762
8.600000000000673,0.8108600348153393,-1.0068424562335432
8.800000000000562,0.8383408720156116,-1.048277749012439
9.000000000000451,0.8609065318153658,-1.086353740331385
9.20000000000034,0.8842178012499414,-1.1011448346256314
9.40000000000023,0.9099116427851407,-1.127036600318293
9.600000000000119,0.9344660793192271,-1.169894789322845
9.800000000000008,0.9551645656888913,-1.2207114560211043
10.000999999999896,0.9754871767545794,-1.2621405853230692
10.200999999999786,0.9901073354463212,-1.306063559143269
10.400999999999675,1.0088060888206378,-1.3455879346328
10.600999999999564,1.0270387751360925,-1.3759183729789912
10.800999999999453,1.0455301155477852,-1.4045422596861987
11.000999999999342,1.0653676733388533,-1.4381721385528015
11.200999999999231,1.0855538791295787,-1.4721706793347407
11.40099999999912,1.1025825229380077,-1.5107398270709795
11.60099999999901,1.120090242069231,-1.549302423541715
11.800999999998899,1.141303554129561,-1.5868788767974948
12.000999999998788,1.1593038978436485,-1.6382457915217852
12.200999999998677,1.178285785357822,-1.6885901467688205
12.400999999998566,1.196376459167451,-1.7363460954140402
12.600999999998455,1.2145021592722156,-1.7880601586477707
12.800999999998345,1.233190341109168,-1.8374796351333775
13.000999999998234,1.249390377684389,-1.8854469488201289
13.200999999998123,1.2607778195766877,-1.943604677117574
13.400999999998012,1.2739159804870552,-1.9894064614424278
13.600999999997901,1.2885027164008407,-2.0351922143067096
13.80099999999779,1.3040105521712326,-2.0745554659446914
14.00099999999768,1.31858109409126,-2.1135573965649304
14.200999999997569,1.3356062837003246,-2.1491703575405885
14.400999999997458,1.3609826548746982,-2.181390561649021
14.600999999997347,1.3892546731708144,-2.2040826252652064
14.800999999997236,1.4156939719812858,-2.2100003801853663
15.000999999997125,1.4433513415697168,-2.2264759357043715
15.200999999997014,1.4695435541516129,-2.260489273903453
15.400999999996904,1.490149252087549,-2.2903931724248374
15.600999999996793,1.513517000139774,-2.319043973338251
15.800999999996682,1.536691374770217,-2.3452526768866258
16.000999999996573,1.562071680249854,-2.3707367752221478
16.200999999996817,1.5949271004631644,-2.3986426016860225
16.40099999999706,1.6283810850848,-2.432751076578139
16.600999999997306,1.6540266491011673,-2.473118044230734
16.80099999999755,1.6768927997012453,-2.5203438992495864
17.000999999997795,1.6965355983067596,-2.5606886927108428
17.20099999999804,1.7205744919896233,-2.5939610899545813
17.400999999998284,1.7470671017019768,-2.627993885541756
17.60099999999853,1.7734985018055267,-2.658868846989965
17.800999999998773,1.7973705184543787,-2.701009899697362
18.000999999999017,1.8157592561386033,-2.762679291921305
18.20099999999926,1.8359666836103252,-2.797584614380158
18.400999999999506,1.8632043143552688,-2.828148426937872
18.60099999999975,1.8854802911663209,-2.8697498814013525
18.799999999999994,1.9016957024888956,-2.9194209635727826
19.000000000000238,1.9152827750097832,-2.97028142224665
19.200000000000482,1.9304191755192466,-3.0171060840600505
19.400000000000727,1.9455623145278,-3.0548151715714496
19.60000000000097,1.9666664901064927,-3.0865000755140435
19.800000000001216,1.9887526283743424,-3.119684004161434
20.00000000000146,2.013821163958776,-3.1630193364060872
