Time (s),X (m),Y (m)
0.001,-0.0005462407427453492,0.0003527853123316693
0.20000000000000015,0.0007428351574223124,-0.0007231720161177401
0.4000000000000003,-0.0030373133821997517,-0.0017960787513360697
0.6000000000000004,-0.0013666153037650345,-0.008084681987348439
0.8000000000000006,0.014418929125940214,-0.0197628163542841
1.0000000000000007,0.03215049645883585,-0.02832975961903682
1.2009999999999785,0.05255052088472135,-0.042317005250545124
1.4009999999999565,0.07466681780504966,-0.05490055276781644
1.6009999999999345,0.10136802888180976,-0.07052442428912957
1.8009999999999124,0.14018237240011588,-0.090893193592972
2.0009999999998906,0.17430015801532808,-0.11245092488529645
2.2009999999998686,0.1912777234179387,-0.13514090822652094
2.4009999999998466,0.19465106995921036,-0.16083531899850811
2.6009999999998246,0.1826985831297838,-0.1957418126272426
2.8009999999998025,0.15308487709353566,-0.23520340121692726
3.0009999999997805,0.12477966522032889,-0.2760606410319893
3.2009999999997585,0.10437800561305119,-0.3118422712474938
3.4009999999997365,0.0784903041634797,-0.34881974743186045
3.6009999999997144,0.03744107004533571,-0.3790745366644815
3.8009999999996924,0.006702585239812718,-0.3970820673873694
4.000999999999671,-0.02158397761405365,-0.40579600580376307
4.200999999999738,-0.05583119142106886,-0.4065106140576633
4.400999999999804,-0.08619928115430346,-0.404764880240982
4.600999999999871,-0.12493037706957043,-0.3946210046138247
4.800999999999938,-0.16375499361254842,-0.3719050109672981
5.000000000000004,-0.19492673662132087,-0.34682711638764313
5.200000000000071,-0.21460127931863768,-0.3173801366532884
5.400000000000138,-0.21670949484571467,-0.27895839021368607
5.600000000000205,-0.21605257188462015,-0.24768309307246003
5.800000000000272,-0.199509960267709,-0.2021756303285295
6.000000000000338,-0.17461684438479863,-0.15264939356953255
6.200000000000405,-0.14979980764335998,-0.10548540212749007
6.400000000000472,-0.12373431466600487,-0.05359876123535495
6.600000000000539,-0.09160453012162247,-0.0031345162471728204
6.800000000000606,-0.05860556078364735,0.03606911109238742
7.000000000000672,-0.023615227068075884,0.061383882333970345
7.200000000000739,0.01243725252481754,0.07302133649662186
7.400000000000806,0.062327464214587104,0.07389382848601937
7.600000000000873,0.11506693481238127,0.06596832618300126
7.8000000000009395,0.1690951126764615,0.05008305607231268
8.000000000001005,0.22923141605384803,0.023235471549041237
8.200000000000895,0.2803883665744019,0.0035450888473782046
8.400000000000784,0.331488167549828,-0.01817744308164113
8.600000000000673,0.3865772501256012,-0.05284959290478069
8.800000000000562,0.4424412951266431,-0.1030147865703789
9.000000000000451,0.47871148441688066,-0.14864924919707836
9.20000000000034,0.49463144483666227,-0.20941252457148427
9.40000000000023,0.48439563368142863,-0.2757645284160892
9.600000000000119,0.46670425580467545,-0.33732255675921324
9.800000000000008,0.43241523209783117,-0.3909379006603545
10.000999999999896,0.39224080254182536,-0.4261023840994659
10.200999999999786,0.3485371380735658,-0.4423696599485645
10.400999999999675,0.29900597622363234,-0.4454994391357286
10.600999999999564,0.24621029470980949,-0.4401305666464678
10.800999999999453,0.19558853747841104,-0.42706450347986386
11.000999999999342,0.14221847168947166,-0.4064748373428185
11.200999999999231,0.08196388218240455,-0.3798347787266196
11.40099999999912,0.012854727505593693,-0.3405062697202356
11.60099999999901,-0.05587162487787497,-0.30038856705590244
11.800999999998899,-0.1069440242207952,-0.2610916379966895
12.000999999998788,-0.13743368780756515,-0.2076319897665059
12.200999999998677,-0.14487280992217566,-0.1512288331974801
12.400999999998566,-0.13800769105987076,-0.0976652382532362
12.600999999998455,-0.1275092068209443,-0.047144706828512295
12.800999999998345,-0.10500574370470311,0.0029742832700971333
13.000999999998234,-0.06243189151515648,0.04161373532334473
13.200999999998123,-0.010811280160762587,0.055766110531494835
13.400999999998012,0.04304878387218599,0.048498102316356
13.600999999997901,0.1084637159888663,0.024760165419601833
13.80099999999779,0.16922641849218864,-5.814803895722362e-05
14.00099999999768,0.22370003835365557,-0.017846042869639714
14.200999999997569,0.2785677342449166,-0.043864392321322714
14.400999999997458,0.3347531852211203,-0.07290397404964433
14.600999999997347,0.39077901414516925,-0.10106792723369079
14.800999999997236,0.4518953618422161,-0.12595464469853482
15.000999999997125,0.5225551350813434,-0.15830209799035577
15.200999999997014,0.5950735726186432,-0.19846348749270443
15.400999999996904,0.6715648852857833,-0.23999343213677277
15.600999999996793,0.7525632740457333,-0.27616401357829506
15.800999999996682,0.8245373977992932,-0.31040499242702113
16.000999999996573,0.8994221027446072,-0.3519142843119393
16.200999999996817,0.976958677223892,-0.39421223482518236
16.40099999999706,1.056725029808862,-0.44066102752186526
16.600999999997306,1.131810363094319,-0.49894893403782076
16.80099999999755,1.1883297101122696,-0.5557464897078849
17.000999999997795,1.217029197931159,-0.6113138460000468
17.20099999999804,1.221045527518991,-0.6812334637639931
17.400999999998284,1.208478466666809,-0.7550119619724391
17.60099999999853,1.1816868402809446,-0.8316009903204112
17.800999999998773,1.1505859220481616,-0.9054098276986063
18.000999999999017,1.1155084375672308,-0.9767397603149602
18.20099999999926,1.0540073692790741,-1.0355961485869636
18.400999999999506,0.9862236562994298,-1.0509906359103591
18.60099999999975,0.9195802126044201,-1.0414113915545358
18.799999999999994,0.8512703500524583,-1.0159380782483292
19.000000000000238,0.7983429247179105,-0.9854622808498629
19.200000000000482,0.7721010595632488,-0.9516826445588247
19.400000000000727,0.7714432361026399,-0.9006747412938587
19.60000000000097,0.7890813964202189,-0.8362809323224454
19.800000000001216,0.8205596970099919,-0.7683515305693105
20.00000000000146,0.8534692652723542,-0.7048879863634798
