Time (s),X (m),Y (m)
0.001,0.0014193575185132074,0.0002669654388657892
0.20000000000000015,0.0008634867935498063,-6.506011388012696e-05
0.4000000000000003,0.0014141537729095855,1.868929666773281e-05
0.6000000000000004,0.0020862694685519815,0.00023876342423816417
0.8000000000000006,0.0032432188851911565,0.0007626424650981371
1.0000000000000007,0.0046530552981418035,0.0014695114026083422
1.2009999999999785,0.005884848742751474,0.0020678504045092026
1.4009999999999565,0.007180062978246055,0.0026701994436991124
1.6009999999999345,0.008529734411975297,0.0032812073144562093
1.8009999999999124,0.009933749954484044,0.003935302421109518
2.0009999999998906,0.011389711787734905,0.004648839830216635
2.2009999999998686,0.012904172235449032,0.0054155965855719876
2.4009999999998466,0.014468370412239565,0.00621692091799414
2.6009999999998246,0.01607096732939359,0.0070460676544272195
2.8009999999998025,0.017722151811016683,0.00790944366027404
3.0009999999997805,0.019408900318799355,0.008803729325428304
3.2009999999997585,0.02113698169476293,0.009738624127972804
3.4009999999997365,0.022909951450717232,0.010712762661733353
3.6009999999997144,0.02472567444074277,0.011723881295313349
3.8009999999996924,0.026582434648727116,0.012768837306386152
4.000999999999671,0.028477059796285068,0.013846698342548862
4.200999999999738,0.030409076057664217,0.014958896801617815
4.400999999999804,0.032413977487947575,0.016102500467855267
4.600999999999871,0.034481014795717614,0.017270987729277855
4.800999999999938,0.03659782241980589,0.018471580479462128
5.000000000000004,0.03875316927049325,0.019730478259375326
5.200000000000071,0.041059036169990265,0.02106322927524242
5.400000000000138,0.043301221110719816,0.022394432329522408
5.600000000000205,0.04554249355026897,0.023767970308213655
5.800000000000272,0.04798773861239359,0.025247356485614016
6.000000000000338,0.050425515419854156,0.026757204433237678
6.200000000000405,0.052790036614722154,0.028269079898546896
6.400000000000472,0.05513680100509586,0.02983052406872066
6.600000000000539,0.057486717207252375,0.03142631814829537
6.800000000000606,0.059887485004597625,0.033080304479247064
7.000000000000672,0.06233139462462509,0.034756596124655426
7.200000000000739,0.06476825253253982,0.036493246480013015
7.400000000000806,0.06721821905241956,0.03827537690309479
7.600000000000873,0.06967519166379181,0.040098942427630645
7.8000000000009395,0.07213919178595297,0.04196312322769504
8.000000000001005,0.07461210025262792,0.043868736780999694
8.200000000000895,0.07709521659271176,0.04581670694199637
8.400000000000784,0.07941852044465299,0.04774061863316259
8.600000000000673,0.08172745969137031,0.049692850576074886
8.800000000000562,0.08427933193527609,0.05178584625757514
9.000000000000451,0.08683709192672709,0.05392327015023247
9.20000000000034,0.08909025084849799,0.05594095702985742
9.40000000000023,0.09150528891657068,0.05809338440196778
9.600000000000119,0.09375573865523543,0.06021029422687683
9.800000000000008,0.0960008373746628,0.06236646247255789
10.000999999999896,0.09824279977524862,0.06455751335876243
10.200999999999786,0.10050172539064274,0.06679203878358769
10.400999999999675,0.10278090862549642,0.06907077366183753
10.600999999999564,0.10507889083239895,0.07139295647574652
10.800999999999453,0.10739042722166081,0.07375515769960658
11.000999999999342,0.10971067340255822,0.07615788118007946
11.200999999999231,0.11203665515749796,0.07860007663306501
11.40099999999912,0.11436801135957302,0.08108123562476395
11.60099999999901,0.11666807565438732,0.08354639269058871
11.800999999998899,0.11888749843834605,0.08606274956919653
12.000999999998788,0.1212476413751846,0.08868477940163935
12.200999999998677,0.1236132839079855,0.09135935879363961
12.400999999998566,0.12576729771473766,0.09387542548222436
12.600999999998455,0.1278040024351009,0.09637372920087667
12.800999999998345,0.12982002248572022,0.09889324379055985
13.000999999998234,0.13203623959485192,0.10165692406114507
13.200999999998123,0.1342690266260056,0.10446048223969463
13.400999999998012,0.13650283060648805,0.10727200747956267
13.600999999997901,0.13856957288023133,0.10998108085324518
13.80099999999779,0.14063261543228572,0.11272652107597853
14.00099999999768,0.14268195615244358,0.11549819892425305
14.200999999997569,0.14471881476583373,0.11829703804600507
14.400999999997458,0.1467485440996437,0.12113017589311224
14.600999999997347,0.14877374425490067,0.1240029389106161
14.800999999997236,0.150793039128281,0.1269157110275874
15.000999999997125,0.1528033866868455,0.12986617132387948
15.200999999997014,0.15480083895491933,0.13285245585605207
15.400999999996904,0.15678358884440582,0.1358750451105252
15.600999999996793,0.1587497331596113,0.13893011095604826
15.800999999996682,0.16069734171927108,0.1420186648644577
16.000999999996573,0.16264010136225635,0.14516095834455203
16.200999999996817,0.16455326826329927,0.14833401765477106
16.40099999999706,0.16643332215945283,0.1515021088107455
16.600999999997306,0.16828432518693062,0.15474669362643834
16.80099999999755,0.17012684221906688,0.15805117214781916
17.000999999997795,0.1719210926607846,0.1613657427777445
17.20099999999804,0.17367752337561906,0.1647010985925932
17.400999999998284,0.17547516684153486,0.16820238866546225
17.60099999999853,0.17721158587323055,0.17186262112369827
17.800999999998773,0.178927053991746,0.17543382462448395
18.000999999999017,0.1805453725797223,0.17890418562410038
18.20099999999926,0.18210464611260066,0.1823517310757008
18.400999999999506,0.18362474569659468,0.1860208827834432
18.60099999999975,0.18510006275060406,0.18953102829834675
18.799999999999994,0.18652125560998828,0.1933203389078405
19.000000000000238,0.1878829733721554,0.1970038871375989
19.200000000000482,0.18919036322898106,0.2007538491849883
19.400000000000727,0.19043106133561297,0.20454414002128163
19.60000000000097,0.19160135804300044,0.2083737116276092
19.800000000001216,0.19269768158242817,0.2122460804577504
20.00000000000146,0.19371754738953184,0.21616150025074596
