Time (s),X (m),Y (m)
0.001,0.0009387665610552813,0.0008932837685830061
0.20000000000000015,0.0008348204802631844,-0.0002574508913928189
0.4000000000000003,0.004203932130943776,0.002268199020547171
0.6000000000000004,0.006481956488524627,0.0014400647214831423
0.8000000000000006,0.014282778630269947,0.0011139750863207426
1.0000000000000007,0.020253086744095795,-0.004729140026369387
1.2009999999999785,0.026298914652009092,-0.0016804152693852099
1.4009999999999565,0.03974913998018383,0.009369079770190402
1.6009999999999345,0.05836392027556367,0.023347963988111172
1.8009999999999124,0.07017876947746925,0.035088642767186505
2.0009999999998906,0.08244813827271888,0.03465955446151238
2.2009999999998686,0.08951309201296496,0.04105208145944865
2.4009999999998466,0.10088193227951936,0.042237391767980595
2.6009999999998246,0.10981724457371006,0.041043487019861664
2.8009999999998025,0.12015810171567802,0.0543870669392828
3.0009999999997805,0.13591737152323166,0.07296431811565607
3.2009999999997585,0.15125129284196553,0.07961184883814795
3.4009999999997365,0.16641906256544628,0.08807869837604129
3.6009999999997144,0.17603930160492515,0.09172389426597598
3.8009999999996924,0.1883117711455995,0.09628675800230745
4.000999999999671,0.20162173738671868,0.09597225526399626
4.200999999999738,0.21211823386382214,0.09720491802946682
4.400999999999804,0.22663371770227272,0.10862506015723766
4.600999999999871,0.2384769856444895,0.11473080392462952
4.800999999999938,0.2511427750877785,0.1136877098784205
5.000000000000004,0.26639189767495886,0.12237871471681333
5.200000000000071,0.2833931655205144,0.1308483443944334
5.400000000000138,0.30281697162896787,0.14507692343347406
5.600000000000205,0.32468496371155164,0.14909980644225565
5.800000000000272,0.3446206250816082,0.15612467905690694
6.000000000000338,0.36404117168765365,0.16742883353911567
6.200000000000405,0.375176841989657,0.17654447190142766
6.400000000000472,0.384041976462983,0.19074275190612938
6.600000000000539,0.39512904333124205,0.19419583932118242
6.800000000000606,0.4072129905830408,0.20512873378517538
7.000000000000672,0.41932278480343455,0.21598093200886956
7.200000000000739,0.4317022732369529,0.24466875860393084
7.400000000000806,0.44913148523695534,0.2659126837163129
7.600000000000873,0.4654329926528301,0.27869975465132396
7.8000000000009395,0.4812401522502124,0.29568096076457223
8.000000000001005,0.4994192997444325,0.314302733534826
8.200000000000895,0.5156000085997743,0.33350407439754104
8.400000000000784,0.5282390105797756,0.3578841840263098
8.600000000000673,0.5430872492476108,0.375951690011728
8.800000000000562,0.5571399208979066,0.3948331961605656
9.000000000000451,0.5740378491360537,0.3962461562682551
9.20000000000034,0.5921047195240223,0.4007643906682684
9.40000000000023,0.6070284756591986,0.41088218749413763
9.600000000000119,0.62076886450193,0.41874249689683307
9.800000000000008,0.6358220073795476,0.4295948043590155
10.000999999999896,0.6448524914110676,0.4487768381996794
10.200999999999786,0.6543248582732057,0.46879606540856156
10.400999999999675,0.6599816558343206,0.49006837716687496
10.600999999999564,0.6661544718236379,0.5137022657403875
10.800999999999453,0.6736732397842113,0.524608320773336
11.000999999999342,0.6864261186728147,0.5384424210611943
11.200999999999231,0.7022701986586022,0.5586042428989603
11.40099999999912,0.7239712695612603,0.5779426941378429
11.60099999999901,0.7470995642156701,0.600160985472437
11.800999999998899,0.768153497575729,0.6175189412958093
12.000999999998788,0.7878163084691985,0.6362217011195427
12.200999999998677,0.8018857018489829,0.6546330404819201
12.400999999998566,0.8099332237921035,0.6805736639583443
12.600999999998455,0.8227279016384115,0.7102723336911966
12.800999999998345,0.840410759507312,0.7355256545873593
13.000999999998234,0.8622754470019837,0.7432128758142884
13.200999999998123,0.8803312155863712,0.7651240768881385
13.400999999998012,0.8958900620127163,0.7839765164209925
13.600999999997901,0.9122607099451021,0.7985130729919554
13.80099999999779,0.9246627595356255,0.8170794240766948
14.00099999999768,0.9419191623445452,0.8419751096856777
14.200999999997569,0.958247268348388,0.8644566039194329
14.400999999997458,0.974701848113892,0.8904515360200317
14.600999999997347,0.99128294664728,0.9127314328024624
14.800999999997236,1.0062781640219316,0.9277056791817517
15.000999999997125,1.0222290757820909,0.951367104496971
15.200999999997014,1.0362685940177996,0.9782826703511728
15.400999999996904,1.0483725639050836,0.9930080410318519
15.600999999996793,1.0563942072261732,1.0107229423602673
15.800999999996682,1.0610568435429433,1.035935118591867
16.000999999996573,1.0688882657176582,1.0543297624363774
16.200999999996817,1.0710888661251725,1.09151742662453
16.40099999999706,1.0767881865630253,1.1191254049097352
16.600999999997306,1.0880218394125811,1.141602498942531
16.80099999999755,1.097682328877371,1.1606835050485143
17.000999999997795,1.1080465658204355,1.1890856173890796
17.20099999999804,1.1169996657571666,1.225100495694045
17.400999999998284,1.1309718737847463,1.2452324681561693
17.60099999999853,1.1490580128828656,1.2670619759089943
17.800999999998773,1.1675994428283354,1.2954823297467961
18.000999999999017,1.1869219024690154,1.3200138190300643
18.20099999999926,1.2146333533721654,1.3380053161468888
18.400999999999506,1.240698745629629,1.3656967720413096
18.60099999999975,1.2656458024511308,1.3815538851195799
18.799999999999994,1.2898973967112144,1.3909701125696183
19.000000000000238,1.310601032628785,1.399191598932278
19.200000000000482,1.331837577308981,1.4165960933773785
19.400000000000727,1.350547224437806,1.4309820563809275
19.60000000000097,1.3674274908259612,1.448426996797538
19.800000000001216,1.3862326931544828,1.4612244813219388
20.00000000000146,1.4035948126220013,1.4757642913502866
