Time (s),X (m),Y (m)
0.001,7.024362446948994e-05,-0.0009692696795465074
0.20000000000000015,0.0008242442173759335,-4.5094464150334994e-05
0.4000000000000003,0.0019433567313716408,0.0001884512212964322
0.6000000000000004,0.0038189034935044914,0.0022857763207609224
0.8000000000000006,0.006644648082462748,0.0029814883812322255
1.0000000000000007,0.010018555442896693,0.007131426390214095
1.2009999999999785,0.013452042143320117,0.010218082362306232
1.4009999999999565,0.017690257212472284,0.013487994026456106
1.6009999999999345,0.022494218995464912,0.019709954719178278
1.8009999999999124,0.030252246946396447,0.024240944470261698
2.0009999999998906,0.035303683171298166,0.028993091573653464
2.2009999999998686,0.040482785269078975,0.031716936170032385
2.4009999999998466,0.04762717298001542,0.036636102464737766
2.6009999999998246,0.05419416930050719,0.039612802704112035
2.8009999999998025,0.05993003920155983,0.04253981279084239
3.0009999999997805,0.06468203653512679,0.046435324943136486
3.2009999999997585,0.06909799739879707,0.04652730554935547
3.4009999999997365,0.07611539395442073,0.051015358271524563
3.6009999999997144,0.08352348083626293,0.05070423326682119
3.8009999999996924,0.09135724534727317,0.05948040456617093
4.000999999999671,0.10063562134926124,0.06307023539112232
4.200999999999738,0.10883354595840873,0.0658998826145629
4.400999999999804,0.11652405489508671,0.06438224028743368
4.600999999999871,0.12452742617530799,0.06818593515770968
4.800999999999938,0.1319718379152343,0.07238331792718357
5.000000000000004,0.13772256828695334,0.0742900828078581
5.200000000000071,0.14422492544074803,0.07922273581353416
5.400000000000138,0.1508842096079856,0.08510883845120494
5.600000000000205,0.15882371434391052,0.09109200328888226
5.800000000000272,0.16773059109268762,0.09437582246770096
6.000000000000338,0.1747613316405993,0.10454756067661503
6.200000000000405,0.18168246213747852,0.11446029264169398
6.400000000000472,0.1889423598027491,0.12159556254191431
6.600000000000539,0.19581862691675295,0.12903475158574554
6.800000000000606,0.20110575976737133,0.1366747818909909
7.000000000000672,0.20655821351759446,0.14230871889860447
7.200000000000739,0.21289825056539097,0.1474183334809446
7.400000000000806,0.21653365502095853,0.15584112447234996
7.600000000000873,0.22009128106453382,0.16441935728379561
7.8000000000009395,0.22652569547681,0.17200480671567647
8.000000000001005,0.22851300625119697,0.18224528674736298
8.200000000000895,0.2307574551932974,0.1939482176006495
8.400000000000784,0.23628621640251835,0.20285638081747817
8.600000000000673,0.2403901022050606,0.2099100233282996
8.800000000000562,0.24843096681725332,0.2161941267438792
9.000000000000451,0.25009385427467723,0.22689753039873417
9.20000000000034,0.25494146477017565,0.23291532605909002
9.40000000000023,0.2561870584215489,0.24083716447718484
9.600000000000119,0.25682449535875257,0.25083923417113946
9.800000000000008,0.26257124133361026,0.2605389609089573
10.000999999999896,0.26505338254550803,0.2692167279092719
10.200999999999786,0.26585700366556625,0.2765034609419116
10.400999999999675,0.26904315869920026,0.28621847878373863
10.600999999999564,0.26831600796112043,0.2986292181729764
10.800999999999453,0.26271641027165593,0.31160991551904066
11.000999999999342,0.2601478554962563,0.32436099129346435
11.200999999999231,0.25617539186341237,0.338947556234363
11.40099999999912,0.250726463058157,0.35338827159985003
11.60099999999901,0.24813572967436753,0.3643418666263108
11.800999999998899,0.24561575628463864,0.3758771926274306
12.000999999998788,0.23753370896640488,0.3886291219642518
12.200999999998677,0.23443539459039056,0.4016938247907985
12.400999999998566,0.2295676419590337,0.41591771633554037
12.600999999998455,0.22202101003407657,0.4295523543193328
12.800999999998345,0.21393911548148886,0.44211178634416703
13.000999999998234,0.2053627160280657,0.4553074877504558
13.200999999998123,0.19722916707358898,0.4672951322411394
13.400999999998012,0.18839217965186708,0.4798611694457069
13.600999999997901,0.18077871091594716,0.49019477951719015
13.80099999999779,0.1720900768750856,0.501788624710934
14.00099999999768,0.16517289148297895,0.5131861202115064
14.200999999997569,0.15677136721749785,0.5258520826215993
14.400999999997458,0.14564009032166073,0.53493258323091
14.600999999997347,0.14498879987456514,0.5447960671931046
14.800999999997236,0.139684742359548,0.5546427889872514
15.000999999997125,0.12763827673168193,0.5637403517372663
15.200999999997014,0.11695055363830614,0.5682245097253216
15.400999999996904,0.10590123517033931,0.572710185336013
15.600999999996793,0.09534542478208265,0.5807805092024951
15.800999999996682,0.0822988258512477,0.5863991549959044
16.000999999996573,0.06956146375350028,0.5897429309367919
16.200999999996817,0.05277433796754995,0.589776937741622
16.40099999999706,0.03818764314376721,0.5932038906830553
16.600999999997306,0.021863323590672713,0.5954021749376983
16.80099999999755,0.006315266349947551,0.5955813986432984
17.000999999997795,-0.010612290245802965,0.5923644118205136
17.20099999999804,-0.025623348021946015,0.5901009717978034
17.400999999998284,-0.03976186931172927,0.5907491384966953
17.60099999999853,-0.05286618876497788,0.5881750418965578
17.800999999998773,-0.06618306289967106,0.590008722016771
18.000999999999017,-0.07996967566728386,0.5888911602503857
18.20099999999926,-0.09121108322010327,0.5890434068796309
18.400999999999506,-0.10049159167098903,0.5920215613600565
18.60099999999975,-0.11034360569713048,0.5917230804917082
18.799999999999994,-0.11671045317874926,0.5924749592746443
19.000000000000238,-0.12432576200945977,0.5871635299471433
19.200000000000482,-0.13259957142516515,0.5854963919168501
19.400000000000727,-0.14026018737720744,0.5806654538879009
19.60000000000097,-0.1490870711540185,0.5749576673755193
19.800000000001216,-0.16128590212627042,0.5716420155354286
20.00000000000146,-0.17254969195235825,0.5673825743403302
