Time (s),X (m),Y (m)
0.001,-0.00030633420604510037,-0.000729363142846258
0.20000000000000015,0.0014370079813579872,0.00040568687840484126
0.4000000000000003,0.004406167929254828,0.002087645374654014
0.6000000000000004,0.009813129303807178,0.004546063467617978
0.8000000000000006,0.017507512534979168,0.010127248386138297
1.0000000000000007,0.023254990668854784,0.004385073767347792
1.2009999999999785,0.030052309421685908,0.0018206130148568536
1.4009999999999565,0.04364030944257224,0.008359956105799817
1.6009999999999345,0.0523699879683369,0.013629758672674635
1.8009999999999124,0.059602273658975954,0.01623793211936875
2.0009999999998906,0.06473790316614383,0.016325153721841127
2.2009999999998686,0.07265133309853994,0.017972441810608007
2.4009999999998466,0.0821817356437245,0.022132569337662937
2.6009999999998246,0.09706235831913555,0.0309307685405052
2.8009999999998025,0.11638807488508086,0.04692823644626324
3.0009999999997805,0.13677305727260436,0.056498015745151266
3.2009999999997585,0.15792553860232564,0.06651867185244308
3.4009999999997365,0.17482844381007084,0.07059197481818845
3.6009999999997144,0.18662675110347693,0.09172358770380813
3.8009999999996924,0.19970166181879961,0.11265412824366826
4.000999999999671,0.2135147016933324,0.12582289806062538
4.200999999999738,0.22960138798956053,0.12831120221347636
4.400999999999804,0.24580270769046308,0.12968589128466274
4.600999999999871,0.2547759531114395,0.14851222856196553
4.800999999999938,0.2604205290282699,0.17613379671138601
5.000000000000004,0.2689296536108015,0.1887794307938896
5.200000000000071,0.2798114236891752,0.19590263210744951
5.400000000000138,0.29028143577643933,0.20030787217961923
5.600000000000205,0.30057950412628104,0.21602023160973624
5.800000000000272,0.3063319968783229,0.2204911117705857
6.000000000000338,0.3173285685462223,0.22710218154306713
6.200000000000405,0.3301112716228381,0.244195402056259
6.400000000000472,0.3463142543282215,0.2554310810213349
6.600000000000539,0.36256859143966774,0.27156664386686247
6.800000000000606,0.37748308814392734,0.28962558881678646
7.000000000000672,0.39157696826967475,0.324555471911878
7.200000000000739,0.407617543208879,0.34230139893088446
7.400000000000806,0.42698095438282413,0.3512691163393404
7.600000000000873,0.4473304430624632,0.36715413452207507
7.8000000000009395,0.4663262263222335,0.38156858798942883
8.000000000001005,0.48182635055223166,0.39185053099298905
8.200000000000895,0.49467879052442243,0.4062377134415022
8.400000000000784,0.5103869496460286,0.4217636513101819
8.600000000000673,0.5268331922773551,0.43846769720205736
8.800000000000562,0.5405339196430262,0.45441319963961113
9.000000000000451,0.5575502650266652,0.46555213080612484
9.20000000000034,0.5763599517074723,0.48335226670397846
9.40000000000023,0.5876498404571814,0.5116766707454358
9.600000000000119,0.5993446077808279,0.5389158665866953
9.800000000000008,0.608364025093063,0.5591271545550652
10.000999999999896,0.6156972457729445,0.5784362083307237
10.200999999999786,0.6227464734488173,0.5977969622740702
10.400999999999675,0.6236553628799302,0.6151599041658409
10.600999999999564,0.6244269869960749,0.6357986904559206
10.800999999999453,0.6285898808833768,0.6604799894471387
11.000999999999342,0.6304602884310498,0.6886478358507472
11.200999999999231,0.6324686418581473,0.7154848957150519
11.40099999999912,0.6367247897777447,0.730316518963282
11.60099999999901,0.6421966151677411,0.7451224113915669
11.800999999998899,0.6374822043092077,0.7660496954017443
12.000999999998788,0.6308493903117934,0.7871406771498554
12.200999999998677,0.6250075199804814,0.8188171780902008
12.400999999998566,0.6255760833220724,0.8461527641387268
12.600999999998455,0.6248441753674806,0.8710106020909087
12.800999999998345,0.6278815494567971,0.8893456289623333
13.000999999998234,0.6339600884577453,0.9132288036735724
13.200999999998123,0.638694068912471,0.9364647927194845
13.400999999998012,0.6472526236581787,0.9549246598972828
13.600999999997901,0.6577693845602458,0.9679452787444558
13.80099999999779,0.6687139661450143,0.9848505917343411
14.00099999999768,0.6735269432457274,1.0051555349536392
14.200999999997569,0.6780814692458528,1.0176770888070692
14.400999999997458,0.6906809694182947,1.0384582632362036
14.600999999997347,0.7035195681026948,1.0578418750318808
14.800999999997236,0.7173264815129066,1.0796823266583362
15.000999999997125,0.7330923417350553,1.1046052008639176
15.200999999997014,0.7468250250666791,1.1399279701034435
15.400999999996904,0.755665718076236,1.1702716690390014
15.600999999996793,0.7682804730672659,1.203430783982091
15.800999999996682,0.7831603544224489,1.238392094891545
16.000999999996573,0.7916479271308807,1.2723609620854428
16.200999999996817,0.7950238266117254,1.3091075281094358
16.40099999999706,0.800092484314366,1.3410346819328363
16.600999999997306,0.8059508120495907,1.3773954339106258
16.80099999999755,0.8097623403075527,1.4189432125468067
17.000999999997795,0.8131257083337343,1.4642926755384902
17.20099999999804,0.8146484638915934,1.506327469966704
17.400999999998284,0.8104804268339308,1.5479484506548733
17.60099999999853,0.8101793651966215,1.5879804055392428
17.800999999998773,0.8102396695036935,1.6179548290786931
18.000999999999017,0.8079949773173276,1.6556335442088295
18.20099999999926,0.7985551761631324,1.696187303351983
18.400999999999506,0.7827728977024444,1.7388415037326084
18.60099999999975,0.7694831345883668,1.77650372306933
18.799999999999994,0.7632409488721761,1.8146074025716818
19.000000000000238,0.7585529860925153,1.845687304266593
19.200000000000482,0.7531317701762384,1.8791651838112806
19.400000000000727,0.7362692354530118,1.9227730913386882
19.60000000000097,0.7183387453974652,1.9632781245525897
19.800000000001216,0.7028880935952534,2.0026460097976977
20.00000000000146,0.6860010091880037,2.042874313847416
