Time (s),X (m),Y (m)
0.001,0.0010146588340248276,-0.0008449350584490237
0.20000000000000015,0.0005153544191600789,0.0005508472744658918
0.4000000000000003,0.0014361437954885678,-0.0019205240913688355
0.6000000000000004,0.011324716383230677,-0.01131924168855871
0.8000000000000006,0.017962577721492845,-0.01158647694646269
1.0000000000000007,0.02578817431672491,-0.008171134790301121
1.2009999999999785,0.03912533888707869,-0.0197824730375317
1.4009999999999565,0.05280859269039707,-0.018163245319332673
1.6009999999999345,0.06944049976066206,-0.023492390570404316
1.8009999999999124,0.0866110008763997,-0.019555700276507226
2.0009999999998906,0.10279392061614101,-0.009760006181097692
2.2009999999998686,0.11441758890448735,-0.017532188912140232
2.4009999999998466,0.12148580938121974,-0.025430182629010152
2.6009999999998246,0.13033151808778834,-0.03512798849090566
2.8009999999998025,0.14655342769830518,-0.03979124777779552
3.0009999999997805,0.16091425713540092,-0.05228919014138521
3.2009999999997585,0.1706989984199346,-0.06455110526760613
3.4009999999997365,0.1785404374918234,-0.07656172819815553
3.6009999999997144,0.18623283982404792,-0.0846314348062543
3.8009999999996924,0.19415158551591413,-0.09665671120600167
4.000999999999671,0.1995620625117904,-0.09976745244402088
4.200999999999738,0.20552674558220654,-0.11050635237830085
4.400999999999804,0.21271913155179112,-0.12248193490969055
4.600999999999871,0.2217034722117666,-0.128163663469177
4.800999999999938,0.22446940178437638,-0.1318901061113825
5.000000000000004,0.22661047948681612,-0.1406197238599631
5.200000000000071,0.23532318602833552,-0.14450744407273444
5.400000000000138,0.24131404821950053,-0.14739224717582194
5.600000000000205,0.2511514848127168,-0.1571356022573264
5.800000000000272,0.26035462948053406,-0.17195734849946112
6.000000000000338,0.2700218869844831,-0.1882675343410907
6.200000000000405,0.2821527351764264,-0.20300919445978313
6.400000000000472,0.28954571521982964,-0.21798252689840994
6.600000000000539,0.3016425740497142,-0.22777443512659493
6.800000000000606,0.31329828108673663,-0.2443711266853719
7.000000000000672,0.3205174616448302,-0.25296606950297407
7.200000000000739,0.32458833566988093,-0.26089518119367716
7.400000000000806,0.33272941566717257,-0.26972753829750545
7.600000000000873,0.34301748733314064,-0.2817095494675474
7.8000000000009395,0.3588838850619911,-0.28980671737141467
8.000000000001005,0.37480117267548557,-0.30044917072646526
8.200000000000895,0.3872615601660763,-0.31938329701710033
8.400000000000784,0.3952772464827215,-0.3392496102949749
8.600000000000673,0.40080004666205704,-0.36213741737767347
8.800000000000562,0.398746115823037,-0.39467607939825067
9.000000000000451,0.3960727464754534,-0.42762535092748494
9.20000000000034,0.3987116237873199,-0.45033418514517753
9.40000000000023,0.4072458400746105,-0.46825574297275463
9.600000000000119,0.42059599720574786,-0.4832578782021105
9.800000000000008,0.43355588737872647,-0.5057852075437587
10.000999999999896,0.439111737107487,-0.531198279535074
10.200999999999786,0.4454652476011365,-0.5588137857720136
10.400999999999675,0.4498765173172332,-0.5783595667027587
10.600999999999564,0.4497216835495388,-0.5936595656136612
10.800999999999453,0.451106309757625,-0.613455378412686
11.000999999999342,0.45832513456875945,-0.6243157697630314
11.200999999999231,0.4685621628885438,-0.6401556450741469
11.40099999999912,0.4776527130979176,-0.6521701316268393
11.60099999999901,0.4863174642240598,-0.6672207001593201
11.800999999998899,0.4970478309068951,-0.6812886896541311
12.000999999998788,0.5093288441602816,-0.7037545497099074
12.200999999998677,0.5221495422402731,-0.7285861001363663
12.400999999998566,0.5391712692482382,-0.7500814526685898
12.600999999998455,0.5570513531211897,-0.7714514230988763
12.800999999998345,0.566948559666284,-0.7979722520071024
13.000999999998234,0.5728948314705831,-0.826035451798536
13.200999999998123,0.5809621684942949,-0.8493516131088179
13.400999999998012,0.5908303774588368,-0.8603262244087899
13.600999999997901,0.6092568951740908,-0.8549467751667591
13.80099999999779,0.6289979380182905,-0.871348244416551
14.00099999999768,0.6443866430859986,-0.8982534526767064
14.200999999997569,0.6581139951869418,-0.9167271264107106
14.400999999997458,0.671072720638041,-0.9304740849958378
14.600999999997347,0.6831102132796406,-0.9514343185338545
14.800999999997236,0.6930681835394603,-0.9837598232978273
15.000999999997125,0.7011751012639178,-1.0115736578090457
15.200999999997014,0.7090069806620733,-1.0316992148896085
15.400999999996904,0.7196214788139668,-1.0535876089460154
15.600999999996793,0.7318043415039469,-1.076720947661949
15.800999999996682,0.7398725547829949,-1.0954098006428208
16.000999999996573,0.7501908675553476,-1.108544810872349
16.200999999996817,0.7600929704299461,-1.1234872814390235
16.40099999999706,0.7679581428959448,-1.143331920050673
16.600999999997306,0.7701780139624813,-1.1751122167906898
16.80099999999755,0.767620665708538,-1.196022045199703
17.000999999997795,0.769660521503833,-1.207656137045682
17.20099999999804,0.7816717356953834,-1.2190211729554554
17.400999999998284,0.7929573140424669,-1.2321385315994706
17.60099999999853,0.8007497903544943,-1.2578318544487053
17.800999999998773,0.8032056059931924,-1.2922408849794842
18.000999999999017,0.8059382275075039,-1.321243458091249
18.20099999999926,0.8133818220386608,-1.3423070390615943
18.400999999999506,0.815897941104777,-1.364142404787546
18.60099999999975,0.8234034840638147,-1.3722264137999531
18.799999999999994,0.8300902983780482,-1.3842817795558864
19.000000000000238,0.832876303546095,-1.412031634908846
19.200000000000482,0.8350374946880537,-1.4450591049415542
19.400000000000727,0.8456370810349267,-1.45859506524562
19.60000000000097,0.8606636860719533,-1.466381034284965
19.800000000001216,0.8727459358514781,-1.4921390034126454
20.00000000000146,0.8843941867097527,-1.5337400982274838
