Time (s),X (m),Y (m)
0.001,0.001267963995250183,-0.0005916298972236683
0.20000000000000015,0.00022076293246080898,0.0003819484150907156
0.4000000000000003,0.004569955618947742,-0.004955871943818457
0.6000000000000004,0.014689689789643303,-0.005563178473132201
0.8000000000000006,0.02081854724722972,-0.005610218425337955
1.0000000000000007,0.029908701293774948,-0.010435662314728318
1.2009999999999785,0.03889576017346996,-0.011561542882944621
1.4009999999999565,0.04318804625084307,-0.012685771203282811
1.6009999999999345,0.0529695802026283,-0.012145810068584617
1.8009999999999124,0.07191334632286557,-0.01778710684089615
2.0009999999998906,0.08972823854636457,-0.02114321941322043
2.2009999999998686,0.10938669323249985,-0.03162728748894015
2.4009999999998466,0.12909482306898074,-0.03712303880462929
2.6009999999998246,0.1474152087308985,-0.04571343959641835
2.8009999999998025,0.161830929682966,-0.04626909817225097
3.0009999999997805,0.1792349322140623,-0.05008492674572183
3.2009999999997585,0.19909076664362096,-0.05694125421519577
3.4009999999997365,0.2129976001167592,-0.058656947617173445
3.6009999999997144,0.23273766815581037,-0.07151397780396046
3.8009999999996924,0.2483678677363303,-0.07572026860676737
4.000999999999671,0.25679753545841466,-0.07816032557989083
4.200999999999738,0.26182879829149824,-0.07477899688839326
4.400999999999804,0.2738969896748341,-0.07616331680613479
4.600999999999871,0.2946782808585892,-0.08069694591867696
4.800999999999938,0.3193481897913802,-0.08802678249463439
5.000000000000004,0.33485565686692653,-0.09209738431543645
5.200000000000071,0.362176016447546,-0.10154293803355413
5.400000000000138,0.3893046798476022,-0.11438264063311397
5.600000000000205,0.42240596560650495,-0.1269448656465068
5.800000000000272,0.44909082414036133,-0.13706190236904467
6.000000000000338,0.47251426392724794,-0.15203635450674874
6.200000000000405,0.49951096681815954,-0.1767504291132881
6.400000000000472,0.5236349626357111,-0.20035653199412076
6.600000000000539,0.5388954691121819,-0.2355926529404381
6.800000000000606,0.5388195620007135,-0.26495631492954347
7.000000000000672,0.5319046964012918,-0.29613864257425293
7.200000000000739,0.53125956552261,-0.33016749961774067
7.400000000000806,0.5336023291168033,-0.3473925343991742
7.600000000000873,0.524810733910531,-0.37702478630310876
7.8000000000009395,0.5188905375848629,-0.40905786979014086
8.000000000001005,0.5062718095629388,-0.43713195081105766
8.200000000000895,0.49374857958474155,-0.4591241047329444
8.400000000000784,0.48272567795060894,-0.489633083346708
8.600000000000673,0.468267831670198,-0.5292764087484274
8.800000000000562,0.44830872091037377,-0.5751768503236744
9.000000000000451,0.4332083871728051,-0.618705517074093
9.20000000000034,0.41863220106218985,-0.6511610152659381
9.40000000000023,0.4120970254427308,-0.6788724919961617
9.600000000000119,0.4066674301937982,-0.7003947606306048
9.800000000000008,0.3985710254844566,-0.7244745683594328
10.000999999999896,0.39124827592742634,-0.7534840410955884
10.200999999999786,0.39216358309464494,-0.7761170184946848
10.400999999999675,0.3963049048967444,-0.7946215354957155
10.600999999999564,0.40019253770744834,-0.812186649367447
10.800999999999453,0.3916498835424976,-0.8418326882666529
11.000999999999342,0.3834793433131086,-0.8737366796896375
11.200999999999231,0.37528676861414345,-0.9059936478913078
11.40099999999912,0.367915167271816,-0.9398880896486034
11.60099999999901,0.3599276782930127,-0.9729192891459978
11.800999999998899,0.35001974353995696,-1.0065880611854494
12.000999999998788,0.34072496787983736,-1.036844343996204
12.200999999998677,0.3323261613454483,-1.0792127242163883
12.400999999998566,0.32852571603964414,-1.1195424403019683
12.600999999998455,0.32495699858468535,-1.150166143670252
12.800999999998345,0.3211505470803264,-1.1804342116083721
13.000999999998234,0.31317779615733804,-1.2144307385937858
13.200999999998123,0.30611381775727015,-1.2445428462330925
13.400999999998012,0.2917193453607583,-1.275679927413327
13.600999999997901,0.28678878508888944,-1.3045189859307025
13.80099999999779,0.27575618291295806,-1.3369471287863526
14.00099999999768,0.25309193119369366,-1.3713549851064208
14.200999999997569,0.23650065643931045,-1.401260277305631
14.400999999997458,0.21949179633052057,-1.4326910925344287
14.600999999997347,0.19106148300672132,-1.4691217174622684
14.800999999997236,0.16329064781538646,-1.4941223966287078
15.000999999997125,0.13341041393621628,-1.507924680146555
15.200999999997014,0.10994170613934938,-1.514176855319758
15.400999999996904,0.08212840767243101,-1.517214621002094
15.600999999996793,0.04180220004964896,-1.5113246501625421
15.800999999996682,0.0004283197042734223,-1.5018487023057285
16.000999999996573,-0.03256741938882455,-1.4971002493733683
16.200999999996817,-0.06994728019268588,-1.4893771497447594
16.40099999999706,-0.10355333739923382,-1.4793012127731517
16.600999999997306,-0.13452513441047423,-1.4729552871549858
16.80099999999755,-0.17183761140216583,-1.462662669814647
17.000999999997795,-0.21469806209438408,-1.4434812381687594
17.20099999999804,-0.2528500532377689,-1.4254658316671316
17.400999999998284,-0.29466488793951484,-1.405982981496937
17.60099999999853,-0.33841185688201253,-1.386858934526347
17.800999999998773,-0.3855295797849902,-1.3604852907544058
18.000999999999017,-0.4279956918926646,-1.347107816815579
18.20099999999926,-0.46892903739531033,-1.3331350014344396
18.400999999999506,-0.5088900014250891,-1.3143842051479186
18.60099999999975,-0.5545912802724067,-1.2907532640818855
18.799999999999994,-0.5963798704944615,-1.278734562917224
19.000000000000238,-0.6360769794047927,-1.257617507175676
19.200000000000482,-0.6618165720520186,-1.2213939635363058
19.400000000000727,-0.66766178230878,-1.1767361341602938
19.60000000000097,-0.6553184839672812,-1.1204890270660246
19.800000000001216,-0.6411467503415237,-1.0718317275017577
20.00000000000146,-0.6278897389543459,-1.0253344288030464
