Time (s),X (m),Y (m)
0.001,-0.00036712694553334754,0.0006630195094394434
0.20000000000000015,0.0017054528179322132,-0.0010913649483843028
0.4000000000000003,0.0023118080444052553,-0.0014469229075254036
0.6000000000000004,0.008783902431390107,-0.0048841114507822865
0.8000000000000006,0.012634580290485154,-0.002335699167986364
1.0000000000000007,0.014059320634780902,-0.0009835119735324457
1.2009999999999785,0.02297063140895662,-0.0017301376643183714
1.4009999999999565,0.029688132397318965,-0.000963078005157058
1.6009999999999345,0.0363147566449288,0.0014892279912329823
1.8009999999999124,0.04800582744254721,-0.004846422896391216
2.0009999999998906,0.06570238361387352,-0.011410407877178525
2.2009999999998686,0.0824912702430391,-0.017866981685205778
2.4009999999998466,0.10097570168331241,-0.023377882797194636
2.6009999999998246,0.11829772995857335,-0.028558393489477318
2.8009999999998025,0.13083897722157517,-0.02755535452021581
3.0009999999997805,0.14689363781063888,-0.030331510083162535
3.2009999999997585,0.1669317134719788,-0.03181489017965154
3.4009999999997365,0.19463165534061402,-0.041227015046370344
3.6009999999997144,0.21698801751096508,-0.048481392329617644
3.8009999999996924,0.23715116308244033,-0.06971100230163818
4.000999999999671,0.25648243140632754,-0.08449573527560247
4.200999999999738,0.2809977200739767,-0.09002236557546588
4.400999999999804,0.30241589150559905,-0.0994468219520079
4.600999999999871,0.3229160563202594,-0.1060042185017862
4.800999999999938,0.3483744528973647,-0.12324429160038791
5.000000000000004,0.37861392939416694,-0.1441397976713787
5.200000000000071,0.4020996319776051,-0.168924265727736
5.400000000000138,0.41218607267546326,-0.20366601984392244
5.600000000000205,0.4159540654518571,-0.23970325982723387
5.800000000000272,0.42008477216700824,-0.2660756708122553
6.000000000000338,0.4129277297833014,-0.2953811370113239
6.200000000000405,0.4043904356252325,-0.32049230102739656
6.400000000000472,0.40114573117043,-0.34535605096833294
6.600000000000539,0.3862779540697254,-0.3807782459528413
6.800000000000606,0.36989398845966065,-0.4171472965788432
7.000000000000672,0.3574031833453054,-0.4446370908317462
7.200000000000739,0.3531693666619242,-0.46801861381584275
7.400000000000806,0.3449408668008295,-0.5025512410100029
7.600000000000873,0.33342995096107564,-0.54872490522138
7.8000000000009395,0.3212989021659511,-0.5915294812613306
8.000000000001005,0.3062245105034525,-0.6360075522014442
8.200000000000895,0.30117949140971934,-0.6687241014200707
8.400000000000784,0.29076997751181033,-0.7000490912225548
8.600000000000673,0.28354414745383055,-0.7262491841231321
8.800000000000562,0.27798837457905096,-0.7512148890878871
9.000000000000451,0.2773271223850586,-0.7810848448612994
9.20000000000034,0.27491286091975614,-0.8147708901853095
9.40000000000023,0.27133269581731323,-0.8472190755011326
9.600000000000119,0.2654222982673908,-0.8795252798477877
9.800000000000008,0.2588793417748431,-0.9208057038906208
10.000999999999896,0.24512033413283685,-0.9719023844657678
10.200999999999786,0.2336109028135187,-1.0173989445169784
10.400999999999675,0.23033585688616015,-1.0548772396668555
10.600999999999564,0.21829364953610508,-1.0984612076800673
10.800999999999453,0.20675335671346748,-1.1453522098717426
11.000999999999342,0.18794436038176238,-1.1852220012252588
11.200999999999231,0.16508625739450522,-1.2140974051519635
11.40099999999912,0.12970264264007725,-1.2317147764512604
11.60099999999901,0.08430611251625401,-1.236940300861854
11.800999999998899,0.046334069052289546,-1.23718176344867
12.000999999998788,0.005455377297161633,-1.2292126388526734
12.200999999998677,-0.031826402572685014,-1.2205585287166394
12.400999999998566,-0.07100302943574056,-1.2150165905906205
12.600999999998455,-0.11273355130877193,-1.209120809400005
12.800999999998345,-0.16491927812399865,-1.201893203813196
13.000999999998234,-0.2105867238033374,-1.187219446348341
13.200999999998123,-0.25588747901780107,-1.1591516132367718
13.400999999998012,-0.29417894871296585,-1.1343351051748807
13.600999999997901,-0.3346615782626751,-1.1126600959600557
13.80099999999779,-0.3712357378077107,-1.095150809453527
14.00099999999768,-0.39256272606803544,-1.0690031722570599
14.200999999997569,-0.4035912009971891,-1.0397252269188129
14.400999999997458,-0.4074484122856004,-1.007833358784353
14.600999999997347,-0.4051938904192072,-0.9745193499514501
14.800999999997236,-0.40292787266367347,-0.9447110327516693
15.000999999997125,-0.40464317261673055,-0.9210010526394553
15.200999999997014,-0.40758808434428634,-0.895863563754451
15.400999999996904,-0.4046873291713508,-0.8569741116138435
15.600999999996793,-0.3957114881674806,-0.8065672464487421
15.800999999996682,-0.39282570140061335,-0.7642160522357774
16.000999999996573,-0.389645730982889,-0.7345000761463845
16.200999999996817,-0.3733966291547471,-0.6918895513445865
16.40099999999706,-0.3600247536153097,-0.6434090550493812
16.600999999997306,-0.34978984548250996,-0.6005727324930632
16.80099999999755,-0.34154094740518376,-0.5600873242471551
17.000999999997795,-0.3359712671025094,-0.5181518461198714
17.20099999999804,-0.3332899678857807,-0.4714492804741154
17.400999999998284,-0.32251401257430246,-0.41978840621827235
17.60099999999853,-0.3010824137642047,-0.3605098781759454
17.800999999998773,-0.29217011129766535,-0.3161988344695641
18.000999999999017,-0.27761766007286587,-0.2702993641408843
18.20099999999926,-0.2723406907625918,-0.23057498490177233
18.400999999999506,-0.2670729487725732,-0.18747956839140398
18.60099999999975,-0.25461917729270983,-0.1390062542106735
18.799999999999994,-0.23154997394783983,-0.09308710259719045
19.000000000000238,-0.1942395369789275,-0.056462223184822524
19.200000000000482,-0.15420273513278498,-0.031560786367213566
19.400000000000727,-0.11832026791216835,-0.008501311273965717
19.60000000000097,-0.072777431013988,0.003724976754901307
19.800000000001216,-0.025884737069705163,0.010195370229523824
20.00000000000146,0.021768853669461363,0.005180426151357646
