Time (s),X (m),Y (m)
0.001,0.0013578629866597446,-0.0004359202765531099
0.20000000000000015,0.0024283541498191937,-0.0013406953446959107
0.4000000000000003,0.007126970350221973,-0.007722545515317286
0.6000000000000004,0.013333431672624832,-0.011519866623931048
0.8000000000000006,0.03222149990302641,-0.023543596336327546
1.0000000000000007,0.06799989497361425,-0.037189900389884886
1.2009999999999785,0.10545744570564762,-0.04596013468973375
1.4009999999999565,0.13703596367975862,-0.053195583027461676
1.6009999999999345,0.16683778419142561,-0.06635398886842243
1.8009999999999124,0.19616071224661122,-0.0895219364335031
2.0009999999998906,0.22365905204141814,-0.10802961797315856
2.2009999999998686,0.23862719548083774,-0.12656772979094816
2.4009999999998466,0.22502042602644662,-0.15291345351858188
2.6009999999998246,0.1942785375746354,-0.18433469284636006
2.8009999999998025,0.17077069452347615,-0.21734335079711914
3.0009999999997805,0.12099448912225035,-0.23860792726025026
3.2009999999997585,0.06965735372331669,-0.23967521131895123
3.4009999999997365,0.017546855409816,-0.22713657492755104
3.6009999999997144,-0.03705498530801065,-0.209962788078108
3.8009999999996924,-0.08363642264810983,-0.1902909308939176
4.000999999999671,-0.12094839094062756,-0.1710869900237527
4.200999999999738,-0.1657838650347436,-0.14850915073077572
4.400999999999804,-0.2135837457175326,-0.12203252076170985
4.600999999999871,-0.2693641773097569,-0.07664310629915702
4.800999999999938,-0.32134457910393927,-0.026054705069165053
5.000000000000004,-0.366411110286586,0.023843640825064637
5.200000000000071,-0.3937529091496686,0.07856870264190188
5.400000000000138,-0.4014910886057319,0.13269506664948164
5.600000000000205,-0.38797922345406244,0.18392483977253837
5.800000000000272,-0.36481778778986923,0.2282746956254461
6.000000000000338,-0.32190102094519074,0.2508553744062493
6.200000000000405,-0.2749153270050114,0.25839858183778314
6.400000000000472,-0.22602317774244077,0.2536132975097404
6.600000000000539,-0.17604136364217898,0.24112430636636767
6.800000000000606,-0.12273624458878428,0.2212470012023091
7.000000000000672,-0.06530360275350822,0.19283038623681012
7.200000000000739,-0.003468025333077632,0.16357922765184757
7.400000000000806,0.044722936373375585,0.12117539351446974
7.600000000000873,0.07186026547829777,0.0780966511587837
7.8000000000009395,0.07501402546692494,0.0382998544964637
8.000000000001005,0.05836688816529082,-0.0072006113904791325
8.200000000000895,0.022072837537335372,-0.05633417627767346
8.400000000000784,-0.030850079926269647,-0.09522148596031457
8.600000000000673,-0.08453384704711266,-0.11492759670149046
8.800000000000562,-0.13290353540093008,-0.12197262586620426
9.000000000000451,-0.17083609725441745,-0.12686947349518787
9.20000000000034,-0.22007673417478132,-0.11165969349044522
9.40000000000023,-0.28004118492066243,-0.08392908251960474
9.600000000000119,-0.3421477166081867,-0.057168749829964734
9.800000000000008,-0.4020632972984511,-0.02873389890512093
10.000999999999896,-0.44514305130690435,0.00756636026173001
10.200999999999786,-0.46371744780321006,0.060929088366624196
10.400999999999675,-0.4572684070757758,0.11987389609349444
10.600999999999564,-0.44083498301060764,0.1770492125451983
10.800999999999453,-0.4156205484311957,0.245763781387757
11.000999999999342,-0.3886665204630557,0.31525617635518854
11.200999999999231,-0.35779348359354946,0.3839724553396894
11.40099999999912,-0.3339834079510325,0.44249967349261043
11.60099999999901,-0.30995362438860474,0.4987822954064516
11.800999999998899,-0.28300506758752597,0.5606260703583812
12.000999999998788,-0.25814166279666495,0.6201815454610254
12.200999999998677,-0.2359370105122203,0.682129289604622
12.400999999998566,-0.2079740096005852,0.7515137426524456
12.600999999998455,-0.17150032787777744,0.824713561644528
12.800999999998345,-0.11736934206172887,0.9004929292855354
13.000999999998234,-0.06734261095029652,0.9608765298557526
13.200999999998123,-0.006484725195679322,0.9993408074343931
13.400999999998012,0.04876879209154852,1.0271437499820728
13.600999999997901,0.10332775109578195,1.0336114762253779
13.80099999999779,0.16069305446924476,1.0209070263891313
14.00099999999768,0.22449565259218054,0.9858422936928671
14.200999999997569,0.27506038373142133,0.9363433208475164
14.400999999997458,0.2911564585742415,0.8757346822347006
14.600999999997347,0.2859022775325557,0.8073848837246373
14.800999999997236,0.2689062783525422,0.7419676111029221
15.000999999997125,0.24630171658203898,0.6792242744867595
15.200999999997014,0.199647888355026,0.6175557653313922
15.400999999996904,0.1439337486439205,0.5608156728503119
15.600999999996793,0.09305805295152698,0.5251408778721299
15.800999999996682,0.03963642003121836,0.5177928521484102
16.000999999996573,-0.01808487319222968,0.5274872329701285
16.200999999996817,-0.07671293515028499,0.5394529121135154
16.40099999999706,-0.1361563597660534,0.5559349494989518
16.600999999997306,-0.1837894637098765,0.5845118717280943
16.80099999999755,-0.20869011330287726,0.6305690115325537
17.000999999997795,-0.21326589649500474,0.6889307117259303
17.20099999999804,-0.19278591695217753,0.7501146630149084
17.400999999998284,-0.14791781551163133,0.7886174427923424
17.60099999999853,-0.10129997730674146,0.8045665180402328
17.800999999998773,-0.048715001506448384,0.8034493632128743
18.000999999999017,0.005075912418408325,0.7939503989718922
18.20099999999926,0.07245029909988439,0.7730562096532673
18.400999999999506,0.14035052830841607,0.7444588063111265
18.60099999999975,0.21005126912783273,0.710334181927916
18.799999999999994,0.27175414756681815,0.6764339261160025
19.000000000000238,0.3078004830231467,0.6318333313668713
19.200000000000482,0.3195754405160223,0.5722874276452637
19.400000000000727,0.3016786059289861,0.5038776626019843
19.60000000000097,0.27182000266943296,0.43375465197478813
19.800000000001216,0.23799264155750804,0.35758304531049107
20.00000000000146,0.19622025030783619,0.27655301341427463
