Time (s),X (m),Y (m)
0.001,-1.2891339751951317e-05,0.0009348340498585851
0.20000000000000015,0.0019810130667112223,-0.002187589352711077
0.4000000000000003,0.007518325272389817,-0.0017363075434289198
0.6000000000000004,0.016273901441464882,-0.0056638699405122915
0.8000000000000006,0.03349342187716659,-0.006740812933509115
1.0000000000000007,0.05444669236649806,-0.0035960895626752174
1.2009999999999785,0.07745810947082842,-0.006756322323390697
1.4009999999999565,0.1039579335191273,-0.0339252631547521
1.6009999999999345,0.13154870346696412,-0.049278124277165
1.8009999999999124,0.1640886059437709,-0.05116208820564913
2.0009999999998906,0.19244260574818042,-0.037256492405859494
2.2009999999998686,0.22317357075530675,-0.0279034073351235
2.4009999999998466,0.24898193914768338,-0.006515764584764398
2.6009999999998246,0.2795232367287286,0.0098337062822954
2.8009999999998025,0.3133965463213831,0.021314269372174482
3.0009999999997805,0.34580719962443873,0.02963618365335083
3.2009999999997585,0.3843410588603696,0.016532218294853376
3.4009999999997365,0.4253744128562353,0.0004280615496370893
3.6009999999997144,0.4650285113794942,-0.01114138408446878
3.8009999999996924,0.5017654315978297,-0.02109581352409109
4.000999999999671,0.5341195555769892,-0.046639827323667414
4.200999999999738,0.5717557795882896,-0.056680795000548796
4.400999999999804,0.6129559450466051,-0.07371502255174096
4.600999999999871,0.6540487419551252,-0.11480203768343944
4.800999999999938,0.6941203628235043,-0.15477540912589002
5.000000000000004,0.7367282715529726,-0.1960960728731124
5.200000000000071,0.777216496026814,-0.26037582731403075
5.400000000000138,0.8193148007124521,-0.3048570364374455
5.600000000000205,0.8619435440762071,-0.33127030579310035
5.800000000000272,0.898191422704065,-0.361876275176948
6.000000000000338,0.9319611715032929,-0.4115891657901117
6.200000000000405,0.9625388692733857,-0.4668964637203806
6.400000000000472,0.9915736048787597,-0.5104049315567063
6.600000000000539,1.023407015123036,-0.529859570731338
6.800000000000606,1.0541608296822096,-0.547667783531039
7.000000000000672,1.0926627872586532,-0.5673342262718774
7.200000000000739,1.1322575928427348,-0.5960429781369172
7.400000000000806,1.1658098429675607,-0.6256427492577271
7.600000000000873,1.197976385928118,-0.6569023522660428
7.8000000000009395,1.230255173595376,-0.7001483618053577
8.000000000001005,1.2627141089050364,-0.7265566958620507
8.200000000000895,1.2966169802585938,-0.7377351680864808
8.400000000000784,1.3255589881978598,-0.7651038244351623
8.600000000000673,1.330466113038921,-0.821495967042406
8.800000000000562,1.3335194649645359,-0.8860228540220764
9.000000000000451,1.3442844480271932,-0.93312064039202
9.20000000000034,1.3594897510564523,-0.9766422649798897
9.40000000000023,1.3757866106586518,-1.0384167123004524
9.600000000000119,1.3984367226004184,-1.0902790766833264
9.800000000000008,1.4201667543413694,-1.1386764097624835
10.000999999999896,1.4484949925290076,-1.172479133883391
10.200999999999786,1.485735724667124,-1.2094930061234965
10.400999999999675,1.5274530254084484,-1.2514093453407893
10.600999999999564,1.5731609459995437,-1.279473780291286
10.800999999999453,1.6140335391644212,-1.3128053767335017
11.000999999999342,1.6543954205163107,-1.3615710345467016
11.200999999999231,1.6942498001021735,-1.4112606008084514
11.40099999999912,1.7379997732986916,-1.459342612910224
11.60099999999901,1.7805290434976015,-1.4962564949248947
11.800999999998899,1.8187023579378505,-1.5373533653980822
12.000999999998788,1.8531185894355997,-1.5739780324580384
12.200999999998677,1.888297135771687,-1.6137390424185143
12.400999999998566,1.9264286221580447,-1.6494711512956892
12.600999999998455,1.9666575621357345,-1.6825328964227002
12.800999999998345,2.0064198561250897,-1.7141826645934184
13.000999999998234,2.0463396209543445,-1.7527121481448993
13.200999999998123,2.0836777723694317,-1.7973243280876976
13.400999999998012,2.1177468372931574,-1.828431437265781
13.600999999997901,2.1482250086510133,-1.8520460366240152
13.80099999999779,2.183409941274491,-1.8788721461383457
14.00099999999768,2.2171447349092297,-1.9197146482283531
14.200999999997569,2.2480727032130936,-1.9711532343841953
14.400999999997458,2.2798259566703476,-2.0261051631228426
14.600999999997347,2.3054407382116655,-2.076558443887166
14.800999999997236,2.3310863966940807,-2.129595760321702
15.000999999997125,2.3584718467719537,-2.1820561848279962
15.200999999997014,2.390451081873784,-2.226815718361546
15.400999999996904,2.423233778631693,-2.28216202241178
15.600999999996793,2.4566208030766603,-2.343319516773198
15.800999999996682,2.4833405394110857,-2.4110593571760712
16.000999999996573,2.5045271110661056,-2.4811784422889325
16.200999999996817,2.5216340697416433,-2.564991956556017
16.40099999999706,2.5435514045013186,-2.645368500311041
16.600999999997306,2.562691298977422,-2.718415668346852
16.80099999999755,2.5770128876364593,-2.792958719240295
17.000999999997795,2.5945103562155625,-2.8658765442105136
17.20099999999804,2.614894959379136,-2.931329560626074
17.400999999998284,2.637234029383091,-2.9777306245185526
17.60099999999853,2.6592276252758804,-3.0311324903960952
17.800999999998773,2.682674171791508,-3.080477576395038
18.000999999999017,2.710398990878792,-3.1245807011262468
18.20099999999926,2.7445233065969665,-3.15779023735724
18.400999999999506,2.7834473708459457,-3.18914102693348
18.60099999999975,2.817407199896494,-3.2324090523700675
18.799999999999994,2.8450043395856097,-3.2787440490668565
19.000000000000238,2.870155180074046,-3.3285114210871507
19.200000000000482,2.8915413579968674,-3.3778475085303326
19.400000000000727,2.914569707295458,-3.4303488133037248
19.60000000000097,2.937376062341766,-3.4947354404390008
19.800000000001216,2.9637505838399347,-3.554310829438192
20.00000000000146,2.996707862629583,-3.5997370753048594
