Time (s),X (m),Y (m)
0.001,0.00033312994539159724,0.0010275501737767782
0.20000000000000015,0.0010250440523249223,-0.001533364705202263
0.4000000000000003,0.005054292528854272,0.008408740049098876
0.6000000000000004,0.014665439106017161,0.011765070486210866
0.8000000000000006,0.026016953376548458,0.023061481974458252
1.0000000000000007,0.04107562217216189,0.004721265779341976
1.2009999999999785,0.060383759887397734,-0.014937081484718916
1.4009999999999565,0.07707734909562139,-0.034713443718288994
1.6009999999999345,0.09594520286743063,-0.044278876621589275
1.8009999999999124,0.11783297221198054,-0.04730349852831841
2.0009999999998906,0.138585258544879,-0.048640846526703134
2.2009999999998686,0.15959311647987515,-0.0529156914152954
2.4009999999998466,0.18328945956365328,-0.06006226052593005
2.6009999999998246,0.2050784198985986,-0.07199858682775653
2.8009999999998025,0.21185259301630935,-0.09218148815220528
3.0009999999997805,0.20267650463005868,-0.11408010835101061
3.2009999999997585,0.1854885298760764,-0.1310532495718828
3.4009999999997365,0.16659967148902838,-0.14817007835270546
3.6009999999997144,0.16045717073143248,-0.17496168580786037
3.8009999999996924,0.16830658199337778,-0.212587798910165
4.000999999999671,0.17278993411633944,-0.24809548374322976
4.200999999999738,0.16117641961926066,-0.27746901033951615
4.400999999999804,0.14435429718123677,-0.30610429895712277
4.600999999999871,0.10996495898110192,-0.33039839700528817
4.800999999999938,0.07100144124983797,-0.34959969274693625
5.000000000000004,0.037880451372889354,-0.37154422138113957
5.200000000000071,0.008544394019048959,-0.4007213888369374
5.400000000000138,-0.021633851376430216,-0.4204035481245008
5.600000000000205,-0.06389822332198282,-0.43061438789218953
5.800000000000272,-0.10585583563720705,-0.42908124079184096
6.000000000000338,-0.13661981652085073,-0.4099335162687906
6.200000000000405,-0.15978185394728822,-0.3845334167477729
6.400000000000472,-0.18858306130485325,-0.3621610917867295
6.600000000000539,-0.20419498980983006,-0.33193867358575396
6.800000000000606,-0.2058506526348331,-0.29842475726282114
7.000000000000672,-0.19992943415461206,-0.2626379608696815
7.200000000000739,-0.1855103155881191,-0.22529699134573236
7.400000000000806,-0.1690418023914919,-0.1898635992118683
7.600000000000873,-0.14907658937962998,-0.1616652015244257
7.8000000000009395,-0.12711936962703652,-0.14276401799408162
8.000000000001005,-0.09514207408884957,-0.14149503137677547
8.200000000000895,-0.04903168406285209,-0.13860622901082104
8.400000000000784,0.0006911679022226353,-0.13955872389514304
8.600000000000673,0.03446463360234369,-0.15326600016339284
8.800000000000562,0.05122884619527349,-0.17336239268787731
9.000000000000451,0.04811737132084182,-0.20439520630851515
9.20000000000034,0.03675529087240547,-0.2384613746715623
9.40000000000023,0.013201916409711831,-0.25432915005333545
9.600000000000119,-0.01915068441318044,-0.249631702085264
9.800000000000008,-0.053617274468186156,-0.24120874451485635
10.000999999999896,-0.09392239366520586,-0.23178596793109324
10.200999999999786,-0.12681910789867104,-0.2083671490728321
10.400999999999675,-0.16913295448808913,-0.18090983597748006
10.600999999999564,-0.2084862286198028,-0.14780744469680457
10.800999999999453,-0.22021530057989386,-0.10670665742762811
11.000999999999342,-0.20594751689374402,-0.07712691588596074
11.200999999999231,-0.19381370201992468,-0.03893705682974532
11.40099999999912,-0.17629021345021276,-0.0035452749312736838
11.60099999999901,-0.15444467831891326,0.0361814709047541
11.800999999998899,-0.1258934638133149,0.08172660807016818
12.000999999998788,-0.09676363072065707,0.09583640592608922
12.200999999998677,-0.06664771574313828,0.08944786433410515
12.400999999998566,-0.04351447109815688,0.07268405292474352
12.600999999998455,-0.034286936042822076,0.04616554745635886
12.800999999998345,-0.03172605773363553,0.009018221299355584
13.000999999998234,-0.03819478088036123,-0.030025872750661778
13.200999999998123,-0.05270699576902662,-0.06570957555842831
13.400999999998012,-0.06782174812385011,-0.10530403739517809
13.600999999997901,-0.08837180643933788,-0.14915721540286964
13.80099999999779,-0.1090860809351405,-0.1825785118130842
14.00099999999768,-0.10931340333406403,-0.19254337418659842
14.200999999997569,-0.10060465105637503,-0.18040608080201748
14.400999999997458,-0.07887149848636588,-0.16571648989784074
14.600999999997347,-0.049483505470131264,-0.15640700660677845
14.800999999997236,-0.010872557176501466,-0.1498358308724253
15.000999999997125,0.030246636098052834,-0.14540413921242393
15.200999999997014,0.05992745924808127,-0.16087005854191283
15.400999999996904,0.09346694212359564,-0.17955918615739994
15.600999999996793,0.10457568970208293,-0.20581823032766056
15.800999999996682,0.10366930910606852,-0.24340157700158813
16.000999999996573,0.10074283060806107,-0.288203893481335
16.200999999996817,0.09968429905763695,-0.33720288631486783
16.40099999999706,0.09477606440342407,-0.3813946376891492
16.600999999997306,0.07465982992547729,-0.4175449666629012
16.80099999999755,0.05985448641237818,-0.45694597806912707
17.000999999997795,0.041158034835435314,-0.4908813530914036
17.20099999999804,0.015898881652178506,-0.5233255970588243
17.400999999998284,-0.01725509772725936,-0.5562262876672794
17.60099999999853,-0.04896603326247063,-0.5821331155662095
17.800999999998773,-0.08485134771900822,-0.6140229220544529
18.000999999999017,-0.12539660975143768,-0.6352103585103526
18.20099999999926,-0.1714858072210572,-0.6428367190184299
18.400999999999506,-0.2196565460484051,-0.6387936254214281
18.60099999999975,-0.2620283720544405,-0.621843477235798
18.799999999999994,-0.2928856557689626,-0.5937807571858388
19.000000000000238,-0.29470450691532296,-0.5607384422174003
19.200000000000482,-0.28089233573516154,-0.5300281012365311
19.400000000000727,-0.25712763846291026,-0.49697276547738545
19.60000000000097,-0.23110274318903365,-0.45374754247244775
19.800000000001216,-0.19175389114448504,-0.41865830548020416
20.00000000000146,-0.15324379196434873,-0.4089153050195398
