Time (s),X (m),Y (m)
0.001,0.0007758142491328282,0.0009692696795465077
0.20000000000000015,0.0008235157121592058,-0.0005046245002128783
0.4000000000000003,0.00381488491338445,0.0004840855666129007
0.6000000000000004,0.011428443882819132,0.0036439196201482693
0.8000000000000006,0.019952743784022463,0.0011567443540427375
1.0000000000000007,0.02850066871663934,-0.002751066907884031
1.2009999999999785,0.03483412111601933,-0.006615385546548628
1.4009999999999565,0.04435626893091978,-0.005085555903187951
1.6009999999999345,0.05897822839741923,-0.007648433118863383
1.8009999999999124,0.07755935753813051,-0.006043471249081762
2.0009999999998906,0.08939639287380804,-0.006616726123177361
2.2009999999998686,0.10105961555749603,-0.0007653220571550975
2.4009999999998466,0.12099751841722707,0.005742155410735056
2.6009999999998246,0.14081620297440176,0.00909550133988957
2.8009999999998025,0.16052486411968714,0.016293957825118093
3.0009999999997805,0.18067999952681663,0.023445701612256536
3.2009999999997585,0.20251247017011723,0.03525822204541044
3.4009999999997365,0.22222505269978649,0.04089493352495212
3.6009999999997144,0.24415354513687804,0.04405465367068107
3.8009999999996924,0.2564307350087262,0.039456777407586026
4.000999999999671,0.26948864105148174,0.03873265960799122
4.200999999999738,0.28031763874173937,0.036905375786310674
4.400999999999804,0.2946689886645918,0.04586045962988062
4.600999999999871,0.3140462470874992,0.049937635579731535
4.800999999999938,0.3348173113175725,0.049417787745450026
5.000000000000004,0.35080912962794747,0.05024750456073464
5.200000000000071,0.36912417030186034,0.06083911058995765
5.400000000000138,0.3893094054425123,0.06731455313633279
5.600000000000205,0.40954170407565305,0.07109195805445527
5.800000000000272,0.42492312646081964,0.0754382161563442
6.000000000000338,0.44278491639448947,0.08015190863126863
6.200000000000405,0.46253340871944987,0.09169921172594493
6.400000000000472,0.4885681897417074,0.10446572570064551
6.600000000000539,0.5137995185793877,0.12040318777858022
6.800000000000606,0.5433767419315799,0.13561963942632535
7.000000000000672,0.5658377854492076,0.14202174783092011
7.200000000000739,0.5989171929648761,0.15108270587242945
7.400000000000806,0.6272617827067574,0.15475900420660066
7.600000000000873,0.6547021707810577,0.15669757675619994
7.8000000000009395,0.6692889284320861,0.1596842130666152
8.000000000001005,0.6879318375678981,0.16299469606123299
8.200000000000895,0.7103068393648991,0.17107732844836487
8.400000000000784,0.7310091374931966,0.1742239841839561
8.600000000000673,0.7557139938851399,0.17843754483646607
8.800000000000562,0.7798917309852395,0.1785991844237187
9.000000000000451,0.8090018462803547,0.18172292512956414
9.20000000000034,0.8304755310622784,0.1829198052647648
9.40000000000023,0.8540932567666787,0.18420895954355224
9.600000000000119,0.8784120760617707,0.17793695678200144
9.800000000000008,0.9071083220023718,0.1797282908411465
10.000999999999896,0.9358507782908765,0.17697707128653858
10.200999999999786,0.96924523346978,0.1790930341346134
10.400999999999675,1.0049575620987283,0.182020000504946
10.600999999999564,1.0356624480940602,0.18490775494767617
10.800999999999453,1.0745717340377379,0.19792944436056295
11.000999999999342,1.0984017967856659,0.19538424030909426
11.200999999999231,1.1243162393439405,0.18690730479766474
11.40099999999912,1.1517031819455248,0.1787760355977702
11.60099999999901,1.176925703940487,0.17680464634049384
11.800999999998899,1.2048996989300458,0.18299388509941625
12.000999999998788,1.236772406575803,0.1947425358352131
12.200999999998677,1.2640283305551867,0.19924685117819238
12.400999999998566,1.2926427139587646,0.20601372536194573
12.600999999998455,1.321213042096772,0.2076354126349868
12.800999999998345,1.3462449663239218,0.20598072571414464
13.000999999998234,1.374101728777416,0.2054897063927726
13.200999999998123,1.3985014481820668,0.21186930935072115
13.400999999998012,1.425648276092925,0.21260167112113823
13.600999999997901,1.4551221126292322,0.21074424072108205
13.80099999999779,1.4823484406453282,0.21928957882574351
14.00099999999768,1.5095727632158382,0.22456413241196926
14.200999999997569,1.5358933562465809,0.22664696026444714
14.400999999997458,1.5644385177463902,0.23676172906993642
14.600999999997347,1.5973403667614179,0.24435596769950532
14.800999999997236,1.6295388885854116,0.2501840122037426
15.000999999997125,1.6559493961054592,0.26681275676652133
15.200999999997014,1.6850686997345687,0.29161311906412596
15.400999999996904,1.7132363940383473,0.3060597085908513
15.600999999996793,1.7431046757956998,0.3244527655026153
15.800999999996682,1.7679733736273386,0.34491575721108364
16.000999999996573,1.7894569182786537,0.3749066682905754
16.200999999996817,1.808401895760558,0.3936197929296845
16.40099999999706,1.8261034173666433,0.4159360214929099
16.600999999997306,1.8454895324132183,0.43772242768623093
16.80099999999755,1.8669793110421693,0.44691072163258605
17.000999999997795,1.8895391119954295,0.4599895516644619
17.20099999999804,1.9155855683336744,0.47081542333449283
17.400999999998284,1.9382151874443123,0.48952144853496005
17.60099999999853,1.9578108554573346,0.5085062197860477
17.800999999998773,1.9774033682671515,0.5282411008843073
18.000999999999017,1.995828978283805,0.5530705687062675
18.20099999999926,2.0132234250852523,0.5793578202735576
18.400999999999506,2.0296525305407322,0.5894489622055213
18.60099999999975,2.044486205716084,0.6018626495850308
18.799999999999994,2.05862184860922,0.6049816132039415
19.000000000000238,2.0766469887971675,0.6186307884440927
19.200000000000482,2.0991150955493905,0.6307697548447814
19.400000000000727,2.1207217243394143,0.6475860536288188
19.60000000000097,2.1438790221778317,0.6550683399194444
19.800000000001216,2.1651151208685087,0.6664849512611407
20.00000000000146,2.1892869325421547,0.6779198876914735
