Time (s),X (m),Y (m)
0.001,-9.270868745296317e-05,0.0008932837685830061
0.20000000000000015,0.0012726632756168588,-0.0009802112286104048
0.4000000000000003,0.005823039398772182,-0.003452571300847377
0.6000000000000004,0.011597916946891591,-0.007531123733673616
0.8000000000000006,0.01912622976162504,-0.004957489647645768
1.0000000000000007,0.02884629688938951,-0.006477087903416942
1.2009999999999785,0.03671880344512681,-0.006431307298517332
1.4009999999999565,0.04266780928758816,-0.020425151913021633
1.6009999999999345,0.04991090792127086,-0.02606426865788155
1.8009999999999124,0.059411666348763166,-0.02924393360635137
2.0009999999998906,0.0705361148660279,-0.036705915138739775
2.2009999999998686,0.08271781269131506,-0.047232834360854466
2.4009999999998466,0.09076066354205453,-0.04981547569027446
2.6009999999998246,0.10038305460289867,-0.04453369151167385
2.8009999999998025,0.11252590935121776,-0.04429028602221583
3.0009999999997805,0.13223415437681768,-0.04485520718546183
3.2009999999997585,0.1506705350327373,-0.03385591737203782
3.4009999999997365,0.16731299632822233,-0.022638352677776776
3.6009999999997144,0.18324798505791123,-0.012465959731412703
3.8009999999996924,0.20430610978019037,-0.004995666057132785
4.000999999999671,0.22632313269611393,-0.003358132260358509
4.200999999999738,0.24855796638556005,0.0025531271492934796
4.400999999999804,0.26348413509723506,0.0007571449728620023
4.600999999999871,0.27734415319102035,-0.007099843038167044
4.800999999999938,0.2891580440041661,-0.004335485079950716
5.000000000000004,0.30404550655137064,-0.011203997175533924
5.200000000000071,0.32033975060471936,-0.02049430199586593
5.400000000000138,0.3353866799239438,-0.03793617460544945
5.600000000000205,0.34508442010326756,-0.048090773218640005
5.800000000000272,0.3573016773113986,-0.0595893476255903
6.000000000000338,0.36846650059898833,-0.06721774743845321
6.200000000000405,0.38199301681035575,-0.0811490212445915
6.400000000000472,0.3990311128010486,-0.09625042092411207
6.600000000000539,0.4175161515678224,-0.10855881752153484
6.800000000000606,0.42895642099110576,-0.12373858123254014
7.000000000000672,0.4381526835673632,-0.14117972167289522
7.200000000000739,0.448068602724576,-0.15001138264083766
7.400000000000806,0.45959941601745957,-0.1567786021273335
7.600000000000873,0.47267092044178827,-0.1618474800490473
7.8000000000009395,0.4824786270743196,-0.17046001808512842
8.000000000001005,0.4948387422822064,-0.1740335157120117
8.200000000000895,0.5130358002245338,-0.18179219280209086
8.400000000000784,0.5294750617463645,-0.19670386834691575
8.600000000000673,0.5456703982731229,-0.207337916366615
8.800000000000562,0.5599778018942836,-0.21957151475542314
9.000000000000451,0.5725786959525136,-0.2305602232563238
9.20000000000034,0.5858093089832049,-0.23638657486135184
9.40000000000023,0.6003973165593297,-0.23549208977902375
9.600000000000119,0.6101913312991887,-0.2367532275923379
9.800000000000008,0.6167334481816367,-0.2417203317042921
10.000999999999896,0.6258662351493979,-0.24350998692873604
10.200999999999786,0.634810182972669,-0.2586635303131709
10.400999999999675,0.642613753106804,-0.27214603766401846
10.600999999999564,0.653963536612274,-0.2845747832942406
10.800999999999453,0.6610843241160904,-0.28733729091883725
11.000999999999342,0.666142335118182,-0.2851670038084623
11.200999999999231,0.682048626846092,-0.29531163885287637
11.40099999999912,0.7030835173416575,-0.30540143579925
11.60099999999901,0.7260204161511098,-0.3102925431145093
11.800999999998899,0.7411182367885749,-0.3133012849916547
12.000999999998788,0.7579999666616456,-0.32229928537745295
12.200999999998677,0.7729068418208327,-0.3273067566695951
12.400999999998566,0.7847839903363946,-0.33213237106756055
12.600999999998455,0.7955413988774334,-0.35250021673435034
12.800999999998345,0.8046436613714608,-0.37708446446730093
13.000999999998234,0.8165996510266071,-0.39805617440228397
13.200999999998123,0.83054391986144,-0.41947421134286
13.400999999998012,0.8425533820802221,-0.4398128654884948
13.600999999997901,0.8526595788674336,-0.46791971643779523
13.80099999999779,0.8555427166115194,-0.4940370884733039
14.00099999999768,0.8586171780850657,-0.514354906139119
14.200999999997569,0.8645648811259553,-0.5273951850596661
14.400999999997458,0.8668339356750413,-0.5386593546744192
14.600999999997347,0.8736538657442766,-0.550475448978184
14.800999999997236,0.8846571632178005,-0.5649299024192255
15.000999999997125,0.8952408583069533,-0.5873938401881229
15.200999999997014,0.9095401938978516,-0.6064337110013762
15.400999999996904,0.9263372693981562,-0.6157806718222195
15.600999999996793,0.9499214994497244,-0.6227042643382851
15.800999999996682,0.9735948321548874,-0.6355766515724051
16.000999999996573,0.9984944089389363,-0.6431494291161922
16.200999999996817,1.0174328965105308,-0.6529562059280978
16.40099999999706,1.0368659821104835,-0.6538421271143657
16.600999999997306,1.050848113691203,-0.6681068736063676
16.80099999999755,1.0590089410061738,-0.692401842666455
17.000999999997795,1.0702559796732427,-0.7111519102022041
17.20099999999804,1.0850305573466466,-0.7280894158679442
17.400999999998284,1.098531823243892,-0.7442236923299516
17.60099999999853,1.107812546587776,-0.7567473863857604
17.800999999998773,1.1091069855630336,-0.7795319249081074
18.000999999999017,1.112658945136932,-0.8085568312675775
18.20099999999926,1.1185375609683785,-0.8301892821947617
18.400999999999506,1.1258558939616832,-0.8436830252232567
18.60099999999975,1.1352751854856573,-0.8539654001183639
18.799999999999994,1.1433677135683753,-0.8654645176036835
19.000000000000238,1.1477537047859392,-0.8788934893790332
19.200000000000482,1.154404821079833,-0.8915861374626262
19.400000000000727,1.16463809525666,-0.9011018478255826
19.60000000000097,1.1765178301071266,-0.9171889181905348
19.800000000001216,1.1808625111928188,-0.9418319853418111
20.00000000000146,1.1908806614062863,-0.9586618758152555
