Time (s),X (m),Y (m)
0.001,-0.00016860096042250976,0.000844935058449024
0.20000000000000015,0.0008863066460290405,0.00045619867415747865
0.4000000000000003,0.0013783074390578002,0.006379064583868092
0.6000000000000004,0.004137430317480531,0.016086968312457067
0.8000000000000006,0.003443052389147222,0.03732530340251637
1.0000000000000007,0.021356155679666523,0.05113847111143275
1.2009999999999785,0.05008979962394642,0.05963886920181532
1.4009999999999565,0.07488612754286965,0.0674572428115401
1.6009999999999345,0.0979353854725917,0.06574762547188968
1.8009999999999124,0.12766598926407594,0.0641793873038128
2.0009999999998906,0.16114693707228694,0.06596042597380601
2.2009999999998686,0.19662526816445483,0.06729196485919546
2.4009999999998466,0.23926207734955326,0.06397284169723504
2.6009999999998246,0.2946310550728424,0.0574491762889635
2.8009999999998025,0.36049729105218165,0.05639678029813166
3.0009999999997805,0.41029724795435385,0.059593931197336504
3.2009999999997585,0.44654763570588374,0.06613270830435272
3.4009999999997365,0.5001161319715671,0.07292497984422791
3.6009999999997144,0.545506616737816,0.08579459146055818
3.8009999999996924,0.5940732302162823,0.09479052550324993
4.000999999999671,0.6450168655150521,0.09832015999986989
4.200999999999738,0.7024236889586997,0.10416251814516506
4.400999999999804,0.7636922055419136,0.10877245272386328
4.600999999999871,0.8373830277895183,0.0932726844515789
4.800999999999938,0.9094313819688127,0.07721168308367808
5.000000000000004,0.9747253748524037,0.0710035756677484
5.200000000000071,1.037844743314094,0.06724734431742485
5.400000000000138,1.0880971027104929,0.06900737900568941
5.600000000000205,1.1416411480007485,0.06709610690429352
5.800000000000272,1.1973479630781902,0.05013563517824363
6.000000000000338,1.2534816958702215,0.007012149821729895
6.200000000000405,1.3095707371587682,-0.03587682328773865
6.400000000000472,1.3404052896817802,-0.08448501396298401
6.600000000000539,1.3573786981898237,-0.14389852227604844
6.800000000000606,1.3511414996698856,-0.20358926064495053
7.000000000000672,1.3259764089864667,-0.2551439866183166
7.200000000000739,1.300750221758647,-0.2977521992858224
7.400000000000806,1.2610962279586446,-0.32446044146139563
7.600000000000873,1.201505879753619,-0.3384854512047221
7.8000000000009395,1.1290506923752748,-0.33387144141296105
8.000000000001005,1.0590488347213352,-0.3110724525372252
8.200000000000895,1.0090031352784314,-0.2505565395718824
8.400000000000784,0.9783356034077981,-0.17477790036486068
8.600000000000673,0.9703789388318744,-0.10236349449275932
8.800000000000562,0.9608341524380938,-0.03740587980089678
9.000000000000451,0.9584645839098938,0.030076921265565867
9.20000000000034,0.9625958183345681,0.10717760144561671
9.40000000000023,0.9650518878014598,0.19085637428587948
9.600000000000119,0.9702193892504763,0.2730794313701226
9.800000000000008,0.9710539006371831,0.34309301418112276
10.000999999999896,0.9713333409103768,0.4058827975089275
10.200999999999786,0.966369642509953,0.4637885167931683
10.400999999999675,0.9582740846484405,0.5231323383228709
10.600999999999564,0.9495675391522257,0.5882028451268455
10.800999999999453,0.9402630956093625,0.6586755309668412
11.000999999999342,0.9351592670644174,0.7385154464896464
11.200999999999231,0.9549977692588695,0.8197474229420403
11.40099999999912,0.9823734792322447,0.8956363772199355
11.60099999999901,0.9984532258306419,0.9636217806007603
11.800999999998899,1.0376125037267878,1.006384240586196
12.000999999998788,1.0932764076106114,1.032848733593457
12.200999999998677,1.1540180853474973,1.0502102882101991
12.400999999998566,1.2069942617928358,1.0344764121201588
12.600999999998455,1.2381083847864733,0.9963348527998436
12.800999999998345,1.2618467800625996,0.9557153364804349
13.000999999998234,1.2629028597672132,0.9107048142131737
13.200999999998123,1.2395143661860428,0.8759520606039741
13.400999999998012,1.207025409370385,0.8477443820337742
13.600999999997901,1.168831626659547,0.8214119714818158
13.80099999999779,1.1235491804776057,0.8030809202772424
14.00099999999768,1.0803373114167651,0.7842241627308507
14.200999999997569,1.01131458081814,0.7724698521520007
14.400999999997458,0.9494677615696534,0.7627224010717991
14.600999999997347,0.8922015984507919,0.7581809734221007
14.800999999997236,0.8302378037736464,0.7585554813471049
15.000999999997125,0.7636298442954229,0.7604213182977219
15.200999999997014,0.7009457895299517,0.7570353131179429
15.400999999996904,0.6337027595294473,0.7527387597557228
15.600999999996793,0.5745744741433709,0.7431775383926825
15.800999999996682,0.49217824414665257,0.7533175400604004
16.000999999996573,0.4091598780357211,0.7664687784305861
16.200999999996817,0.35245620822107276,0.7690634179752118
16.40099999999706,0.29001766780792265,0.76473790231306
16.600999999997306,0.216316724156358,0.7635730207713325
16.80099999999755,0.1411752763663126,0.7662004978699576
17.000999999997795,0.0635615287131912,0.7919148251025829
17.20099999999804,-0.016355654331127477,0.824040867166462
17.400999999998284,-0.08714903574406688,0.8614841302419263
17.60099999999853,-0.13917450675517157,0.9182402652178084
17.800999999998773,-0.17462805220466657,0.9781359227994808
18.000999999999017,-0.16615770679088687,1.0347016880070599
18.20099999999926,-0.14352415955160472,1.076806875450022
18.400999999999506,-0.10452564049881052,1.093574134387196
18.60099999999975,-0.06446085998036992,1.0721156518601507
18.799999999999994,-0.03195409563060011,1.0409418434946764
19.000000000000238,-0.005330344082511973,1.001609006503729
19.200000000000482,0.013770253595981267,0.9476408351763564
19.400000000000727,0.017674551067132147,0.8892713050300332
19.60000000000097,0.016606156190776773,0.8303300730703155
19.800000000001216,0.01631516655682103,0.7663300951451648
20.00000000000146,0.017592096866952494,0.6964542415667114
