Time (s),X (m),Y (m)
0.001,-0.00036712694553334884,-0.000663019509439443
0.20000000000000015,0.0017359565874211908,0.0006247495596175521
0.4000000000000003,4.24390660765892e-05,-0.0035818260895860467
0.6000000000000004,0.001986270419205379,-0.003454232469178546
0.8000000000000006,0.010104961728373364,0.0019816844868246
1.0000000000000007,0.020071814487719875,0.006587746862867216
1.2009999999999785,0.035363784499303025,0.016777207499844675
1.4009999999999565,0.0495220973437735,0.02537432972847228
1.6009999999999345,0.06412167699906504,0.03260237807502248
1.8009999999999124,0.07430280964021187,0.0449064545891591
2.0009999999998906,0.08621943609960185,0.06409451775972116
2.2009999999998686,0.10128930341237663,0.08415911404097243
2.4009999999998466,0.11627361028119375,0.10583972978329363
2.6009999999998246,0.1275129528075095,0.13118465019704703
2.8009999999998025,0.13586256761502685,0.14628521182238682
3.0009999999997805,0.14735523947850562,0.16514220724613046
3.2009999999997585,0.15955166680796393,0.18713962178608357
3.4009999999997365,0.17085727232963033,0.21515324530422023
3.6009999999997144,0.1819332964102781,0.2446065906475308
3.8009999999996924,0.19460143425310736,0.269694359984429
4.000999999999671,0.213470676571572,0.2868960961319605
4.200999999999738,0.23262232968306915,0.29309473252033486
4.400999999999804,0.2541441386821708,0.3066788199188203
4.600999999999871,0.27860902491350215,0.3220144124734142
4.800999999999938,0.30219655537621937,0.3425905161213863
5.000000000000004,0.32208148824162175,0.36924100277179883
5.200000000000071,0.33392554709819006,0.4008450915891528
5.400000000000138,0.34735718877806554,0.42792952588835814
5.600000000000205,0.3644650303870887,0.45062393939528717
5.800000000000272,0.3841019074623458,0.48435105548337826
6.000000000000338,0.4054379882808661,0.5338906129051305
6.200000000000405,0.4296585395124708,0.5733059974121573
6.400000000000472,0.4581625694144073,0.6222110082928254
6.600000000000539,0.4874753295758317,0.6686977036765198
6.800000000000606,0.5136957528003369,0.6999958695778947
7.000000000000672,0.5457748569243167,0.7331207121340472
7.200000000000739,0.58133684077484,0.7554324681552974
7.400000000000806,0.6217506903054021,0.7929708791524535
7.600000000000873,0.6606974569522712,0.8188769930070007
7.8000000000009395,0.6906746609711691,0.8371516524936273
8.000000000001005,0.7184573650070656,0.8570444672955431
8.200000000000895,0.7465811156194021,0.8873529150832782
8.400000000000784,0.7737634357011596,0.920786624633152
8.600000000000673,0.7893395771346386,0.9566822678075653
8.800000000000562,0.7956336481308702,0.9949625420393187
9.000000000000451,0.7935152456635393,1.0349811715745578
9.20000000000034,0.7891740211266558,1.070496997682297
9.40000000000023,0.7860727626138297,1.1019240743119134
9.600000000000119,0.7867726181896005,1.140655086875367
9.800000000000008,0.7946530002439469,1.1837133819512098
10.000999999999896,0.798862410542893,1.228939453059925
10.200999999999786,0.8013602134676201,1.2569265608586229
10.400999999999675,0.8033524489928766,1.2874251213146808
10.600999999999564,0.8088563405899181,1.3284132287957777
10.800999999999453,0.8171216122046404,1.3800753144841573
11.000999999999342,0.823085784996875,1.4281657319178045
11.200999999999231,0.8280726248946702,1.4726114927248877
11.40099999999912,0.8291749476790883,1.5157105254777152
11.60099999999901,0.8391557775702436,1.5660329023712185
11.800999999998899,0.8460804691324568,1.6167862870680099
12.000999999998788,0.8567918680428246,1.6612477902931884
12.200999999998677,0.8761430890828509,1.701111680839352
12.400999999998566,0.9007228155615502,1.7387091016399898
12.600999999998455,0.920370996527753,1.7799911634278585
12.800999999998345,0.9242121546376275,1.8325339846610524
13.000999999998234,0.9184620804643019,1.8851930086548234
13.200999999998123,0.9031346892882592,1.940139186062151
13.400999999998012,0.8811977796767936,1.9933745693698433
13.600999999997901,0.8567110810161187,2.059127012206324
13.80099999999779,0.8465078007208299,2.110901018409597
14.00099999999768,0.8622656838437672,2.1522925518843796
14.200999999997569,0.8879363628394998,2.1890323039291637
14.400999999997458,0.9168221334216151,2.227103235415561
14.600999999997347,0.9431500253887882,2.270007309677259
14.800999999997236,0.9592923928792971,2.3091995058130896
15.000999999997125,0.9669671105311396,2.348641747792985
15.200999999997014,0.9727159123728835,2.385453412016342
15.400999999996904,0.9803650950738041,2.4277588457231967
15.600999999996793,1.0050038592974437,2.4724158800721985
15.800999999996682,1.0440569393844654,2.5187315179069634
16.000999999996573,1.0921801321252964,2.5674438131937545
16.200999999996817,1.1406591425924657,2.6118266696040235
16.40099999999706,1.1819832956036092,2.6498139490677657
16.600999999997306,1.2185865583889894,2.6864656674210616
16.80099999999755,1.2541037528632375,2.720039175077549
17.000999999997795,1.284617873448699,2.758499537013357
17.20099999999804,1.3105361549864347,2.805761211417253
17.400999999998284,1.3331979197312134,2.8620283456282016
17.60099999999853,1.3489000361286219,2.908301361206388
17.800999999998773,1.3573197803643535,2.9559419233926625
18.000999999999017,1.3679602029242366,3.01100043997448
18.20099999999926,1.3787021815764053,3.0648009232109175
18.400999999999506,1.394069836456875,3.1001131512345097
18.60099999999975,1.4056026489084334,3.156942577623975
18.799999999999994,1.4108336883580357,3.209607562225231
19.000000000000238,1.4168032094097254,3.254520398577167
19.200000000000482,1.4219673085043123,3.2933501414876027
19.400000000000727,1.4267090166586285,3.333678005266653
19.60000000000097,1.4319532429084125,3.3703309808528243
19.800000000001216,1.4353723713543847,3.414798388138633
20.00000000000146,1.4411870353909293,3.4572739782231987
