Time (s),X (m),Y (m)
0.001,-1.2891339751951317e-05,-0.0009348340498585851
0.20000000000000015,0.0009003266840863025,0.00024515787925623116
0.4000000000000003,0.0011542417172329775,-0.00021191556970316574
0.6000000000000004,0.0017560488309103627,3.480817537840472e-05
0.8000000000000006,0.002479139490358237,0.00035573193547592163
1.0000000000000007,0.0032161170823731566,0.0007307908793917353
1.2009999999999785,0.0038480139336487303,0.0008688755393915147
1.4009999999999565,0.004511334257602729,0.001212905260332298
1.6009999999999345,0.005180470515285625,0.001625453009598889
1.8009999999999124,0.005841364465954143,0.001995017116591864
2.0009999999998906,0.0065097536957251225,0.0023535919795198593
2.2009999999998686,0.007183911733028249,0.002722319743400622
2.4009999999998466,0.0078577042495718,0.003105345517939464
2.6009999999998246,0.008529051203677198,0.0035103085245831614
2.8009999999998025,0.00919756762223734,0.0039355451204019605
3.0009999999997805,0.009865597158219974,0.004375558577324005
3.2009999999997585,0.010533212054972414,0.004825479062040724
3.4009999999997365,0.011201168190617816,0.005286166139845992
3.6009999999997144,0.011868050156126077,0.005757318787046228
3.8009999999996924,0.012532835621150512,0.006239509572867063
4.000999999999671,0.013195500609734751,0.006732544243324807
4.200999999999738,0.013856365638804767,0.0072354483678303974
4.400999999999804,0.014515077973184859,0.00774728768972032
4.600999999999871,0.015171540876714915,0.008267218079986564
4.800999999999938,0.01582545966107083,0.008795086449316229
5.000000000000004,0.016475828285057708,0.009339081685776202
5.200000000000071,0.017123571963639693,0.009881964849157205
5.400000000000138,0.017768298613467112,0.010431839196340276
5.600000000000205,0.018409939678177372,0.010988401714400877
5.800000000000272,0.019048191734513623,0.011551134311715436
6.000000000000338,0.019682945044588118,0.01211969968839647
6.200000000000405,0.020314108321697832,0.012693804621137393
6.400000000000472,0.020941424581304213,0.013273152693727445
6.600000000000539,0.02156450865884145,0.013857532730451169
6.800000000000606,0.022183270033165975,0.014446716452195639
7.000000000000672,0.022797612507256374,0.015040450987964377
7.200000000000739,0.023407857706425138,0.015638691260315807
7.400000000000806,0.024021536365271916,0.016241287417848346
7.600000000000873,0.024640920846813474,0.016847992653361368
7.8000000000009395,0.025264082038666015,0.017458276138790463
8.000000000001005,0.025885831806696315,0.0180706584909354
8.200000000000895,0.026500611762290283,0.018683922942324224
8.400000000000784,0.027108767500884128,0.01929821797655604
8.600000000000673,0.027710485744202155,0.019913446958354942
8.800000000000562,0.028305831587062555,0.02052955340976158
9.000000000000451,0.02889467370884939,0.021146466994812825
9.20000000000034,0.029476822706223305,0.02176405609765621
9.40000000000023,0.030052092056764245,0.022382198017891066
9.600000000000119,0.030620510414373584,0.023000829210450286
9.800000000000008,0.03118205903328692,0.023619809509990135
10.000999999999896,0.03173857751760321,0.024232628345523286
10.200999999999786,0.032286107523770445,0.024852369874507625
10.400999999999675,0.032826654551706934,0.025472305462054312
10.600999999999564,0.03336013289898322,0.026092378725645807
10.800999999999453,0.03388660828231387,0.026712553570190034
11.000999999999342,0.03440592943269101,0.027332746288944748
11.200999999999231,0.034917945018069094,0.027952886992264208
11.40099999999912,0.035422505026402165,0.028572910818484627
11.60099999999901,0.035919466699284724,0.029192778610428093
11.800999999998899,0.03640733203439608,0.029812569546464076
12.000999999998788,0.03687709186078721,0.03043303760079631
12.200999999998677,0.03732781228778588,0.031054364997054842
12.400999999998566,0.03775982059073593,0.03167651271984283
12.600999999998455,0.038173167750445096,0.03229951380172349
12.800999999998345,0.038567977972015506,0.03292337154557295
13.000999999998234,0.03894438599469806,0.03354804815867639
13.200999999998123,0.039302635700032826,0.03417350947688912
13.400999999998012,0.03964307516084649,0.03479973481156154
13.600999999997901,0.0399588146528669,0.03542761340197175
13.80099999999779,0.04023947806229495,0.03605723970149649
14.00099999999768,0.04048397623825346,0.036688317567479825
14.200999999997569,0.040692867716308825,0.03732056000561028
14.400999999997458,0.04086657354353512,0.03795380536038359
14.600999999997347,0.041005498619127494,0.038587931509003866
14.800999999997236,0.04111133378669577,0.039222991129813575
15.000999999997125,0.04118534159842214,0.03985896405996301
15.200999999997014,0.04122845734531747,0.040495755673168404
15.400999999996904,0.04124218720666426,0.04113331727990674
15.600999999996793,0.04122821774613129,0.04177162895618848
15.800999999996682,0.041187722282984195,0.04241069851282924
16.000999999996573,0.04112466215236158,0.04305062146248475
16.200999999996817,0.04104707294524157,0.04369162542982283
16.40099999999706,0.040956784992396744,0.04433375212146023
16.600999999997306,0.04085472452119267,0.044977029839230916
16.80099999999755,0.040741099243831534,0.04562145477485942
17.000999999997795,0.04061629692260869,0.04626704052205458
17.20099999999804,0.040481861078615046,0.04691379713083881
17.400999999998284,0.04033827082831063,0.04756166834265398
17.60099999999853,0.040184505797891325,0.04821065887346453
17.800999999998773,0.040020335107166696,0.0488607325854778
18.000999999999017,0.03984737730996485,0.04951190960634947
18.20099999999926,0.039667242103797955,0.05016420928486391
18.400999999999506,0.03948146574346191,0.05081767829463582
18.60099999999975,0.039291333746247235,0.051472356086102254
18.799999999999994,0.039096876874569406,0.05213421044210312
19.000000000000238,0.03889838441554315,0.05279136441586281
19.200000000000482,0.038695789244714805,0.05344972577606381
19.400000000000727,0.03848903831870064,0.05410936300539887
19.60000000000097,0.03827812306713396,0.054770273887131085
19.800000000001216,0.03806313082327849,0.0554323783309118
20.00000000000146,0.03784407789719739,0.05609562541988596
