Time (s),X (m),Y (m)
0.001,0.0014193575185132074,0.0002669654388657892
0.20000000000000015,0.0009707407718698237,-3.1393207513910876e-05
0.4000000000000003,0.001767452170639536,0.0004446096130849618
0.6000000000000004,0.0034803500390751772,0.0016759054521846032
0.8000000000000006,0.007080516291401405,0.0030384428821628624
1.0000000000000007,0.011258938907858144,0.004986444078270644
1.2009999999999785,0.014660954353557609,0.006925928438332416
1.4009999999999565,0.017588005543743148,0.008633838539118779
1.6009999999999345,0.021699047269296553,0.009146748193539441
1.8009999999999124,0.02551959717195073,0.01186643417773464
2.0009999999998906,0.02884401802518377,0.01372327245605374
2.2009999999998686,0.03147784422097293,0.016555874200990472
2.4009999999998466,0.03479206966435017,0.017384586540652395
2.6009999999998246,0.036296181437839095,0.017903337575612976
2.8009999999998025,0.04214470912480777,0.02086764841415065
3.0009999999997805,0.04569482779283176,0.023349938336012423
3.2009999999997585,0.050436214144195864,0.026733133481956314
3.4009999999997365,0.05606612332993671,0.031234679551246876
3.6009999999997144,0.06129397814799311,0.03481809373506728
3.8009999999996924,0.06846721461897022,0.04020436631214214
4.000999999999671,0.07168697889790694,0.04273735315843654
4.200999999999738,0.07612243044660434,0.04578656900056915
4.400999999999804,0.0825154365595184,0.04977958461790064
4.600999999999871,0.08781457769394237,0.05472687484588342
4.800999999999938,0.09355100858511124,0.059418560170511676
5.000000000000004,0.10210648162225157,0.06615560095972177
5.200000000000071,0.10594605595993854,0.07024241495033498
5.400000000000138,0.11030535567445023,0.07317717334681788
5.600000000000205,0.11483501971695761,0.07731174364489457
5.800000000000272,0.11927734713739584,0.08265878260639113
6.000000000000338,0.12449742941083314,0.08711016348918854
6.200000000000405,0.13034820886175283,0.09321364643149815
6.400000000000472,0.1350666390524198,0.09787039703980252
6.600000000000539,0.1394282352873685,0.10270829506328451
6.800000000000606,0.14515063343060824,0.10795144379378227
7.000000000000672,0.15036107741265547,0.115312902345079
7.200000000000739,0.15616401375984376,0.12173384442874458
7.400000000000806,0.16242017617875987,0.12834604633054558
7.600000000000873,0.16778681625759984,0.13555716267795023
7.8000000000009395,0.17304513640366076,0.14251731824817035
8.000000000001005,0.17811690148133397,0.1476798094926123
8.200000000000895,0.1842353784719246,0.15526572356232565
8.400000000000784,0.19017785371145468,0.16322414826049014
8.600000000000673,0.19614223190091798,0.17037468981397155
8.800000000000562,0.20023310315962922,0.1758220847605288
9.000000000000451,0.2053788927156208,0.18316986675800506
9.20000000000034,0.21061491011338732,0.1898209907811754
9.40000000000023,0.21518366840424555,0.19556213599194533
9.600000000000119,0.22009913993904576,0.20345049720874245
9.800000000000008,0.2251805859730232,0.2105174840019123
10.000999999999896,0.22951805317368418,0.21565467526014054
10.200999999999786,0.2347607191594569,0.22202536311722657
10.400999999999675,0.24091538001055846,0.23078070148397314
10.600999999999564,0.2442493420664089,0.236175510888205
10.800999999999453,0.2487556792267995,0.24126144310177405
11.000999999999342,0.2530203990032297,0.249053525231531
11.200999999999231,0.2579868875906779,0.2556989842154803
11.40099999999912,0.2614750729157665,0.2616865284048744
11.60099999999901,0.2656028399292434,0.2693410596448141
11.800999999998899,0.2695501783465682,0.27694088411964984
12.000999999998788,0.2738015949176606,0.2842980774855358
12.200999999998677,0.27818932780738553,0.2916616950232067
12.400999999998566,0.2829726287971605,0.3008750045961723
12.600999999998455,0.2860472303492187,0.3075791858691077
12.800999999998345,0.2913374054265132,0.31837738692317163
13.000999999998234,0.29511448580367194,0.3269899639355508
13.200999999998123,0.2984063769711446,0.3346669766556842
13.400999999998012,0.30207345686511433,0.3444433834423088
13.600999999997901,0.3043378585762916,0.35109273845586036
13.80099999999779,0.3073986296978607,0.35945059191796536
14.00099999999768,0.3108509402060148,0.3682688069024427
14.200999999997569,0.3138191437721835,0.3779375223354312
14.400999999997458,0.3170792923500944,0.3851694724213558
14.600999999997347,0.31992884107737996,0.39238462131177093
14.800999999997236,0.32204370678817285,0.3999442530901134
15.000999999997125,0.3260386375270708,0.4100241310844361
15.200999999997014,0.32832596240254747,0.41918862514580624
15.400999999996904,0.32951766914577796,0.4278933536004005
15.600999999996793,0.33143272507375643,0.43824240970117545
15.800999999996682,0.3335245456360222,0.4463494395713304
16.000999999996573,0.33591397447063254,0.4562733418468985
16.200999999996817,0.3371145968610881,0.4638999747988297
16.40099999999706,0.3390699219842051,0.4726317743571817
16.600999999997306,0.3415448299453556,0.4836815238147662
16.80099999999755,0.34500574526989447,0.4908298418877055
17.000999999997795,0.3471843483270969,0.5005786118357276
17.20099999999804,0.3479101704562306,0.5118461017670755
17.400999999998284,0.34879613482151917,0.5212171811143422
17.60099999999853,0.34907009249098025,0.5305184196269079
17.800999999998773,0.34954562678466244,0.5414410924653251
18.000999999999017,0.350865989170352,0.5504381112073903
18.20099999999926,0.35014810552329884,0.5601930704933552
18.400999999999506,0.35091224215807204,0.5662653487469479
18.60099999999975,0.3495616359275247,0.5725323299534635
18.799999999999994,0.349943279892431,0.5818744857646685
19.000000000000238,0.34857646363009004,0.5913292190445798
19.200000000000482,0.3483257116952183,0.6010378616284461
19.400000000000727,0.3480087275742278,0.609684378307368
19.60000000000097,0.34718034273076304,0.620018906693053
19.800000000001216,0.3471966064163484,0.6312188106831254
20.00000000000146,0.3453961904302514,0.6378971523253603
