Time (s),X (m),Y (m)
0.001,-9.270868745296317e-05,0.0008932837685830061
0.20000000000000015,0.0008608437968915162,-0.00023050980027134916
0.4000000000000003,0.0013287319103169439,-0.00025627133493100266
0.6000000000000004,0.0020699334729137003,-0.0005162452417213209
0.8000000000000006,0.0031649453669292233,-0.0009774554021222681
1.0000000000000007,0.005007257857838897,-0.0016378201504020464
1.2009999999999785,0.007023664052996689,-0.0018435893519467472
1.4009999999999565,0.009264190423284779,-0.002241978776097519
1.6009999999999345,0.011570185742754004,-0.0020786616665940645
1.8009999999999124,0.01383690895119778,-0.0020259674650552283
2.0009999999998906,0.01502708273667699,-0.0015865257823625598
2.2009999999998686,0.01668986970473615,-0.0016686097232932258
2.4009999999998466,0.019112021226259653,-0.0010354181537468859
2.6009999999998246,0.0224258956907481,-0.0008955981167502461
2.8009999999998025,0.02558744370076699,-0.000550538031630789
3.0009999999997805,0.029016983877537355,-0.0003914647408931784
3.2009999999997585,0.030702316851038778,-0.00034190258730372176
3.4009999999997365,0.03219094904350974,-0.0003612071684414436
3.6009999999997144,0.034419772248222194,-0.0001993532296408701
3.8009999999996924,0.036405134020450286,-0.0007000942213586671
4.000999999999671,0.03846658331562774,-0.0003760587837580876
4.200999999999738,0.03988755229336788,0.00015154649705594826
4.400999999999804,0.041328093120534704,0.0007557974625133797
4.600999999999871,0.04265558125860855,0.0023651632204903573
4.800999999999938,0.044562266255565856,0.004156706766345555
5.000000000000004,0.04549019227243065,0.006325927319215907
5.200000000000071,0.04620647218595498,0.008753498920506069
5.400000000000138,0.04641684938697595,0.011563173993266012
5.600000000000205,0.04692929133198406,0.014481970628187704
5.800000000000272,0.04751235426192687,0.017444194603746806
6.000000000000338,0.0480540765341624,0.020606934547774885
6.200000000000405,0.047795468904846664,0.023843697776040777
6.400000000000472,0.04794319823471023,0.02743036349693274
6.600000000000539,0.0486058516304327,0.030562315685650394
6.800000000000606,0.04854592412917687,0.034992481075292826
7.000000000000672,0.04813586454861527,0.03987454451619647
7.200000000000739,0.04766532600707253,0.04318719294532743
7.400000000000806,0.0470865452776652,0.04726895220972709
7.600000000000873,0.04633693468339434,0.05073691886762784
7.8000000000009395,0.04544473192495475,0.05424356290755935
8.000000000001005,0.044319508763921184,0.057854390209223526
8.200000000000895,0.04314041122595447,0.06118618735496412
8.400000000000784,0.041984603822180715,0.06491541148560298
8.600000000000673,0.04065099185984705,0.06819689534595097
8.800000000000562,0.03899335159193311,0.07039884398777412
9.000000000000451,0.03693202052155775,0.07347960332828898
9.20000000000034,0.03485999392050381,0.07615197493459241
9.40000000000023,0.033964962380852504,0.07836084238037992
9.600000000000119,0.03206411148461067,0.08088791469703634
9.800000000000008,0.030422226250309783,0.08265807070486496
10.000999999999896,0.027312784677723367,0.08484184535659038
10.200999999999786,0.024452569240212437,0.08591435672964208
10.400999999999675,0.021032532434406573,0.08719871240635083
10.600999999999564,0.01735953683942216,0.08886438920786106
10.800999999999453,0.013755290244640547,0.08940072782298047
11.000999999999342,0.010290575987273306,0.0901448101226124
11.200999999999231,0.006095807631855686,0.0910658636836329
11.40099999999912,0.0020991873545453048,0.09177406655376133
11.60099999999901,-0.002200924295405557,0.09162838118386675
11.800999999998899,-0.006054130584599328,0.09239319874009773
12.000999999998788,-0.010578635233237545,0.09239439339727916
12.200999999998677,-0.015029503385199493,0.09214662384365807
12.400999999998566,-0.019245866231324064,0.09160393788783534
12.600999999998455,-0.0235148593181126,0.09121631617649495
12.800999999998345,-0.027606493736963073,0.09006901074692383
13.000999999998234,-0.03253853333212686,0.088874457981402
13.200999999998123,-0.0368247812495359,0.08782924964460853
13.400999999998012,-0.0403243383874351,0.08694528894925677
13.600999999997901,-0.04379523497640435,0.08610970270554245
13.80099999999779,-0.04662631830315419,0.08509360975046959
14.00099999999768,-0.049214980753966846,0.08384119820401671
14.200999999997569,-0.052338359402269365,0.0820395699598448
14.400999999997458,-0.054538429623078095,0.08031642518064544
14.600999999997347,-0.05649700825889942,0.07792915158751522
14.800999999997236,-0.05823634156325311,0.07556273405625555
15.000999999997125,-0.0600623885588267,0.07264370481885901
15.200999999997014,-0.061955986053505406,0.07014393847563052
15.400999999996904,-0.06305459744938142,0.0672312124750081
15.600999999996793,-0.06408067794021656,0.06384632350037117
15.800999999996682,-0.06543984809794305,0.06096375989958164
16.000999999996573,-0.06718074016595127,0.0572374673948849
16.200999999996817,-0.06831943034484654,0.05309702163912886
16.40099999999706,-0.06918658698305642,0.04938242650014111
16.600999999997306,-0.06986678669413902,0.04543188194496963
16.80099999999755,-0.07021091892966509,0.041366453786231466
17.000999999997795,-0.07030891506488926,0.03662303991101657
17.20099999999804,-0.07048379730312779,0.032365836196970324
17.400999999998284,-0.07060408454539453,0.027730532556903872
17.60099999999853,-0.0703325158336172,0.023179329488434486
17.800999999998773,-0.07019501896629819,0.018726472046674374
18.000999999999017,-0.06957264543732981,0.013329751060043136
18.20099999999926,-0.069347018433666,0.009449957407477295
18.400999999999506,-0.06929546033520882,0.005244413648268647
18.60099999999975,-0.06852979509461786,0.0011899869983188222
18.799999999999994,-0.06785981667899346,-0.0020278641836903233
19.000000000000238,-0.06754361919671126,-0.004498433903768901
19.200000000000482,-0.0667912974702411,-0.00744079197326174
19.400000000000727,-0.0671502693033769,-0.010603883569868468
19.60000000000097,-0.06650735732960115,-0.013760313487730175
19.800000000001216,-0.06610356453788431,-0.016755346016126126
20.00000000000146,-0.06401208190015996,-0.020136216543802588
