Time (s),X (m),Y (m)
0.001,-1.2891339751951317e-05,0.0009348340498585851
0.20000000000000015,0.0006454060219144441,0.0009300501214739128
0.4000000000000003,-0.00026603010734942015,-0.0016596244584942015
0.6000000000000004,0.0028441070263971408,-0.001127872375041929
0.8000000000000006,0.010822839636998116,-0.015447680534761114
1.0000000000000007,0.02216215150628353,-0.059135552391095435
1.2009999999999785,0.03681564755580433,-0.09210623984083088
1.4009999999999565,0.05555728758621395,-0.10855414420156866
1.6009999999999345,0.07963707175362865,-0.10217259901624606
1.8009999999999124,0.10774348113868609,-0.09263496074382499
2.0009999999998906,0.14045268900750346,-0.09537531447702191
2.2009999999998686,0.17825270366320023,-0.10613719810330886
2.4009999999998466,0.22908835422481075,-0.12748189443615618
2.6009999999998246,0.26831310343763587,-0.12764665285165955
2.8009999999998025,0.29457353481222104,-0.11457948551536841
3.0009999999997805,0.3359870119028046,-0.10579578940789358
3.2009999999997585,0.39282788863787826,-0.10020589786612001
3.4009999999997365,0.46950348326755226,-0.0953866185290301
3.6009999999997144,0.546896887580595,-0.08605844927665977
3.8009999999996924,0.6105216814635313,-0.07054551197497584
4.000999999999671,0.6736284595065306,-0.053627900652380524
4.200999999999738,0.7404827717913247,-0.03802175483428893
4.400999999999804,0.8085351720264801,-0.02799855705414163
4.600999999999871,0.8718212311879299,-0.019158685713677567
4.800999999999938,0.9277210139186407,-0.0023081557086967533
5.000000000000004,0.966906715740072,0.023499187030735835
5.200000000000071,1.0163116150410823,0.05256494128466929
5.400000000000138,1.0664646193201115,0.08255033618989825
5.600000000000205,1.1166471631048953,0.11373064347924321
5.800000000000272,1.144933819407167,0.1460292608555515
6.000000000000338,1.1792522718632794,0.17343449851114515
6.200000000000405,1.2106658695768795,0.21252682932593245
6.400000000000472,1.2567779029710882,0.2522254597154064
6.600000000000539,1.3006397550917734,0.2872655140518477
6.800000000000606,1.3519424865130518,0.3151699746055014
7.000000000000672,1.4180603041903606,0.34131188487693925
7.200000000000739,1.4828786881831162,0.36739541705746215
7.400000000000806,1.544054207110516,0.3882348601143799
7.600000000000873,1.58539156068055,0.4114178189731702
7.8000000000009395,1.6188919669682331,0.43979847542328987
8.000000000001005,1.660275051889984,0.46767450359082513
8.200000000000895,1.7016643021035693,0.49486984295379866
8.400000000000784,1.7379309882757237,0.5225589328182134
8.600000000000673,1.7806090653904194,0.5542628048739143
8.800000000000562,1.8222626255040972,0.585274420298214
9.000000000000451,1.8700070757203353,0.6173525354178102
9.20000000000034,1.9318872285893205,0.6501108875280377
9.40000000000023,1.990789800860105,0.6821905421971325
9.600000000000119,2.0597941927253527,0.7116986067285846
9.800000000000008,2.1442868014807703,0.733183211357221
10.000999999999896,2.232768221483078,0.7500690709216239
10.200999999999786,2.322772376109493,0.751462514733214
10.400999999999675,2.404728727667537,0.7376536208899389
10.600999999999564,2.4671301466153097,0.7064226955717522
10.800999999999453,2.507956094563916,0.6537267066462773
11.000999999999342,2.5182681025023834,0.5952439449430668
11.200999999999231,2.4840372461716336,0.5444261228167174
11.40099999999912,2.4281818989660335,0.51698853449234
11.60099999999901,2.3663598848831175,0.49670236732572903
11.800999999998899,2.288016088158951,0.4863012077950651
12.000999999998788,2.211791355406944,0.4682602612552042
12.200999999998677,2.1153787318981094,0.45417929093266407
12.400999999998566,2.023280796174502,0.4385733586076396
12.600999999998455,1.938896957130672,0.41735039121832074
12.800999999998345,1.8561330982960431,0.39826500454651736
13.000999999998234,1.781357530360945,0.3730624315546833
13.200999999998123,1.7063193732584923,0.364493916770742
13.400999999998012,1.6263649982003519,0.3651664822014987
13.600999999997901,1.549078447114987,0.36302011238592663
13.80099999999779,1.4739881576119953,0.36993679450856104
14.00099999999768,1.4076668280483104,0.37676451941415146
14.200999999997569,1.34634143929826,0.39299908641949893
14.400999999997458,1.2942820509842787,0.417695748189203
14.600999999997347,1.2491336080072197,0.46199099747343664
14.800999999997236,1.2146377723428836,0.5174990711270607
15.000999999997125,1.1851214263702314,0.5891353499992702
15.200999999997014,1.1557710909671883,0.663120484182998
15.400999999996904,1.1297453408792486,0.7334843709851311
15.600999999996793,1.1041313696873387,0.8106549379036523
15.800999999996682,1.0757155041772393,0.8825391382732359
16.000999999996573,1.0406278232930328,0.9475315919741983
16.200999999996817,1.0161173562509938,1.010262060824269
16.40099999999706,1.0017711573213166,1.086724698136394
16.600999999997306,0.9807044122194255,1.1618450048530526
16.80099999999755,0.9698007688567769,1.2364437024386208
17.000999999997795,0.9506312084822326,1.3093758438899499
17.20099999999804,0.9352886049599635,1.3749155817253638
17.400999999998284,0.9155768713856816,1.45439328383285
17.60099999999853,0.8919792568333369,1.5358236709017072
17.800999999998773,0.8730257030378471,1.636280765077801
18.000999999999017,0.8604636069191544,1.735881590714206
18.20099999999926,0.850449369714369,1.8300406152815099
18.400999999999506,0.8516072641653146,1.9260311974663085
18.60099999999975,0.8495959805358906,2.0162755839056263
18.799999999999994,0.8498640281471568,2.0971286063008834
19.000000000000238,0.8751216263066868,2.162119217738305
19.200000000000482,0.9211865559534549,2.207483282171664
19.400000000000727,0.9803465352934372,2.237823156919766
19.60000000000097,1.0402950357100507,2.259765739969052
19.800000000001216,1.1088813634161092,2.2746738434034763
20.00000000000146,1.1665449632291816,2.297873864006768
