Time (s),X (m),Y (m)
0.001,0.001392298616347667,0.0003527853123316693
0.20000000000000015,0.0007630784323010582,3.726600037494624e-05
0.4000000000000003,0.0021771188476666465,0.0003127492605635586
0.6000000000000004,0.0021916524253162957,0.0026204628477390817
0.8000000000000006,0.0066333112001618665,0.005513006559645138
1.0000000000000007,0.01550063676110544,0.010637928364783606
1.2009999999999785,0.024412797043943227,0.01941005239994793
1.4009999999999565,0.03882765227207803,0.029721352781592682
1.6009999999999345,0.055696077047496,0.0395115633346647
1.8009999999999124,0.06240455288166155,0.0447224383482711
2.0009999999998906,0.06873802104757105,0.05113120524739751
2.2009999999998686,0.0799974328550888,0.06248628821406568
2.4009999999998466,0.09329108579979367,0.07234319725687315
2.6009999999998246,0.10076059953439967,0.08047051245742128
2.8009999999998025,0.10306335182897407,0.08452026811490833
3.0009999999997805,0.10851974465784728,0.08968494303341717
3.2009999999997585,0.12092852464250825,0.10085516251110062
3.4009999999997365,0.12113137765825209,0.1057171939370797
3.6009999999997144,0.12904797526428158,0.11076529004677435
3.8009999999996924,0.13730146397222143,0.11684743287478647
4.000999999999671,0.1504483448516499,0.12506988898497992
4.200999999999738,0.16249869840071815,0.13916559102282622
4.400999999999804,0.169428620910924,0.15396041561817383
4.600999999999871,0.17638524294956087,0.1583346098240345
4.800999999999938,0.1783457237339998,0.16506566332636585
5.000000000000004,0.18286070336419666,0.17533258412996228
5.200000000000071,0.18710123882648041,0.18812879209032493
5.400000000000138,0.19532131148827034,0.19419439323265847
5.600000000000205,0.2054579120549707,0.20743276383958623
5.800000000000272,0.21493996898903187,0.22648355056830968
6.000000000000338,0.22695244538535003,0.24806318892509177
6.200000000000405,0.237241122045483,0.2587666767251786
6.400000000000472,0.24442878391293024,0.2704280315598839
6.600000000000539,0.25050382662138904,0.2821748281657182
6.800000000000606,0.25811536518701617,0.28539993292239535
7.000000000000672,0.2633392010968947,0.2985624692205831
7.200000000000739,0.27095650188959813,0.31205412417258194
7.400000000000806,0.27601826352882575,0.3248659024966652
7.600000000000873,0.2817706961492812,0.3416500858641614
7.8000000000009395,0.2864941095226286,0.36040040427924674
8.000000000001005,0.2941937303699675,0.3746836131129936
8.200000000000895,0.30313921352215295,0.38669930813827763
8.400000000000784,0.3119203820292176,0.40075352032082034
8.600000000000673,0.31731472390451243,0.4142099355576086
8.800000000000562,0.32329417225815515,0.434050640953054
9.000000000000451,0.33077871268698195,0.4510100545178699
9.20000000000034,0.33826461225958576,0.46519104936323835
9.40000000000023,0.3445696811802655,0.4774884693861403
9.600000000000119,0.351991815976665,0.4884812020215106
9.800000000000008,0.36105019021240303,0.5071141864655064
10.000999999999896,0.3708677975078598,0.5284969996570524
10.200999999999786,0.38065796355157044,0.5462657986096094
10.400999999999675,0.38927190832564856,0.561036798305836
10.600999999999564,0.3953994498654456,0.5770963428459871
10.800999999999453,0.4028291214650952,0.5930578349736553
11.000999999999342,0.41372073584661756,0.6060922520254444
11.200999999999231,0.4232858747029206,0.6219224266840775
11.40099999999912,0.4261755051826625,0.6351075845616194
11.60099999999901,0.42924156999359125,0.6518495041011658
11.800999999998899,0.42681106033982324,0.6721900729167707
12.000999999998788,0.42230162573728414,0.6887011920378483
12.200999999998677,0.4160289582888729,0.7097459204455671
12.400999999998566,0.4096106262995671,0.7249742871385289
12.600999999998455,0.4048971981298794,0.7421085148358937
12.800999999998345,0.4008730005197498,0.7608716654744555
13.000999999998234,0.40221750804665796,0.7770115916924304
13.200999999998123,0.4114124116648817,0.7960255188528285
13.400999999998012,0.4210855645947398,0.8120090174004334
13.600999999997901,0.4243938721783981,0.8281750439460787
13.80099999999779,0.4276609805587695,0.83930461849587
14.00099999999768,0.42889743635971317,0.8548390032910643
14.200999999997569,0.4322054424397663,0.8715257790935895
14.400999999997458,0.4363525963320284,0.8862219075010247
14.600999999997347,0.43747795668891615,0.9140851756130635
14.800999999997236,0.4387510372535753,0.9442753074127502
15.000999999997125,0.441021593566719,0.9634208996078362
15.200999999997014,0.44234667319795834,0.9841247661071546
15.400999999996904,0.4472959332160329,1.0063901180530572
15.600999999996793,0.45499910225180723,1.0249023060109619
15.800999999996682,0.4571013734885472,1.0454563988241978
16.000999999996573,0.4609164328161115,1.0622188499919123
16.200999999996817,0.4572441846158752,1.0787602406721493
16.40099999999706,0.45135865100667605,1.0978762016480776
16.600999999997306,0.4414996062193541,1.12031089735895
16.80099999999755,0.4338702140422669,1.1371014660349243
17.000999999997795,0.4265608591864184,1.1528468902822684
17.20099999999804,0.42028758486673484,1.1763247166704256
17.400999999998284,0.41397526850682104,1.1978794746580772
17.60099999999853,0.4089180548882748,1.2230492606677787
17.800999999998773,0.4042328056373435,1.2444072679372324
18.000999999999017,0.3982260783235222,1.2672249150692982
18.20099999999926,0.3911848453255356,1.2864804753759496
18.400999999999506,0.38418363236854924,1.3088222362391604
18.60099999999975,0.3792457179533419,1.3342140888884748
18.799999999999994,0.3764926968285628,1.3599201046771878
19.000000000000238,0.3737224634560691,1.3828161645200707
19.200000000000482,0.37144519259679404,1.404024542070727
19.400000000000727,0.3710171438459669,1.4244624100746819
19.60000000000097,0.37024336054680873,1.4523604837070392
19.800000000001216,0.3723838028441966,1.4795659873199736
20.00000000000146,0.3765368558595427,1.5003671261950506
