Time (s),X (m),Y (m)
0.001,0.001267963995250183,-0.0005916298972236683
0.20000000000000015,0.0002383116822999657,0.0005588517848075429
0.4000000000000003,0.0029893447193381655,0.003745870672389523
0.6000000000000004,0.021467688396438096,-0.005208549863789681
0.8000000000000006,0.03640093884344881,-0.012793669060324463
1.0000000000000007,0.04780863667112366,-0.011823274282200993
1.2009999999999785,0.05100904564414994,-0.005869482837094667
1.4009999999999565,0.061062032599612105,-0.004296660810114903
1.6009999999999345,0.06773780763142445,-0.00014839169195220948
1.8009999999999124,0.08212706287099487,0.0051506627791856234
2.0009999999998906,0.10822300792515192,0.006443352654914975
2.2009999999998686,0.1289345454486821,0.008517721074378159
2.4009999999998466,0.1534717463148794,0.011768467415960337
2.6009999999998246,0.18122683897557806,0.0043772343758912225
2.8009999999998025,0.19838913759723983,0.0024223363338391293
3.0009999999997805,0.22617061602943397,-0.005214533400848499
3.2009999999997585,0.2501346379076826,-0.014192151612445452
3.4009999999997365,0.2746753672716287,-0.021276206993184953
3.6009999999997144,0.30686318748572083,-0.0348486026313692
3.8009999999996924,0.33565148459149025,-0.04455332630382333
4.000999999999671,0.3649691958561384,-0.055265207541565185
4.200999999999738,0.3985479038555668,-0.07463859270303627
4.400999999999804,0.43519019120149244,-0.09240111129138491
4.600999999999871,0.46611059219666645,-0.11807351662007953
4.800999999999938,0.4865073982210324,-0.14534335689514324
5.000000000000004,0.4948303178038761,-0.18557039878112835
5.200000000000071,0.4891953012129423,-0.22786519766761199
5.400000000000138,0.4706541119783317,-0.27484333006071376
5.600000000000205,0.4452790362223257,-0.329971689402406
5.800000000000272,0.4268680519032575,-0.3823123463015298
6.000000000000338,0.4064734435126564,-0.4346634710817485
6.200000000000405,0.3845552471168623,-0.48504234347300995
6.400000000000472,0.36155068322963313,-0.5363802337142611
6.600000000000539,0.33758596687498954,-0.5925597897718617
6.800000000000606,0.3095554607326191,-0.6598898365807979
7.000000000000672,0.28674466128245424,-0.7186192152215106
7.200000000000739,0.2741574856838154,-0.7692297257341523
7.400000000000806,0.26339048285047867,-0.818097008702335
7.600000000000873,0.24222040652249585,-0.8795346373704256
7.8000000000009395,0.22808521369575252,-0.9386294337289173
8.000000000001005,0.20636689260852276,-0.9862531609468005
8.200000000000895,0.16975477880003392,-1.0175597613969138
8.400000000000784,0.12423149518640236,-1.0269626425704868
8.600000000000673,0.07117635216615982,-1.0288600111233281
8.800000000000562,0.013640368406582939,-1.0305698007941777
9.000000000000451,-0.03844562065128075,-1.0277204942305864
9.20000000000034,-0.08515132423139614,-1.0213174049249212
9.40000000000023,-0.1483949028167289,-0.9987129538493533
9.600000000000119,-0.21396627284675937,-0.9677630264887591
9.800000000000008,-0.27850216108370834,-0.9276159441885587
10.000999999999896,-0.3352081670395198,-0.8803216574613058
10.200999999999786,-0.38078545005526193,-0.8517339588990486
10.400999999999675,-0.4098507011463196,-0.8159824194224157
10.600999999999564,-0.42502547578533906,-0.7764276308725816
10.800999999999453,-0.43097654758629006,-0.7368259732277734
11.000999999999342,-0.41685981140993,-0.6860457984258583
11.200999999999231,-0.39692189565543,-0.6274076707476914
11.40099999999912,-0.38459333972298215,-0.5729671750780292
11.60099999999901,-0.37335272837834227,-0.5224247235935919
11.800999999998899,-0.35975327776121907,-0.46769210271971723
12.000999999998788,-0.336011838742065,-0.40403963454649466
12.200999999998677,-0.3001156904259225,-0.3453165457280331
12.400999999998566,-0.26344535861151563,-0.2999983488336648
12.600999999998455,-0.2177216923778435,-0.28511918116668644
12.800999999998345,-0.16910251089705244,-0.2869296021225136
13.000999999998234,-0.1158009870344556,-0.3019449852125928
13.200999999998123,-0.05534657585774875,-0.32371651263245516
13.400999999998012,-1.36313760201498e-05,-0.3424185974013886
13.600999999997901,0.05520186225421761,-0.36512691395103025
13.80099999999779,0.11056649866574762,-0.38953349997574377
14.00099999999768,0.16461885384660416,-0.4214622736831084
14.200999999997569,0.2203873337829426,-0.46019458056112006
14.400999999997458,0.2796884115326354,-0.5091511941327203
14.600999999997347,0.33069317649761504,-0.549926182597577
14.800999999997236,0.36877513515386406,-0.5989534184329673
15.000999999997125,0.39322658255224574,-0.6621669261399692
15.200999999997014,0.4008251761821432,-0.7284178814749092
15.400999999996904,0.39279643349460086,-0.7995136470803763
15.600999999996793,0.38613310705679255,-0.8603231044438657
15.800999999996682,0.3796452793693242,-0.9088213543943091
16.000999999996573,0.37269254360671045,-0.955851828843637
16.200999999996817,0.3557284230538235,-1.0140230730548927
16.40099999999706,0.3218739585157301,-1.081202679921759
16.600999999997306,0.2991598808425959,-1.1477733254066758
16.80099999999755,0.27637235710167124,-1.2131422760031294
17.000999999997795,0.2406660104641223,-1.2774662807207748
17.20099999999804,0.20299754668485628,-1.3443010710528274
17.400999999998284,0.15291306230641832,-1.3949080067821022
17.60099999999853,0.08261288158035024,-1.413185787426939
17.800999999998773,0.008033877482429954,-1.4088523767101262
18.000999999999017,-0.061883846997311455,-1.3937589801605506
18.20099999999926,-0.1202124742192047,-1.3828836522029324
18.400999999999506,-0.18084874893648906,-1.3749396933178226
18.60099999999975,-0.24379404757970277,-1.361235770666399
18.799999999999994,-0.31405364869041263,-1.3344503535914185
19.000000000000238,-0.3878823272715706,-1.2984066509632877
19.200000000000482,-0.46010634693608704,-1.2570164353030135
19.400000000000727,-0.5322371205930305,-1.2258685678335668
19.60000000000097,-0.6132120413236261,-1.189323643933969
19.800000000001216,-0.6953070531850343,-1.1461490825565757
20.00000000000146,-0.7632534386202747,-1.0952901615183261
