Time (s),X (m),Y (m)
0.001,0.0013578629866597446,0.0004359202765531099
0.20000000000000015,0.0005995890735780287,2.2910577166880935e-05
0.4000000000000003,0.011488656194327625,0.003969009213205276
0.6000000000000004,0.029854505914564716,0.012360693798524084
0.8000000000000006,0.04478553169041996,0.022237705633992518
1.0000000000000007,0.059259411451964755,0.030625248245272917
1.2009999999999785,0.07183097488267219,0.0383834857570728
1.4009999999999565,0.09131770954266015,0.04191044818950454
1.6009999999999345,0.10752837711706284,0.04446406228340416
1.8009999999999124,0.12412893027006701,0.043812455418507285
2.0009999999998906,0.1469060077431463,0.03567462713734073
2.2009999999998686,0.16496499271132745,0.023920150195264136
2.4009999999998466,0.19480166114614308,0.006823296543599703
2.6009999999998246,0.21552406279763725,-0.011370739162586763
2.8009999999998025,0.23601306270219657,-0.030960954131752615
3.0009999999997805,0.2665573779150044,-0.05483042317077812
3.2009999999997585,0.2875810275816213,-0.07877594595008022
3.4009999999997365,0.32184982806552836,-0.1017750167096362
3.6009999999997144,0.3533520094056159,-0.12495546834553838
3.8009999999996924,0.38774672083538,-0.15291904950509713
4.000999999999671,0.42859263087037025,-0.18297190927904322
4.200999999999738,0.4765408777503719,-0.21701495115714592
4.400999999999804,0.5228229254397889,-0.25553252901202367
4.600999999999871,0.5679579978964782,-0.3039214101556263
4.800999999999938,0.6059719682925981,-0.34705476499583937
5.000000000000004,0.6203795754016722,-0.3923424022072976
5.200000000000071,0.6104978163373909,-0.429321270997718
5.400000000000138,0.5858031237557921,-0.46301859426148906
5.600000000000205,0.5513569687521782,-0.497382763655812
5.800000000000272,0.519820034389674,-0.523672064272918
6.000000000000338,0.49481094767368694,-0.5467543809360793
6.200000000000405,0.47383691071331374,-0.5648660915110605
6.400000000000472,0.43952360890968467,-0.5909343077521315
6.600000000000539,0.3967980135618089,-0.6257380975111235
6.800000000000606,0.35296444768111207,-0.6629933384973561
7.000000000000672,0.3062319210778643,-0.7115075251240583
7.200000000000739,0.25653905647419645,-0.7627396118016649
7.400000000000806,0.20770860545121597,-0.8147403587565075
7.600000000000873,0.15503280389466545,-0.8662959995109285
7.8000000000009395,0.09672693649663801,-0.9234384584958595
8.000000000001005,0.03813361487787664,-0.9805487844724198
8.200000000000895,-0.0275555258378817,-1.034102416239386
8.400000000000784,-0.09577300520277103,-1.0803341280807897
8.600000000000673,-0.14779117896351684,-1.1088597644355718
8.800000000000562,-0.1937779709484149,-1.1144410533012974
9.000000000000451,-0.24642784963998696,-1.0987411314352376
9.20000000000034,-0.30206840450668476,-1.0684770276562332
9.40000000000023,-0.36228108611675636,-1.0254469095976373
9.600000000000119,-0.4287489841927894,-0.9699543265289814
9.800000000000008,-0.49900187713894284,-0.9083147221035341
10.000999999999896,-0.5571768726530575,-0.8501502767902767
10.200999999999786,-0.5892900677535117,-0.796033023139094
10.400999999999675,-0.5943724539422032,-0.7393612740900524
10.600999999999564,-0.5828060135855846,-0.6959342407283292
10.800999999999453,-0.5515903768736743,-0.6566082004404806
11.000999999999342,-0.5053666089738288,-0.618322951948627
11.200999999999231,-0.4524512372139063,-0.5831690449414312
11.40099999999912,-0.3913759829514375,-0.5637547802024971
11.60099999999901,-0.3364504449158551,-0.5675481151423432
11.800999999998899,-0.28874841787821076,-0.5884165231337399
12.000999999998788,-0.23413399846061325,-0.6227375784334023
12.200999999998677,-0.1857267182095361,-0.6644254589520658
12.400999999998566,-0.15111867188850084,-0.7116966800440241
12.600999999998455,-0.10899764321373291,-0.7606642266743305
12.800999999998345,-0.06516817355722729,-0.8096451075415335
13.000999999998234,-0.021344053694376832,-0.8599717470740186
13.200999999998123,0.0263821269918897,-0.9173472760012307
13.400999999998012,0.07413972580178296,-0.9754234659728062
13.600999999997901,0.10911907833153386,-1.015335947618822
13.80099999999779,0.1380892828846595,-1.044766360869589
14.00099999999768,0.16821589281348642,-1.0846674390984177
14.200999999997569,0.2020959353451946,-1.1290250312057193
14.400999999997458,0.24587384025530507,-1.1762559259243666
14.600999999997347,0.3029681896957056,-1.234531406328347
14.800999999997236,0.3577368476318101,-1.2996634258201274
15.000999999997125,0.4096518871631647,-1.3760283332211334
15.200999999997014,0.4489562947147748,-1.4502721571611366
15.400999999996904,0.46525097572491414,-1.5191730272904196
15.600999999996793,0.4582283706587294,-1.5812109560011791
15.800999999996682,0.4231988171192987,-1.643288337088968
16.000999999996573,0.3786809009644641,-1.6958344953834306
16.200999999996817,0.32278474210142527,-1.750933720259863
16.40099999999706,0.26216677576085323,-1.8098006986501045
16.600999999997306,0.19730195744930726,-1.8685571235815026
16.80099999999755,0.13051412739505408,-1.9258328429988385
17.000999999997795,0.06933059711291258,-1.9778817894976923
17.20099999999804,0.015775027202713437,-2.0263174414406238
17.400999999998284,-0.03176948330189562,-2.0640647635302316
17.60099999999853,-0.08993095483980278,-2.0784487434636065
17.800999999998773,-0.1488344057551052,-2.061254786649842
18.000999999999017,-0.20507645721240714,-2.025123623090136
18.20099999999926,-0.2585621729849354,-1.9796650555342092
18.400999999999506,-0.3195460744010349,-1.9281182480880745
18.60099999999975,-0.3801120935772525,-1.8727275201735913
18.799999999999994,-0.4327113597178145,-1.816452701979814
19.000000000000238,-0.488057321685677,-1.7621392187694143
19.200000000000482,-0.5492475369284374,-1.719670071321336
19.400000000000727,-0.6135604063509231,-1.6754868949446344
19.60000000000097,-0.6683919573315988,-1.622845569950287
19.800000000001216,-0.718018791793232,-1.5652532798269938
20.00000000000146,-0.7725444962350068,-1.5034386602958993
