Time (s),X (m),Y (m)
0.001,0.0013163127053841656,0.0005157376242541218
0.20000000000000015,0.0008198697609744316,6.76143031732893e-05
0.4000000000000003,0.0013437541574963425,0.00020934619553742136
0.6000000000000004,0.004672305089655255,0.0029589296288143486
0.8000000000000006,0.00496567308175036,0.004095346351960874
1.0000000000000007,0.0093598753540593,0.006166223166878119
1.2009999999999785,0.015168135534558548,0.009078429242134593
1.4009999999999565,0.01824820580966987,0.011472195478393584
1.6009999999999345,0.021050361365849715,0.013851968194581612
1.8009999999999124,0.02796764741871829,0.019865928611083453
2.0009999999998906,0.03760639870467068,0.026612419309215242
2.2009999999998686,0.0453615005110829,0.03513792462049504
2.4009999999998466,0.054756703625239836,0.04488003101672239
2.6009999999998246,0.06311047394860377,0.0596988368823008
2.8009999999998025,0.07247314292158086,0.06705947587248684
3.0009999999997805,0.07957781744720555,0.07247037725391108
3.2009999999997585,0.08753014542818348,0.07882045580854394
3.4009999999997365,0.09784612771621516,0.08588047319575196
3.6009999999997144,0.10273613178345038,0.0953097833353207
3.8009999999996924,0.11088557880058252,0.11051204357083702
4.000999999999671,0.11942901585118124,0.12504100615108094
4.200999999999738,0.12918585488863385,0.1356166680207437
4.400999999999804,0.13815610886255786,0.13896159682221668
4.600999999999871,0.1485508742475875,0.1500545942155988
4.800999999999938,0.15854319542253778,0.1662294858311563
5.000000000000004,0.16235260894646547,0.1809266558296401
5.200000000000071,0.16165377909615708,0.19925345697668553
5.400000000000138,0.16307757089447697,0.21213335022778987
5.600000000000205,0.16754566403014318,0.23468312913256598
5.800000000000272,0.17315977542516844,0.25080719446485905
6.000000000000338,0.1836942674530312,0.2616455940425107
6.200000000000405,0.1909899886772961,0.27777296540081176
6.400000000000472,0.19772360115154047,0.29527750329600827
6.600000000000539,0.20491586147348106,0.31421009890194235
6.800000000000606,0.2173802311142982,0.32705903365169237
7.000000000000672,0.22909892978650453,0.3347213454784762
7.200000000000739,0.23399420888572248,0.3477576895049689
7.400000000000806,0.23330643335789716,0.36101656604968135
7.600000000000873,0.23481604145806764,0.3747256498858991
7.8000000000009395,0.2395387213240843,0.3907602228160134
8.000000000001005,0.24411199221343047,0.4029274778859008
8.200000000000895,0.25045742911926994,0.4162287881864626
8.400000000000784,0.25769998635221913,0.4341812497134746
8.600000000000673,0.26232651328805834,0.4478866786874251
8.800000000000562,0.2665109463606212,0.45893774844571655
9.000000000000451,0.2720206069680891,0.4674211921018715
9.20000000000034,0.27388070285596106,0.4816113791743842
9.40000000000023,0.2745307356736132,0.5018126807240022
9.600000000000119,0.2755567061630618,0.5211584490316361
9.800000000000008,0.27757255966895933,0.5429806914035857
10.000999999999896,0.2789818844302505,0.5646902550699239
10.200999999999786,0.2823093433914026,0.5854066755660546
10.400999999999675,0.288182961403385,0.6018662088811766
10.600999999999564,0.2943230190536919,0.6229381185544409
10.800999999999453,0.2992191306031628,0.6446030863764516
11.000999999999342,0.3038628365895423,0.664448012852446
11.200999999999231,0.30313418501553946,0.6781893566459486
11.40099999999912,0.30438200442988095,0.7034819041974772
11.60099999999901,0.3058041824579102,0.7317300550736483
11.800999999998899,0.31034286185518006,0.7509938934255007
12.000999999998788,0.31915193467975067,0.7658661204073176
12.200999999998677,0.3296449120266784,0.7717295597687599
12.400999999998566,0.33653756144740726,0.7855492956024642
12.600999999998455,0.33649118168351694,0.8066859681162297
12.800999999998345,0.3355283642132765,0.827030133982297
13.000999999998234,0.33846825094384825,0.8465628989804137
13.200999999998123,0.3412233478724139,0.8656757767304167
13.400999999998012,0.3423954578179265,0.8857561568746524
13.600999999997901,0.3455262531773065,0.9001166991264763
13.80099999999779,0.34638275802593654,0.917990263531941
14.00099999999768,0.354766518435497,0.9406193169674171
14.200999999997569,0.3672798379759754,0.9633863206733781
14.400999999997458,0.38321352741251097,0.982572600672829
14.600999999997347,0.40288901077647943,1.004031758744996
14.800999999997236,0.41803845079768,1.0310358548508465
15.000999999997125,0.4300066277020568,1.0494055236999857
15.200999999997014,0.4385374174293672,1.0743719222820278
15.400999999996904,0.44565516374496444,1.0924823698808575
15.600999999996793,0.4505713716837681,1.1124253066147523
15.800999999996682,0.4548453216283224,1.135136071234362
16.000999999996573,0.45863177926507703,1.1640909077226382
16.200999999996817,0.4617672742677895,1.1943351635848283
16.40099999999706,0.4660746129658141,1.2192073066480837
16.600999999997306,0.46964902641449596,1.2416990604676865
16.80099999999755,0.47428120181227845,1.2577472121317
17.000999999997795,0.4800059874732294,1.2794123921907337
17.20099999999804,0.4831210453942903,1.2984931401281947
17.400999999998284,0.47993231029295597,1.3206839378093833
17.60099999999853,0.47975517202789014,1.3431430860300881
17.800999999998773,0.4792706051313349,1.3675598776990108
18.000999999999017,0.47873549942006505,1.397360976758335
18.20099999999926,0.4745693705600917,1.4196471359374319
18.400999999999506,0.4729661535906054,1.4420987010588469
18.60099999999975,0.4729709701384491,1.4690477338044714
18.799999999999994,0.47318626799081764,1.4925205352962112
19.000000000000238,0.473206032281519,1.5138935731134255
19.200000000000482,0.47223657485747383,1.53169074924051
19.400000000000727,0.4702517010227218,1.5483170252493692
19.60000000000097,0.46464345392255796,1.5748902362786532
19.800000000001216,0.45380004845961464,1.6080609889695094
20.00000000000146,0.4471634669846042,1.6359365626167381
