Time (s),X (m),Y (m)
0.001,0.0005129279282107199,-0.0010275501737767782
0.20000000000000015,0.0008442909036124667,-0.00024686642374512156
0.4000000000000003,0.0013085674454365315,-0.0001958129722418306
0.6000000000000004,0.00192402719468895,-0.0003071847019233323
0.8000000000000006,0.0026390803324868313,-0.00038204581969763477
1.0000000000000007,0.003481603928788158,-0.000359072979472172
1.2009999999999785,0.0043489529219251696,-0.0003764976769401
1.4009999999999565,0.005232140248861969,-0.0005118117047911809
1.6009999999999345,0.006132736629278723,-0.0006384060901827764
1.8009999999999124,0.007069905133172204,-0.0007849194212442834
2.0009999999998906,0.008053464642674847,-0.0009504382823239704
2.2009999999998686,0.009068884744389306,-0.0011213297915584348
2.4009999999998466,0.010127624597768928,-0.0012909249576652973
2.6009999999998246,0.011266259380790676,-0.0014844906321268266
2.8009999999998025,0.012437760538010217,-0.001694093537409384
3.0009999999997805,0.013655891523492912,-0.0019158077117278735
3.2009999999997585,0.014933825389674102,-0.00215631859537516
3.4009999999997365,0.01624150354615576,-0.002415471321983704
3.6009999999997144,0.01757443841381067,-0.0026835175041622014
3.8009999999996924,0.01893400687474209,-0.0029601091712285724
4.000999999999671,0.0203192200938992,-0.003243726146656372
4.200999999999738,0.021709433644694732,-0.0035354222929265613
4.400999999999804,0.023072655648113827,-0.0038371270574083585
4.600999999999871,0.024401775048898195,-0.00414862499460926
4.800999999999938,0.02569514971121905,-0.004470222501191183
5.000000000000004,0.026954489541116698,-0.0048128449757615585
5.200000000000071,0.028184544781536893,-0.0051623132322986
5.400000000000138,0.029381346271325243,-0.005527436334633292
5.600000000000205,0.030542494572842426,-0.005906613570825882
5.800000000000272,0.031667859678439166,-0.006298419529930701
6.000000000000338,0.03275585974332786,-0.006701295173689102
6.200000000000405,0.034066140092561974,-0.006942427298825963
6.400000000000472,0.03515848985273711,-0.00749016044989789
6.600000000000539,0.036148145950790134,-0.007905588054272172
6.800000000000606,0.03713487539384012,-0.008661601274887009
7.000000000000672,0.0380801985717124,-0.009329172469809854
7.200000000000739,0.03925059530211077,-0.010184569708553312
7.400000000000806,0.040407294242570585,-0.011010426419931727
7.600000000000873,0.04145792498880532,-0.011732662166705056
7.8000000000009395,0.042518945646248515,-0.012052884892013989
8.000000000001005,0.044906585447515766,-0.01260816469180328
8.200000000000895,0.04656001629000049,-0.012711245687275207
8.400000000000784,0.04886584141546675,-0.013375741823379899
8.600000000000673,0.051249689088520754,-0.013324904335642374
8.800000000000562,0.05358597715547279,-0.013266987923592847
9.000000000000451,0.05523664365121411,-0.012999085715718802
9.20000000000034,0.057028303175648005,-0.012473299372742297
9.40000000000023,0.05837598557169755,-0.013141801748644237
9.600000000000119,0.05952972570908055,-0.013794704889797683
9.800000000000008,0.06066681682451717,-0.014364043345856161
10.000999999999896,0.061830542562101645,-0.014894065910784026
10.200999999999786,0.06283920447106267,-0.015264196384732157
10.400999999999675,0.06384888996153917,-0.015540111613340919
10.600999999999564,0.06472091285686761,-0.015706733474789555
10.800999999999453,0.06563700232944338,-0.015851983629544583
11.000999999999342,0.06655099744509223,-0.01590128377085662
11.200999999999231,0.06746970891024731,-0.015840853651214334
11.40099999999912,0.06838938608316064,-0.01564684397406989
11.60099999999901,0.0692967241821289,-0.015298968105983187
11.800999999998899,0.07019524346717265,-0.014763705633411004
12.000999999998788,0.07104507578328445,-0.01405635436504035
12.200999999998677,0.0720132857835323,-0.013159777715522054
12.400999999998566,0.0730136754999044,-0.012160920730905796
12.600999999998455,0.07406752314901628,-0.01104311905257698
12.800999999998345,0.07517680765986998,-0.009815135454283657
13.000999999998234,0.0763390284593004,-0.008478416620396863
13.200999999998123,0.07727628202702409,-0.007055503710918601
13.400999999998012,0.07811193781188601,-0.005522357854293729
13.600999999997901,0.07893541211376953,-0.0039024419196104047
13.80099999999779,0.07984011717446904,-0.0021826323458391714
14.00099999999768,0.08075868078041688,-0.0004166367370259613
14.200999999997569,0.08172706840066264,0.0014705074608285153
14.400999999997458,0.08279170449199616,0.003403652923528712
14.600999999997347,0.08381502042323868,0.005436670144079567
14.800999999997236,0.08494676735730343,0.007492911106688624
15.000999999997125,0.08605908472361569,0.00969515852261947
15.200999999997014,0.08723299517479878,0.011987859340421899
15.400999999996904,0.0884732230393956,0.014283631752372338
15.600999999996793,0.0896517086189238,0.016562680917251472
15.800999999996682,0.09081234599048003,0.018797107134229767
16.000999999996573,0.09188851236069875,0.020889613821869466
16.200999999996817,0.09284367126938871,0.02285283179516535
16.40099999999706,0.09375000887665781,0.0247099328558345
16.600999999997306,0.09468849167952592,0.026505244679862962
16.80099999999755,0.0959764807521026,0.02844050429193753
17.000999999997795,0.09728581795165442,0.030311994924637164
17.20099999999804,0.09836763580809334,0.03235508482171073
17.400999999998284,0.09953426161093201,0.035094445279317696
17.60099999999853,0.10055585257894357,0.03782258336220582
17.800999999998773,0.10166907638577187,0.04035656778520494
18.000999999999017,0.10279538325225701,0.04178513421788688
18.20099999999926,0.10338758183766902,0.0440276924784071
18.400999999999506,0.10387881250980936,0.04641361400577559
18.60099999999975,0.10487208492436209,0.04791425293630334
18.799999999999994,0.10595331875268958,0.04941600383635187
19.000000000000238,0.10699513139357958,0.050877727902173854
19.200000000000482,0.10799813549950778,0.052287433317758335
19.400000000000727,0.10896136056183411,0.05367106679432013
19.60000000000097,0.10988533050937711,0.05504022250751288
19.800000000001216,0.11076941732274936,0.056385595716922685
20.00000000000146,0.11116790736994327,0.05800467473874963
