Time (s),X (m),Y (m)
0.001,-0.00036712694553334884,-0.000663019509439443
0.20000000000000015,0.002463361899311894,0.0008395591331517426
0.4000000000000003,0.010303415908152693,0.0020180649864951048
0.6000000000000004,0.014790132552896297,0.0030764500098722537
0.8000000000000006,0.02803347602449162,0.01184143291959855
1.0000000000000007,0.04710340541469324,0.023061529250393707
1.2009999999999785,0.08174520387552159,0.03452702417620624
1.4009999999999565,0.11966156454715443,0.041564823680980065
1.6009999999999345,0.15819425785642546,0.04137634247614939
1.8009999999999124,0.1962100412083407,0.03246452676721201
2.0009999999998906,0.22907619187507317,0.014568101890072814
2.2009999999998686,0.2578826487078291,-0.007363800983776463
2.4009999999998466,0.2786732522623627,-0.029722669994659768
2.6009999999998246,0.2996144278093231,-0.05232552148147282
2.8009999999998025,0.32412505815743237,-0.07575012083814191
3.0009999999997805,0.36418990619102914,-0.10865338572206712
3.2009999999997585,0.40641569638700276,-0.1477651463110784
3.4009999999997365,0.44535299201082357,-0.19257435562282724
3.6009999999997144,0.4759988339243229,-0.23873711799451916
3.8009999999996924,0.4944611451242429,-0.2801448460175891
4.000999999999671,0.4981511756071619,-0.32017080967781625
4.200999999999738,0.4890279173810751,-0.3589660823144142
4.400999999999804,0.47159910106328484,-0.3978371647366523
4.600999999999871,0.44613184504691955,-0.43380284356504706
4.800999999999938,0.40582833574048116,-0.47080023326908294
5.000000000000004,0.3642349574987584,-0.5027623679253274
5.200000000000071,0.32924690687544467,-0.5224442509023967
5.400000000000138,0.2944299319927944,-0.5251922800068815
5.600000000000205,0.25060212032631335,-0.509760979683087
5.800000000000272,0.2046658881910491,-0.4916216267799288
6.000000000000338,0.1688228411262301,-0.47093497435985165
6.200000000000405,0.13353830052674961,-0.43648740415011134
6.400000000000472,0.0961498966747506,-0.39240680296108826
6.600000000000539,0.05681793696347722,-0.34202343996207496
6.800000000000606,0.006786811679760464,-0.2846621218101186
7.000000000000672,-0.04460850071854421,-0.2247035722146447
7.200000000000739,-0.08789505847883218,-0.16457439712299465
7.400000000000806,-0.13297689359401926,-0.10127909960037265
7.600000000000873,-0.18549679921042098,-0.029499733046684903
7.8000000000009395,-0.2311389473018598,0.039612095705744574
8.000000000001005,-0.2736246578237228,0.10486875879963181
8.200000000000895,-0.31538123825648456,0.17385604957681497
8.400000000000784,-0.3557796807615436,0.24544603844081173
8.600000000000673,-0.38252639153926005,0.31652617899828916
8.800000000000562,-0.3849952337956206,0.3861795739050224
9.000000000000451,-0.3652403190714211,0.45606121767541835
9.20000000000034,-0.33350809883685684,0.518153252437644
9.40000000000023,-0.2947470859337656,0.5728917553449275
9.600000000000119,-0.24572839959445583,0.6318848764042378
9.800000000000008,-0.18514562632820486,0.69368865750153
10.000999999999896,-0.12039541027845051,0.7492407828086723
10.200999999999786,-0.04239684427332767,0.8074192677977974
10.400999999999675,0.04384086331581094,0.8678747198783181
10.600999999999564,0.13271034838205006,0.9205344752625563
10.800999999999453,0.2111058136861497,0.9646006333016329
11.000999999999342,0.2816995181656859,0.9916451482006816
11.200999999999231,0.3482890302076101,0.9922728557014514
11.40099999999912,0.40492502393483476,0.9677582286521496
11.60099999999901,0.4604976906276303,0.9239546219367178
11.800999999998899,0.5124499664821602,0.8671118085149924
12.000999999998788,0.5529051755709739,0.8145605312407939
12.200999999998677,0.5771986882176404,0.7438703370705279
12.400999999998566,0.5813132646215186,0.6712529912711813
12.600999999998455,0.5706342908728226,0.6086930428778402
12.800999999998345,0.5507681861182593,0.5537895869015365
13.000999999998234,0.5236630356517751,0.49358039938428155
13.200999999998123,0.48560972779787454,0.4413985822477558
13.400999999998012,0.43869453454411006,0.3854499076481543
13.600999999997901,0.38743903072094577,0.32715595345546855
13.80099999999779,0.32827928620028446,0.2604333570254005
14.00099999999768,0.26237362070222564,0.19024611021336152
14.200999999997569,0.19297835501500896,0.1290523414358225
14.400999999997458,0.11756110326934542,0.06923724728367477
14.600999999997347,0.042566266833773334,0.014175573942710743
14.800999999997236,-0.031385732918188115,-0.03881190993241836
15.000999999997125,-0.10854613756263985,-0.10141615281536277
15.200999999997014,-0.18578467814048347,-0.15437946189289312
15.400999999996904,-0.26647076308518436,-0.21256719600617954
15.600999999996793,-0.35010105867230085,-0.27929929253793007
15.800999999996682,-0.4349770574153169,-0.34956416893054804
16.000999999996573,-0.5222034626517856,-0.4236511735489696
16.200999999996817,-0.6053382393796486,-0.4978016257062162
16.40099999999706,-0.6865083672113954,-0.5702337897870005
16.600999999997306,-0.7500510468673613,-0.6358430073486072
16.80099999999755,-0.8086013890254014,-0.707528329154927
17.000999999997795,-0.8707493392480534,-0.785683906721484
17.20099999999804,-0.9440822256414175,-0.8690144746584085
17.400999999998284,-1.033146877744889,-0.9535949498562897
17.60099999999853,-1.1247722415749297,-1.028283027825457
17.800999999998773,-1.2148950113584596,-1.102662681839836
18.000999999999017,-1.3011255024498525,-1.173441961526556
18.20099999999926,-1.3816482410061375,-1.2349427896584098
18.400999999999506,-1.458749999307693,-1.28755533962324
18.60099999999975,-1.5257856841194963,-1.315845613044355
18.799999999999994,-1.59607560382613,-1.296109380879512
19.000000000000238,-1.670025475299173,-1.2402613100226783
19.200000000000482,-1.7317273021240154,-1.172081298321941
19.400000000000727,-1.785276319325313,-1.0973148598521762
19.60000000000097,-1.8317294505374226,-1.003163223573566
19.800000000001216,-1.8636014216434573,-0.920567414343058
20.00000000000146,-1.8811697747758875,-0.8457392754928066
