Time (s),X (m),Y (m)
0.001,0.0014505791105779379,8.989899140956135e-05
0.20000000000000015,0.0005343669828105235,0.00011695958363189828
0.4000000000000003,0.006809055260536979,0.0025600201655368066
0.6000000000000004,0.007066088983877339,0.00831382271274416
0.8000000000000006,0.01672743993229439,0.01179574153142897
1.0000000000000007,0.028083651507212534,0.015020325206591412
1.2009999999999785,0.032808112135838584,0.020282520958578517
1.4009999999999565,0.029687789879425615,0.0240747241765759
1.6009999999999345,0.03532586594361795,0.026807037539535547
1.8009999999999124,0.03497705476141638,0.02710949632128283
2.0009999999998906,0.037234988726705116,0.022684517616009547
2.2009999999998686,0.03764168128761336,0.01850870986630406
2.4009999999998466,0.04191926931887555,0.015092602171106608
2.6009999999998246,0.05573278422916149,0.007881592858018975
2.8009999999998025,0.06748184913320812,0.0013481263085915543
3.0009999999997805,0.06636288793082153,-0.0015631949510106788
3.2009999999997585,0.07506093856055328,-0.003363314160319883
3.4009999999997365,0.0960326772389972,-0.012565521421946335
3.6009999999997144,0.11818013018411877,-0.023876385412014967
3.8009999999996924,0.1468618641874389,-0.03850305237400403
4.000999999999671,0.18035689756887582,-0.05551587099950866
4.200999999999738,0.20821652035253388,-0.07216019389009495
4.400999999999804,0.23690522101792025,-0.08626534069291518
4.600999999999871,0.259634979806463,-0.10423128500031575
4.800999999999938,0.28983496151648713,-0.1230209868575013
5.000000000000004,0.31744493722036154,-0.13923333128103896
5.200000000000071,0.3373611749182473,-0.14917975993246746
5.400000000000138,0.3548544640595816,-0.15778710349591926
5.600000000000205,0.3805208425018296,-0.16974244446512904
5.800000000000272,0.3984282403301893,-0.1810965422728297
6.000000000000338,0.4204512659458069,-0.18986099504854598
6.200000000000405,0.43283410349538975,-0.19705507121646545
6.400000000000472,0.45227672924802087,-0.20829500466224224
6.600000000000539,0.4849239482527656,-0.22789485618767746
6.800000000000606,0.5154837711766658,-0.2492212349686325
7.000000000000672,0.543854604138767,-0.27009886028666663
7.200000000000739,0.5734495473246427,-0.29355171746006004
7.400000000000806,0.6037323418726335,-0.3149562673461285
7.600000000000873,0.6377684943937896,-0.3389040230916477
7.8000000000009395,0.6739926763164658,-0.3646869741765152
8.000000000001005,0.7148348317403167,-0.3944343530071857
8.200000000000895,0.7546379613549831,-0.4260419320015781
8.400000000000784,0.8031709856117986,-0.461182299000176
8.600000000000673,0.8472245769949388,-0.49844105027397323
8.800000000000562,0.8790116317617556,-0.5197611906483791
9.000000000000451,0.9105938613302204,-0.5424933166153867
9.20000000000034,0.9421221692245513,-0.5666592693813429
9.40000000000023,0.9760132165732025,-0.5855937441211023
9.600000000000119,1.0086959380964104,-0.6055802500046104
9.800000000000008,1.0399593954526283,-0.6226980361394125
10.000999999999896,1.0610415491025842,-0.6399785081007767
10.200999999999786,1.0855779150801088,-0.657195476250269
10.400999999999675,1.1153398216359927,-0.6734040275621643
10.600999999999564,1.1532236509074734,-0.693528675421111
10.800999999999453,1.1963382917821943,-0.7194573345833659
11.000999999999342,1.2382350392629173,-0.7499700261555841
11.200999999999231,1.280657034576372,-0.7865648015110032
11.40099999999912,1.3228168849142168,-0.8230045137288075
11.60099999999901,1.364591200415481,-0.8556407174767082
11.800999999998899,1.4019931845032227,-0.8811866179135085
12.000999999998788,1.4414197111422091,-0.9090526050573674
12.200999999998677,1.4929373356917022,-0.9494821599866208
12.400999999998566,1.5433586135288075,-0.9897170637155378
12.600999999998455,1.5885078654393971,-1.0255590010977338
12.800999999998345,1.630873744568997,-1.0571362996606433
13.000999999998234,1.6746038107340924,-1.0976787072306566
13.200999999998123,1.7038008404584135,-1.1481768778446477
13.400999999998012,1.709674578641893,-1.203915836528829
13.600999999997901,1.6921808389753552,-1.252260244785784
13.80099999999779,1.6641083364828317,-1.3036181233677182
14.00099999999768,1.6335870882897334,-1.347858436931101
14.200999999997569,1.5994450841229952,-1.3880938255648818
14.400999999997458,1.5676847934065232,-1.4194029138882993
14.600999999997347,1.540021733321728,-1.4396005731012531
14.800999999997236,1.5095347827922092,-1.455762370938223
15.000999999997125,1.4802658789734806,-1.4740284733142228
15.200999999997014,1.457547460328817,-1.4904360169370257
15.400999999996904,1.4261709955333928,-1.5035987056197866
15.600999999996793,1.3900479301807698,-1.505777803810095
15.800999999996682,1.357527983027554,-1.50721181536405
16.000999999996573,1.3121911056803894,-1.4977936965578476
16.200999999996817,1.2687741504152867,-1.476901185441776
16.40099999999706,1.226692182418392,-1.444998327193731
16.600999999997306,1.1899452493985627,-1.4128773468093503
16.80099999999755,1.1508152228920572,-1.3821725615945544
17.000999999997795,1.117951771080635,-1.3579145969918678
17.20099999999804,1.0836197535959229,-1.330167774824089
17.400999999998284,1.0477919738101935,-1.3042277924647776
17.60099999999853,1.0079573273416091,-1.2736525000888965
17.800999999998773,0.962900111152736,-1.2430675268888274
18.000999999999017,0.9209866715265561,-1.2194827770616212
18.20099999999926,0.8887897427243584,-1.2007384885723875
18.400999999999506,0.8531205993666869,-1.1813047377968549
18.60099999999975,0.8071308783643407,-1.156170779682612
18.799999999999994,0.7662297478536594,-1.1317201645106243
19.000000000000238,0.7250275168125213,-1.1056521353959685
19.200000000000482,0.6864189485155382,-1.0781794087831065
19.400000000000727,0.6431648155061449,-1.0485538048364067
19.60000000000097,0.5952122537940261,-1.0123434256379618
19.800000000001216,0.5448083161123817,-0.9750390738633085
20.00000000000146,0.5005373995903902,-0.9490261351184729
