Time (s),X (m),Y (m)
0.001,-0.0005732996449108882,0.0002669654388657892
0.20000000000000015,0.0006720947330671129,-0.0008680698915715826
0.4000000000000003,0.00048138760758463474,-0.0017096117105554263
0.6000000000000004,0.010609528346460421,-0.008152745626833477
0.8000000000000006,0.020391711058499545,-0.018258647607196768
1.0000000000000007,0.028272629607558046,-0.02950277324465544
1.2009999999999785,0.037860853233068564,-0.040992814386198555
1.4009999999999565,0.05102826771094275,-0.04879709310157843
1.6009999999999345,0.06749539463872728,-0.05232216186677923
1.8009999999999124,0.08318484324234558,-0.06799952784012515
2.0009999999998906,0.08805687282840914,-0.09467528164923948
2.2009999999998686,0.07875717394971801,-0.12957519233926146
2.4009999999998466,0.06586636545047983,-0.16439519013216408
2.6009999999998246,0.046776609600326376,-0.19557856312698738
2.8009999999998025,0.027300371119962363,-0.21934294425036288
3.0009999999997805,-0.004799424825653528,-0.23097442527385814
3.2009999999997585,-0.04489227590797747,-0.22794687746859366
3.4009999999997365,-0.07769574447088982,-0.2184793159337518
3.6009999999997144,-0.10414491888439907,-0.20935832363775858
3.8009999999996924,-0.14370044724144884,-0.19011215906559653
4.000999999999671,-0.17967474833305513,-0.16872191321182253
4.200999999999738,-0.20297769059584345,-0.1517969822252144
4.400999999999804,-0.2323403171092377,-0.13256008414180426
4.600999999999871,-0.27218400466994863,-0.11073230332060466
4.800999999999938,-0.3163270028136258,-0.08755176087770926
5.000000000000004,-0.3616829180861809,-0.06605761341162177
5.200000000000071,-0.4030774478909827,-0.04695346057431918
5.400000000000138,-0.4587926667718069,-0.003820569859687258
5.600000000000205,-0.5157808753409651,0.03839467290845798
5.800000000000272,-0.5616417161209437,0.08277540202258098
6.000000000000338,-0.5945640426631414,0.12259419697779259
6.200000000000405,-0.6187362997229786,0.16141061787342015
6.400000000000472,-0.6311266468331636,0.2114700534719836
6.600000000000539,-0.6307827907125503,0.2647455093896051
6.800000000000606,-0.6198231876738844,0.3214331758193034
7.000000000000672,-0.5947797688056956,0.38546657446780824
7.200000000000739,-0.5640015921899577,0.450144547266015
7.400000000000806,-0.5172169455502984,0.5124964514479318
7.600000000000873,-0.47997008906616945,0.5484634376014362
7.8000000000009395,-0.4310549457539347,0.5465073167891833
8.000000000001005,-0.3864643234802146,0.5370994568680227
8.200000000000895,-0.34523001590228647,0.5140585245267534
8.400000000000784,-0.3142248404152454,0.47866472528001724
8.600000000000673,-0.2968922113976745,0.43790906434230303
8.800000000000562,-0.2976400316743339,0.39383375158271855
9.000000000000451,-0.30982770674422333,0.34550021358727867
9.20000000000034,-0.3283444853041894,0.29009119590099186
9.40000000000023,-0.3570755889395372,0.2246671861489292
9.600000000000119,-0.38888743508024354,0.15879341438343575
9.800000000000008,-0.4210172565560054,0.1025617873110249
10.000999999999896,-0.44007942547872014,0.06116541174508957
10.200999999999786,-0.4559854516309359,0.02871861285395826
10.400999999999675,-0.4743422393450121,-0.010799468929944716
10.600999999999564,-0.499402189633323,-0.06011605808222851
10.800999999999453,-0.531461220267606,-0.11545786299412122
11.000999999999342,-0.5644168412025562,-0.1803886284106817
11.200999999999231,-0.598314718352051,-0.2470492655749154
11.40099999999912,-0.6432514588095366,-0.3156891421762613
11.60099999999901,-0.6959530016775198,-0.3772828673821598
11.800999999998899,-0.7541076126366961,-0.41485180775753944
12.000999999998788,-0.8057500248847709,-0.42621330783099987
12.200999999998677,-0.8653301633416283,-0.41817018041741916
12.400999999998566,-0.9255095923115657,-0.4055558635108279
12.600999999998455,-0.9856139912740355,-0.3844303783136701
12.800999999998345,-1.047100383013047,-0.35184998348127916
13.000999999998234,-1.1124874360219694,-0.3085771995685643
13.200999999998123,-1.1773366099960965,-0.25399101576436056
13.400999999998012,-1.2186916169659647,-0.1961528149471954
13.600999999997901,-1.229371155052064,-0.13859197812588672
13.80099999999779,-1.2190023933591954,-0.08086207246958924
14.00099999999768,-1.2017705271044516,-0.023295094646933103
14.200999999997569,-1.1855084907394349,0.02652783255886572
14.400999999997458,-1.1592660090274645,0.08396879039949068
14.600999999997347,-1.1274442814319467,0.14676441703371998
14.800999999997236,-1.0981519929580532,0.20979224707283403
15.000999999997125,-1.068714529796689,0.27292954883602405
15.200999999997014,-1.0333028917811262,0.3259301304532628
15.400999999996904,-0.9860434651425131,0.35563217841512546
15.600999999996793,-0.9300629230941845,0.3585956168390948
15.800999999996682,-0.8638712600902222,0.3386168793189251
16.000999999996573,-0.8003885161366747,0.3119376333255462
16.200999999996817,-0.7400438456363143,0.2672833023946268
16.40099999999706,-0.6881777221316433,0.21483041091269867
16.600999999997306,-0.6490143068986224,0.16421303614663726
16.80099999999755,-0.6277564544450956,0.11171918230941906
17.000999999997795,-0.626035948377939,0.055189936006437595
17.20099999999804,-0.6425688507703162,-0.008195526843489436
17.400999999998284,-0.6692323300724798,-0.07669623489512721
17.60099999999853,-0.7034963704876779,-0.1430769106339762
17.800999999998773,-0.7444159753674479,-0.2108043420811112
18.000999999999017,-0.7832791045511327,-0.2829644725588007
18.20099999999926,-0.8213255631545194,-0.35209389853766415
18.400999999999506,-0.8588195564809807,-0.4175195852058579
18.60099999999975,-0.8959742578182986,-0.4786241334770668
18.799999999999994,-0.9322793461900397,-0.5190192226989505
19.000000000000238,-0.9928648389783147,-0.540252391089691
19.200000000000482,-1.0645965039591234,-0.541411785218613
19.400000000000727,-1.1393922839220683,-0.5269534694532105
19.60000000000097,-1.198332926153764,-0.5051037128344251
19.800000000001216,-1.2586571483250868,-0.4813923403262234
20.00000000000146,-1.3246261774327088,-0.4517376207867461
