Time (s),X (m),Y (m)
0.001,-1.2891339751951317e-05,0.0009348340498585851
0.20000000000000015,0.0014053255089455968,-0.0008350707713182323
0.4000000000000003,0.004536393190419634,0.0033406885976042713
0.6000000000000004,0.01293622528026471,0.015728528260137563
0.8000000000000006,0.02596404416657388,0.00936572431952185
1.0000000000000007,0.042169237213704504,0.004735767849726063
1.2009999999999785,0.061520789878684,0.01210395024187065
1.4009999999999565,0.08415679559255752,0.004889040175114084
1.6009999999999345,0.11124921455039016,-0.0071878428891085765
1.8009999999999124,0.14235880465184797,-0.009821069084494195
2.0009999999998906,0.17357565755774368,-0.011491207521619784
2.2009999999998686,0.20083365973601985,-0.020669031083041207
2.4009999999998466,0.2272366241563159,-0.03388072281296451
2.6009999999998246,0.2566743287587572,-0.06560429359059143
2.8009999999998025,0.2874318791952769,-0.07094580218027349
3.0009999999997805,0.3161028977598516,-0.08693570544957754
3.2009999999997585,0.34697150968183693,-0.1174124483722929
3.4009999999997365,0.3753764635993604,-0.1571309343383755
3.6009999999997144,0.4015781585867865,-0.1900202702413491
3.8009999999996924,0.42661112032630133,-0.21910204225875024
4.000999999999671,0.44678716197004353,-0.24351224567296956
4.200999999999738,0.47076306310558763,-0.2526367827779674
4.400999999999804,0.5003657191458695,-0.2571619273626876
4.600999999999871,0.531964175954006,-0.25757720563886927
4.800999999999938,0.567082202124177,-0.2422035070551048
5.000000000000004,0.6028885094744783,-0.24087478884500013
5.200000000000071,0.6388059056763096,-0.25467948975045784
5.400000000000138,0.6732930023952968,-0.26979389189243036
5.600000000000205,0.6993974747480942,-0.292378206595574
5.800000000000272,0.7229899198993263,-0.3186003266598474
6.000000000000338,0.7416382596707602,-0.34823012680333953
6.200000000000405,0.7561031090089387,-0.3849591719501334
6.400000000000472,0.7695179525698623,-0.41746890952961446
6.600000000000539,0.7874676294440435,-0.4514383948800647
6.800000000000606,0.8086993282746927,-0.4912220889239642
7.000000000000672,0.832218583863161,-0.5286669932836383
7.200000000000739,0.8568645408132919,-0.5467384887566674
7.400000000000806,0.8846649700440273,-0.5670505572586447
7.600000000000873,0.9182728335865781,-0.5751749886775667
7.8000000000009395,0.9554422383037667,-0.593686596723631
8.000000000001005,0.9949018988327476,-0.6205319953723922
8.200000000000895,1.0365812852326062,-0.6431961523063503
8.400000000000784,1.074123973377064,-0.6610551500186043
8.600000000000673,1.11256034251285,-0.6696165257942245
8.800000000000562,1.1553150711602522,-0.6894716732234829
9.000000000000451,1.2001001944091934,-0.7067283159729874
9.20000000000034,1.2407097216178773,-0.7339667797527402
9.40000000000023,1.280801708401398,-0.7618749220658286
9.600000000000119,1.3175762376566686,-0.8024077163651047
9.800000000000008,1.3521396368979088,-0.8287768132083995
10.000999999999896,1.3849169356048348,-0.8478186216573017
10.200999999999786,1.416956111785809,-0.8673678423076613
10.400999999999675,1.4510719617307748,-0.8971020993016718
10.600999999999564,1.480440925864067,-0.9407018546127456
10.800999999999453,1.5091963343266888,-0.9890553915674116
11.000999999999342,1.5298291850371817,-1.0389544985989712
11.200999999999231,1.546786851322737,-1.0928548935587186
11.40099999999912,1.5650645188072503,-1.1384408318149828
11.60099999999901,1.5900520317763898,-1.168466819745474
11.800999999998899,1.6174765353743852,-1.1923965441836415
12.000999999998788,1.6457439349638328,-1.2052508884958466
12.200999999998677,1.669615381668748,-1.2455664776010675
12.400999999998566,1.691741603835273,-1.281791533855668
12.600999999998455,1.7167875629067546,-1.3335823672989449
12.800999999998345,1.7405578295735258,-1.3800341988673703
13.000999999998234,1.7657760829903923,-1.4231125775732156
13.200999999998123,1.7889450962082465,-1.461904779909348
13.400999999998012,1.8157468338056646,-1.4981892226148146
13.600999999997901,1.8436379009650141,-1.5308608716741052
13.80099999999779,1.872460313823679,-1.5552916713984808
14.00099999999768,1.9010220592235698,-1.602456106658569
14.200999999997569,1.9261842820482549,-1.6566738189114736
14.400999999997458,1.9515291491366515,-1.7031781761058844
14.600999999997347,1.9861555588966584,-1.7480209985166109
14.800999999997236,2.0298059862157536,-1.7793588201488828
15.000999999997125,2.0757994022257362,-1.8012660979508515
15.200999999997014,2.120254550550708,-1.8151268769544988
15.400999999996904,2.169395625567862,-1.826710003523227
15.600999999996793,2.221253682520192,-1.8472365882654176
15.800999999996682,2.2685098480075543,-1.8856399789357345
16.000999999996573,2.306516647593836,-1.923001311320188
16.200999999996817,2.340071602423401,-1.9439874503265717
16.40099999999706,2.367877261021254,-1.9762991100399447
16.600999999997306,2.3938185830531027,-2.009998000605496
16.80099999999755,2.41908432703578,-2.048104605161547
17.000999999997795,2.4437604423087294,-2.0816539789089874
17.20099999999804,2.469056320631458,-2.125873063469269
17.400999999998284,2.494611417876714,-2.16035527898221
17.60099999999853,2.5238719746920815,-2.1963771172682445
17.800999999998773,2.5523544283724413,-2.2338342203713912
18.000999999999017,2.5850296710272676,-2.261718914613225
18.20099999999926,2.617998825608665,-2.296409868816297
18.400999999999506,2.651247069760045,-2.308119901623223
18.60099999999975,2.6884378865212906,-2.316482873765646
18.799999999999994,2.7296944975708364,-2.3242507665097647
19.000000000000238,2.778259550020148,-2.350640928465341
19.200000000000482,2.8255799852497017,-2.3870159319575777
19.400000000000727,2.8700131533255053,-2.427287440375657
19.60000000000097,2.905881100155258,-2.4649536932509983
19.800000000001216,2.944279065229029,-2.4990803851150525
20.00000000000146,2.9788278820663376,-2.531253357091519
