Time (s),X (m),Y (m)
0.001,0.0014193575185132074,-0.0002669654388657889
0.20000000000000015,0.0021660020655968446,-0.0003058915196530677
0.4000000000000003,0.0031782604918457456,-0.0008719825056421843
0.6000000000000004,0.012239227647669196,-0.005157642783077254
0.8000000000000006,0.03394783446952012,-0.013240814111811687
1.0000000000000007,0.04843578392876566,-0.019681960600629298
1.2009999999999785,0.06165363763224312,-0.03731473464896321
1.4009999999999565,0.07045976595296868,-0.06865964169023485
1.6009999999999345,0.07151186131999158,-0.10499283246358064
1.8009999999999124,0.06974870543155393,-0.13565662652079005
2.0009999999998906,0.04716018090521255,-0.1726857162158372
2.2009999999998686,0.009901067016104917,-0.21242836767086737
2.4009999999998466,-0.022047241724810887,-0.25245910740589533
2.6009999999998246,-0.05073314804625162,-0.2825725779471627
2.8009999999998025,-0.0816007953572736,-0.2956549382745438
3.0009999999997805,-0.11523987899935231,-0.29623960764333157
3.2009999999997585,-0.15166126967149424,-0.28566293921073693
3.4009999999997365,-0.19261773446201838,-0.2670043606927456
3.6009999999997144,-0.2375396184650241,-0.2374985986373863
3.8009999999996924,-0.28231030111638683,-0.21713818535599622
4.000999999999671,-0.3259607066720967,-0.19121731336331124
4.200999999999738,-0.3564388573708481,-0.1657876573809862
4.400999999999804,-0.3667962747030898,-0.12869184237813075
4.600999999999871,-0.3661854103556415,-0.09190135957265032
4.800999999999938,-0.3563811806212597,-0.05466606932395585
5.000000000000004,-0.3358589269540956,-0.00877131982009203
5.200000000000071,-0.31360284741078487,0.0401189431927372
5.400000000000138,-0.2918255936754647,0.08333179586231154
5.600000000000205,-0.2588723691125395,0.11304031819730216
5.800000000000272,-0.21745950061926062,0.11927518976578777
6.000000000000338,-0.16866361221984882,0.09974656295659476
6.200000000000405,-0.11752859843059382,0.0693842543998198
6.400000000000472,-0.07614799107111923,0.038234601532827504
6.600000000000539,-0.05508013382304945,0.00626033271062753
6.800000000000606,-0.05468356908327352,-0.03023151230788852
7.000000000000672,-0.06845113778359019,-0.06643908097375327
7.200000000000739,-0.10402277492067175,-0.11206745536399945
7.400000000000806,-0.14034790306478329,-0.1598754544265583
7.600000000000873,-0.18492364589203578,-0.1936709962271536
7.8000000000009395,-0.2201912585010632,-0.21269040965942101
8.000000000001005,-0.26268077696702274,-0.2178704263504441
8.200000000000895,-0.3105783273601932,-0.21118486128135439
8.400000000000784,-0.3747029860192905,-0.19356370882393392
8.600000000000673,-0.43495376133090924,-0.17311998537263767
8.800000000000562,-0.49421086771075096,-0.14644359123319767
9.000000000000451,-0.5556404737476694,-0.1193122112376313
9.20000000000034,-0.623057145824295,-0.08808891081135968
9.40000000000023,-0.6944042807800538,-0.044995767355290386
9.600000000000119,-0.7673691548979833,-0.002598334136073086
9.800000000000008,-0.8278185680000696,0.04392745716796901
10.000999999999896,-0.8635795020315882,0.09519665842542079
10.200999999999786,-0.8749021361170637,0.15358386845506697
10.400999999999675,-0.8782108746168422,0.20659929148621187
10.600999999999564,-0.8698775678955033,0.2614879615661942
10.800999999999453,-0.8617950494410523,0.31571028245422955
11.000999999999342,-0.8504582450171883,0.35849229955391715
11.200999999999231,-0.8311949040004539,0.410397546996327
11.40099999999912,-0.8060820224923507,0.47009261414155573
11.60099999999901,-0.7757879643963844,0.5364074451078116
11.800999999998899,-0.7321845885135682,0.6118327001113244
12.000999999998788,-0.6866125536634391,0.6908613741254118
12.200999999998677,-0.6441674531698746,0.7720759989920282
12.400999999998566,-0.606829460964441,0.8465393657289478
12.600999999998455,-0.5628502951023838,0.922704112303861
12.800999999998345,-0.5158110083329738,0.9942759935421405
13.000999999998234,-0.4635799405794857,1.0500002421956025
13.200999999998123,-0.3964387154427484,1.0835999663249092
13.400999999998012,-0.32141167505941864,1.089546006240888
13.600999999997901,-0.2503215530032996,1.0744906329521267
13.80099999999779,-0.18206883817686112,1.0321437045308675
14.00099999999768,-0.14439110099434924,0.973145018373636
14.200999999997569,-0.13197178877351406,0.9193333875710453
14.400999999997458,-0.14078323182812125,0.8584573217505665
14.600999999997347,-0.166150018941141,0.788725731247962
14.800999999997236,-0.2149030784057509,0.7164686778851592
15.000999999997125,-0.27072918548302977,0.6627127280580268
15.200999999997014,-0.3427155751725187,0.6370413079381491
15.400999999996904,-0.415408013010161,0.6315365511439575
15.600999999996793,-0.4911880837492233,0.6468515807389577
15.800999999996682,-0.5647591060352504,0.668117482491572
16.000999999996573,-0.6388900321751693,0.6956202555427806
16.200999999996817,-0.7097493139514442,0.728178658184917
16.40099999999706,-0.7829846079919249,0.7704284194607323
16.600999999997306,-0.8426055338534959,0.8239909091820363
16.80099999999755,-0.8749733529601879,0.8832248945480454
17.000999999997795,-0.888882789921844,0.9493730781448223
17.20099999999804,-0.8806840737850684,1.0299696869190693
17.400999999998284,-0.8516563102483541,1.124035307536698
17.60099999999853,-0.8162445189427943,1.2130768152656701
17.800999999998773,-0.7800407104609425,1.29166955878261
18.000999999999017,-0.7458265892546131,1.3693254575480047
18.20099999999926,-0.7060877556285193,1.450384308013147
18.400999999999506,-0.6643715213085326,1.5329141812566085
18.60099999999975,-0.6146710225107643,1.6126778858728668
18.799999999999994,-0.547977482782852,1.6543640163093505
19.000000000000238,-0.47333082609611415,1.6506363338178645
19.200000000000482,-0.40894129907290916,1.6240193755390948
19.400000000000727,-0.3591366781463171,1.5853828909322734
19.60000000000097,-0.32196680358787977,1.538067798620298
19.800000000001216,-0.314133261177703,1.4793412889013091
20.00000000000146,-0.3326132673241533,1.415224041994829
