Time (s),X (m),Y (m)
0.001,0.001152392079647418,-0.000729363142846258
0.20000000000000015,-0.0002839556761462757,0.0007874201567525458
0.4000000000000003,-0.0016872732630947927,0.0021927693138074837
0.6000000000000004,0.008175407475622466,-0.005306145446419554
0.8000000000000006,0.019534146691996435,-0.015376474600496199
1.0000000000000007,0.034882373909836666,-0.022160026060826187
1.2009999999999785,0.05002407645742915,-0.037855094984001664
1.4009999999999565,0.0648533993405533,-0.04412854471749367
1.6009999999999345,0.07879807752182688,-0.048191115988534185
1.8009999999999124,0.0947306668109371,-0.05422775311327201
2.0009999999998906,0.1098889193567743,-0.06157478175131462
2.2009999999998686,0.10530806742103112,-0.09938076319748736
2.4009999999998466,0.09916606362952632,-0.1370941849042925
2.6009999999998246,0.10374768853566668,-0.16464096064465356
2.8009999999998025,0.10993092258924979,-0.19069072374020965
3.0009999999997805,0.09977333680842489,-0.2161759093098391
3.2009999999997585,0.07943571199596694,-0.2360520253057056
3.4009999999997365,0.04980822009394974,-0.25284338257428846
3.6009999999997144,0.007950717132908841,-0.26394331802557924
3.8009999999996924,-0.033242087765274105,-0.2582313552589732
4.000999999999671,-0.07272612949701605,-0.23984116987090665
4.200999999999738,-0.1060560898676488,-0.23163347309788904
4.400999999999804,-0.14501297133190175,-0.22373131017010375
4.600999999999871,-0.18589229639155186,-0.21933848374821968
4.800999999999938,-0.22120990035837004,-0.2218318281349289
5.000000000000004,-0.2595134593627428,-0.22624105210802745
5.200000000000071,-0.30439015316616236,-0.22116746276874216
5.400000000000138,-0.34689575098386893,-0.20764355348790617
5.600000000000205,-0.37171812393223097,-0.1610609456842565
5.800000000000272,-0.3705449365880788,-0.09982021865833487
6.000000000000338,-0.354025764504394,-0.040177443836391394
6.200000000000405,-0.33559464414057866,0.015616657208664177
6.400000000000472,-0.3179218412718962,0.07216348219506906
6.600000000000539,-0.3093742029907964,0.11523168707137445
6.800000000000606,-0.3065273771608013,0.15782576239349236
7.000000000000672,-0.3057636065719497,0.20740918454273033
7.200000000000739,-0.30117733942880004,0.25894631627810755
7.400000000000806,-0.294554038938928,0.3035384496969336
7.600000000000873,-0.2941203323901962,0.34021113447245055
7.8000000000009395,-0.2931096798029833,0.38504734267015894
8.000000000001005,-0.29226811110699863,0.42617607004952446
8.200000000000895,-0.28786069211134707,0.46823850154979163
8.400000000000784,-0.2782759396815292,0.5145578525428431
8.600000000000673,-0.2684778583792541,0.5735816475794293
8.800000000000562,-0.25068030891097065,0.6361873294280952
9.000000000000451,-0.2361424986253214,0.6971866103042595
9.20000000000034,-0.23645331622263188,0.7500902978512716
9.40000000000023,-0.23405368312168043,0.7980561033126312
9.600000000000119,-0.23373281783854472,0.8456869290293691
9.800000000000008,-0.2278486446560403,0.8963762577583617
10.000999999999896,-0.21894931587882793,0.9525807283205638
10.200999999999786,-0.20939175753458322,1.0082361045423318
10.400999999999675,-0.19164511491567296,1.0587247948420238
10.600999999999564,-0.1585268813274441,1.0909928994088018
10.800999999999453,-0.11481498424910587,1.106691716653678
11.000999999999342,-0.06365218380573476,1.1151897599430052
11.200999999999231,-0.006462974054122528,1.116879249292861
11.40099999999912,0.05389248886087949,1.109626050639615
11.60099999999901,0.11496340658272591,1.0942894309537352
11.800999999998899,0.169170997456254,1.0783732934807295
12.000999999998788,0.21683166435842868,1.0645568932330232
12.200999999998677,0.280803654207036,1.0483551041417172
12.400999999998566,0.3484194986017281,1.0286522541703802
12.600999999998455,0.41579658515818035,1.0096010234258472
12.800999999998345,0.47759960888660996,0.9951188631231065
13.000999999998234,0.5333725656688905,0.9884463123946953
13.200999999998123,0.5879125300166435,0.9781458680534986
13.400999999998012,0.6635784770430943,0.960258463716762
13.600999999997901,0.7399875654842165,0.9371983063405944
13.80099999999779,0.8068403790661658,0.9193316020771574
14.00099999999768,0.8630648725044306,0.9085375948671237
14.200999999997569,0.9223448530372431,0.9000915567928345
14.400999999997458,0.9861122310565782,0.8886026452063345
14.600999999997347,1.0462779304389132,0.8841547481663261
14.800999999997236,1.1075833571222546,0.8834555711701448
15.000999999997125,1.1794062577452091,0.8767765509183696
15.200999999997014,1.2570528329614215,0.863847112942117
15.400999999996904,1.3297169548325303,0.8554431627546922
15.600999999996793,1.4024271031089905,0.8448197505563178
15.800999999996682,1.4686907657204722,0.84570853282577
16.000999999996573,1.5406471558292414,0.836604630062206
16.200999999996817,1.6163112803416402,0.8258035441240948
16.40099999999706,1.6806757588138888,0.8141937952786267
16.600999999997306,1.7449702765734252,0.8101625009391048
16.80099999999755,1.8183409671270034,0.7989748592972225
17.000999999997795,1.88851754788572,0.7942591125468328
17.20099999999804,1.966079861141382,0.7943326546670938
17.400999999998284,2.043575281221803,0.7854347286638468
17.60099999999853,2.118517479365849,0.7771800662324562
17.800999999998773,2.1901905233588748,0.7672525745578009
18.000999999999017,2.2577624453767235,0.7467283420679518
18.20099999999926,2.3232380750473083,0.715776730546179
18.400999999999506,2.3891660781516415,0.6753896756276226
18.60099999999975,2.453817935465726,0.6326647927721654
18.799999999999994,2.496785843913645,0.5765714158513582
19.000000000000238,2.5209201662214085,0.5160026486507406
19.200000000000482,2.5268494115031825,0.4354085172671683
19.400000000000727,2.527754951301677,0.3661542232028351
19.60000000000097,2.5269139173145536,0.30249081805266714
19.800000000001216,2.515615098890658,0.23388219539050617
20.00000000000146,2.5058198190513408,0.16312780974827323
