Time (s),X (m),Y (m)
0.001,0.0014193575185132074,0.0002669654388657892
0.20000000000000015,0.0007005056185153487,0.00015928966191279867
0.4000000000000003,0.0058336309694109485,0.001905743772306453
0.6000000000000004,0.017497308645002128,0.005405432539720416
0.8000000000000006,0.019889151661889624,0.008196842234637241
1.0000000000000007,0.02144403294560176,0.013050793008212342
1.2009999999999785,0.029059182246071718,0.020111844896811264
1.4009999999999565,0.029400529436691657,0.0252539077916746
1.6009999999999345,0.03420187522122596,0.02961824938184889
1.8009999999999124,0.03972407474574324,0.03635036325078536
2.0009999999998906,0.04581727263011306,0.04295288659683091
2.2009999999998686,0.05625739191800212,0.052000805813566156
2.4009999999998466,0.0710043802664836,0.060101753614552465
2.6009999999998246,0.09477953563821585,0.05919954363350346
2.8009999999998025,0.11828879661483202,0.04895199994028129
3.0009999999997805,0.14076155523020306,0.039420930795737705
3.2009999999997585,0.16135232945953137,0.029006174762761926
3.4009999999997365,0.17567422324172074,0.0189682190824828
3.6009999999997144,0.183877131935875,0.013314644505030164
3.8009999999996924,0.20171770658458663,0.00929678800633454
4.000999999999671,0.21778616572194381,0.008808654774823434
4.200999999999738,0.23234841562132105,0.00895744306343215
4.400999999999804,0.24751359575282722,0.005747722930751569
4.600999999999871,0.2600887640226247,-0.0018788935524393358
4.800999999999938,0.2832660519312884,-0.012375935710837768
5.000000000000004,0.3034387119132084,-0.02568017700571048
5.200000000000071,0.3269102584207865,-0.04584207509690178
5.400000000000138,0.34936780130206724,-0.06650583384831547
5.600000000000205,0.37034761326943033,-0.08442877984766278
5.800000000000272,0.39682210408701957,-0.09860646375170229
6.000000000000338,0.4152903876738343,-0.11255414837452404
6.200000000000405,0.4352694897158572,-0.1205922593490896
6.400000000000472,0.46702167050950927,-0.12747207658399115
6.600000000000539,0.49738023575201,-0.1319156175591062
6.800000000000606,0.5285699453142786,-0.1420288718530287
7.000000000000672,0.5604208374233,-0.15866963449130617
7.200000000000739,0.5997027783617415,-0.1834116059505568
7.400000000000806,0.6246735419070564,-0.20402713885666665
7.600000000000873,0.6503378417411575,-0.2210685519469132
7.8000000000009395,0.6825239296941312,-0.2375130094821298
8.000000000001005,0.7050001482874731,-0.2512634705012285
8.200000000000895,0.7170802947787359,-0.26279964144516066
8.400000000000784,0.7356988331131998,-0.2807447041112712
8.600000000000673,0.7696775553540935,-0.3108177916591651
8.800000000000562,0.8060213485542148,-0.3404044773828182
9.000000000000451,0.8422752021063257,-0.3682570503466285
9.20000000000034,0.8611497911786965,-0.3899103426362083
9.40000000000023,0.8849557153495828,-0.41119421445574567
9.600000000000119,0.9142746056689299,-0.4302409858960395
9.800000000000008,0.9471728748295449,-0.44981029164346664
10.000999999999896,0.9760966589946523,-0.46972725809316435
10.200999999999786,1.0021366974024901,-0.4907317779501609
10.400999999999675,1.0340557963485397,-0.5119471812193731
10.600999999999564,1.0801102641680143,-0.5335675250546195
10.800999999999453,1.1341128658624757,-0.557593196831933
11.000999999999342,1.1767162146337207,-0.5867305221339896
11.200999999999231,1.2233665166112768,-0.6230797709575315
11.40099999999912,1.2622593656879484,-0.6595437957267624
11.60099999999901,1.3017615806442546,-0.6950864782659026
11.800999999998899,1.344484193202304,-0.7387962027381623
12.000999999998788,1.3832180927051483,-0.7806448850548336
12.200999999998677,1.4238820111576762,-0.824926837561392
12.400999999998566,1.4624087452853038,-0.8669400613515066
12.600999999998455,1.501263030812066,-0.9125438450935561
12.800999999998345,1.5353433962236516,-0.9464717482213674
13.000999999998234,1.563382093695771,-0.9733318578145761
13.200999999998123,1.5853650850794112,-1.015237540552798
13.400999999998012,1.5866557572796391,-1.0535628874226386
13.600999999997901,1.5695241917238392,-1.0875896463051689
13.80099999999779,1.5505428134873953,-1.121125999234811
14.00099999999768,1.536409545885896,-1.1451288333719536
14.200999999997569,1.514922113463952,-1.174898911771396
14.400999999997458,1.4914902660407288,-1.2024299159288885
14.600999999997347,1.4703333111409622,-1.2252371485722542
14.800999999997236,1.4573885917843326,-1.2490561210690339
15.000999999997125,1.4396395682557777,-1.2935125510507337
15.200999999997014,1.419566277282884,-1.3274932955235106
15.400999999996904,1.3987227129605508,-1.3475899148662351
15.600999999996793,1.3819834465521255,-1.3788694960049717
15.800999999996682,1.3673093506061964,-1.4044112787548726
16.000999999996573,1.349010807921521,-1.4402654449283931
16.200999999996817,1.3236798495894802,-1.4783367709365256
16.40099999999706,1.286620201109984,-1.522540915238967
16.600999999997306,1.243959643978925,-1.5658043718158308
16.80099999999755,1.1966294135494853,-1.6099830385232663
17.000999999997795,1.1462146978568408,-1.654643169871646
17.20099999999804,1.0987775712328502,-1.695486229352442
17.400999999998284,1.051081107257072,-1.7315682065800972
17.60099999999853,1.0062541369377946,-1.7610327051247805
17.800999999998773,0.9588136654247378,-1.7870682606753856
18.000999999999017,0.9180830574923479,-1.8022833946449186
18.20099999999926,0.877401627334253,-1.8016336572955227
18.400999999999506,0.8396991527758106,-1.7840357442622683
18.60099999999975,0.8008962698746541,-1.7630078547380112
18.799999999999994,0.7553016159323246,-1.7328191773210264
19.000000000000238,0.7200902660201794,-1.7060252427419815
19.200000000000482,0.6865151031948111,-1.6820769138820946
19.400000000000727,0.6525187170306179,-1.656293927810163
19.60000000000097,0.6227405671384691,-1.6387911545825928
19.800000000001216,0.5962292586571076,-1.636884158305302
20.00000000000146,0.5706418130160308,-1.6409151977586967
