Time (s),X (m),Y (m)
0.001,0.0014505791105779379,-8.989899140956135e-05
0.20000000000000015,0.0008224032586931394,-0.0002977227654088627
0.4000000000000003,0.005713134891888416,-0.0067746679263653445
0.6000000000000004,0.01185550532333064,-0.015963069248631688
0.8000000000000006,0.024350756141566624,-0.028837371717443265
1.0000000000000007,0.041957429090282966,-0.03948428417003117
1.2009999999999785,0.061133516922331106,-0.05030700438705365
1.4009999999999565,0.08274273923629216,-0.0615189389889768
1.6009999999999345,0.10574626344777331,-0.07388507369349273
1.8009999999999124,0.13225245469027125,-0.08466099102554468
2.0009999999998906,0.16058079364559605,-0.09812098578599367
2.2009999999998686,0.1963645024076644,-0.11281023995759941
2.4009999999998466,0.22863348301536487,-0.12784764061020254
2.6009999999998246,0.26069117043733336,-0.14619881052660647
2.8009999999998025,0.2948396309243441,-0.16509802392799866
3.0009999999997805,0.32709077091343997,-0.19061610409934432
3.2009999999997585,0.34868694018647317,-0.2239645186987416
3.4009999999997365,0.34770652910638095,-0.2599896711096106
3.6009999999997144,0.3170238822674192,-0.30074203931516047
3.8009999999996924,0.2728343910487359,-0.3416126975262905
4.000999999999671,0.22644773516166272,-0.38384610103770617
4.200999999999738,0.18102089424545822,-0.4181773054631056
4.400999999999804,0.1286761980491945,-0.43280908169286036
4.600999999999871,0.07996405929231787,-0.42760992067893006
4.800999999999938,0.032490670014833065,-0.41043605801069116
5.000000000000004,-0.017489217568347096,-0.3819669684693088
5.200000000000071,-0.06941445179783111,-0.33988661485995175
5.400000000000138,-0.10756271771642678,-0.3037495777705769
5.600000000000205,-0.12388357660139397,-0.2759831284745347
5.800000000000272,-0.11934831706558,-0.2399316127091299
6.000000000000338,-0.09786662474235164,-0.19319866070462008
6.200000000000405,-0.07321158619336313,-0.14374494848825584
6.400000000000472,-0.040854724920854214,-0.08065701259654026
6.600000000000539,-0.0039069880399572945,-0.01705196636283571
6.800000000000606,0.03657315725194069,0.045753827126858965
7.000000000000672,0.08366762693791258,0.1079682918995323
7.200000000000739,0.134949009548662,0.17052223016286464
7.400000000000806,0.19859438643761573,0.231476360984358
7.600000000000873,0.2645018633573047,0.26935060199134836
7.8000000000009395,0.3182518242283134,0.2829637140222127
8.000000000001005,0.37580627010620316,0.2745894894449259
8.200000000000895,0.43861801334134576,0.25575504440244945
8.400000000000784,0.49665985097661636,0.23117730060285643
8.600000000000673,0.5487050757313747,0.20132246743199086
8.800000000000562,0.5986859770935383,0.1651358656498794
9.000000000000451,0.641869798808389,0.12996735666999637
9.20000000000034,0.6735755088572719,0.08637707392548621
9.40000000000023,0.6777197129645739,0.03375330904504532
9.600000000000119,0.656549928223477,-0.021618124876484825
9.800000000000008,0.6265028057554951,-0.057991291307196664
10.000999999999896,0.5890252155954939,-0.07314116971907694
10.200999999999786,0.5456291557576978,-0.07007987843825313
10.400999999999675,0.4979237042430058,-0.051234341761139536
10.600999999999564,0.44255894759165265,-0.012643968258475982
10.800999999999453,0.38679372427166714,0.016589672677982725
11.000999999999342,0.3289943334529632,0.044467706497268555
11.200999999999231,0.2736815469140047,0.08412997462028035
11.40099999999912,0.2183097953746576,0.1433469869529551
11.60099999999901,0.16718350462709938,0.1833126732723712
11.800999999998899,0.11621225029816144,0.21323478655431283
12.000999999998788,0.06436987725452306,0.25333764254867697
12.200999999998677,0.024013700892923377,0.29474275602968586
12.400999999998566,0.009308654355720725,0.3450371948439206
12.600999999998455,0.023438009447596216,0.40508823293956253
12.800999999998345,0.056046781083922644,0.46663801667284194
13.000999999998234,0.0993818391389617,0.5289552910301909
13.200999999998123,0.14718811639083848,0.5830126366354345
13.400999999998012,0.19655400066613182,0.6091638631459303
13.600999999997901,0.24013553575693625,0.6144894746210104
13.80099999999779,0.2864144344332981,0.5966178733413406
14.00099999999768,0.32532618339002656,0.558529294795626
14.200999999997569,0.35298460305198004,0.5286380508671775
14.400999999997458,0.36804865975476425,0.502087684600108
14.600999999997347,0.36806932212417354,0.46239434126086126
14.800999999997236,0.3558065072903022,0.41016204390755284
15.000999999997125,0.3358105737387526,0.3557275372659949
15.200999999997014,0.3014292004828118,0.29220440428532257
15.400999999996904,0.2572774646225332,0.22714225525821116
15.600999999996793,0.19979616261014957,0.16155621542373172
15.800999999996682,0.14180641349971645,0.0977865006360891
16.000999999996573,0.07896841657296579,0.05060740709516363
16.200999999996817,0.013944172926556508,0.03679650384624218
16.40099999999706,-0.05564724087320231,0.05866623976097553
16.600999999997306,-0.12416323693941608,0.09515764191625288
16.80099999999755,-0.1885577998584029,0.14442862987194907
17.000999999997795,-0.23711732206735686,0.20160669047834506
17.20099999999804,-0.26431523461470574,0.24857971821117245
17.400999999998284,-0.2592516240854682,0.29857236132164905
17.60099999999853,-0.2362621747245915,0.35054469452660675
17.800999999998773,-0.20030462888725376,0.39747351299779154
18.000999999999017,-0.15590921532132765,0.43955420103251824
18.20099999999926,-0.09612214834872863,0.46821530530614197
18.400999999999506,-0.03832837839084944,0.47601292477450863
18.60099999999975,0.017140222017037635,0.4548202201228983
18.799999999999994,0.06061630248413608,0.4097996252938741
19.000000000000238,0.0793870486350149,0.3509394971917882
19.200000000000482,0.07298300371569111,0.2959181449843661
19.400000000000727,0.06099954587926113,0.24709518624796487
19.60000000000097,0.02847562335562188,0.2075984349954177
19.800000000001216,-0.013104777351535934,0.18497549779769265
20.00000000000146,-0.05813274895329647,0.1808555696966311
