Time (s),X (m),Y (m)
0.001,0.0013163127053841656,0.0005157376242541218
0.20000000000000015,0.0008463199092971184,3.4293443048143066e-05
0.4000000000000003,0.002107439344774325,0.0007566744020660926
0.6000000000000004,0.005769894038416672,0.0023078898723072764
0.8000000000000006,0.007306208991713326,0.0017772772779960188
1.0000000000000007,0.012339032860470082,0.004024126659151674
1.2009999999999785,0.014874216539252463,0.006173892945064181
1.4009999999999565,0.016924932374429245,0.005143505350075842
1.6009999999999345,0.02353764334218967,0.009980393524704811
1.8009999999999124,0.028856066326768567,0.012760430542585114
2.0009999999998906,0.03215664180042731,0.01700072089975264
2.2009999999998686,0.03653155354886758,0.02165998712046764
2.4009999999998466,0.04672500216309523,0.028221250882570353
2.6009999999998246,0.05803418040533215,0.04173310774044615
2.8009999999998025,0.07095760067191292,0.05846530408595766
3.0009999999997805,0.08008919467610685,0.06797479448285396
3.2009999999997585,0.08894754195506042,0.07475888181222703
3.4009999999997365,0.09438140168359134,0.0865301658143762
3.6009999999997144,0.10131439232423683,0.09909758992903901
3.8009999999996924,0.1075487919484891,0.1081191803169976
4.000999999999671,0.11200919050152346,0.11501527997446612
4.200999999999738,0.11809224092312566,0.12344236008106707
4.400999999999804,0.12245209296636768,0.13365427225250964
4.600999999999871,0.1272702111934435,0.14123687333670443
4.800999999999938,0.12845718489172267,0.15171611018496747
5.000000000000004,0.13172873101461088,0.16000343338957554
5.200000000000071,0.13523837747406278,0.17076041983687995
5.400000000000138,0.13967517814646432,0.17550946698772182
5.600000000000205,0.14113534930899735,0.1873160057032077
5.800000000000272,0.1401929613350059,0.2063650401012453
6.000000000000338,0.14028222953276392,0.22106378159421494
6.200000000000405,0.13946338111328244,0.23622577832886316
6.400000000000472,0.14070917315651987,0.24877604802423814
6.600000000000539,0.14548786842439268,0.25565237612509006
6.800000000000606,0.14819060923179775,0.26800030389702356
7.000000000000672,0.14843353452709276,0.28023794223846826
7.200000000000739,0.14917856173055197,0.29259989506469325
7.400000000000806,0.1526705305431733,0.3002299700233577
7.600000000000873,0.1567149812832236,0.30738810614779555
7.8000000000009395,0.15963501486041834,0.31828075128808264
8.000000000001005,0.161623547165332,0.33038767744815456
8.200000000000895,0.1636304059750613,0.3403278139060771
8.400000000000784,0.16256122591279212,0.35607707881845707
8.600000000000673,0.1607914246108046,0.37220414454917217
8.800000000000562,0.16164259284966426,0.38199524937356694
9.000000000000451,0.16134956971118844,0.3913756042955477
9.20000000000034,0.1602999096884592,0.40465774229246076
9.40000000000023,0.16048803032801348,0.4135980352972051
9.600000000000119,0.15709709638107996,0.43192704275121413
9.800000000000008,0.15554129006119335,0.44665506616306666
10.000999999999896,0.15426684383920694,0.4649709058611362
10.200999999999786,0.15328369778080142,0.4806368731605632
10.400999999999675,0.15177805200674233,0.49753101270931743
10.600999999999564,0.152780463892871,0.5118273826327828
10.800999999999453,0.15266692254723752,0.5271668380040749
11.000999999999342,0.15237720273022506,0.5373396998049085
11.200999999999231,0.1475292925926049,0.5589776441373936
11.40099999999912,0.14641413791163382,0.5688322533258177
11.60099999999901,0.14207832718970553,0.5842944682682428
11.800999999998899,0.1400871213540064,0.5945556990926593
12.000999999998788,0.1417120880201231,0.6070391376891888
12.200999999998677,0.14185847628488868,0.6194444844471566
12.400999999998566,0.13935643034548678,0.6314220233557506
12.600999999998455,0.13697569169240165,0.6450107673107827
12.800999999998345,0.13707079502399416,0.6568460628385493
13.000999999998234,0.13872378488343995,0.6640654747671428
13.200999999998123,0.13836166049878149,0.6796521144189146
13.400999999998012,0.1377581837844414,0.6934013055690087
13.600999999997901,0.13375043306213089,0.7136708570053012
13.80099999999779,0.1284970143680285,0.7331152779931714
14.00099999999768,0.12654119570440395,0.747802556328646
14.200999999997569,0.12279666633520163,0.761220371243786
14.400999999997458,0.11865258019031037,0.7754548912717208
14.600999999997347,0.11338456968438865,0.7890141227459417
14.800999999997236,0.10967326347209871,0.8008557013186147
15.000999999997125,0.10228618077487699,0.8177016574049758
15.200999999997014,0.09561938890066603,0.8308055989635017
15.400999999996904,0.08794427950328358,0.8453277954448758
15.600999999996793,0.08028023461921965,0.857850382991986
15.800999999996682,0.07127305859467055,0.8713698283138288
16.000999999996573,0.06201910775963604,0.8822280832763537
16.200999999996817,0.04983549052332712,0.8946911841907923
16.40099999999706,0.03888137658081728,0.90997372075624
16.600999999997306,0.02567471368728761,0.9246239082157208
16.80099999999755,0.00981233405361353,0.9405828086993441
17.000999999997795,-0.0035148334546830848,0.9558833390295417
17.20099999999804,-0.0111912498514056,0.9707073904249878
17.400999999998284,-0.024149903271136277,0.9851148842230303
17.60099999999853,-0.034277611470079614,0.9950216031555021
17.800999999998773,-0.05187168982660134,1.0013849486684612
18.000999999999017,-0.07109425214521514,1.0094747232359547
18.20099999999926,-0.08622859092071258,1.0184381022434368
18.400999999999506,-0.10404076091771337,1.0273814980650042
18.60099999999975,-0.11828233659333781,1.0350875141167406
18.799999999999994,-0.14269769560840803,1.0405733241874306
19.000000000000238,-0.15442530430929288,1.0456812881882136
19.200000000000482,-0.17713769500991888,1.0466849841850965
19.400000000000727,-0.18922369364150757,1.0496687190665133
19.60000000000097,-0.20338901393807177,1.0565160216370948
19.800000000001216,-0.2214792585596617,1.0652739460165574
20.00000000000146,-0.23377279559932232,1.0763610931698144
