Time (s),X (m),Y (m)
0.001,-9.270868745296317e-05,0.0008932837685830061
0.20000000000000015,0.0014831046459179932,-0.0008353969646899574
0.4000000000000003,0.007208666469247723,-0.0049836528248522775
0.6000000000000004,0.01741197118387472,-0.005125988800314056
0.8000000000000006,0.03557100162174239,0.003056941098839586
1.0000000000000007,0.056163177604788284,0.004350742093809825
1.2009999999999785,0.07463485605496877,0.014261963059701488
1.4009999999999565,0.09319065155437994,0.007005647417950148
1.6009999999999345,0.11043388563486774,-0.014284557620939428
1.8009999999999124,0.12618231613277112,-0.03918374508316233
2.0009999999998906,0.1380895458013706,-0.04745042162933914
2.2009999999998686,0.14859556479727737,-0.0669837121256284
2.4009999999998466,0.16038178093942904,-0.08185709322618924
2.6009999999998246,0.17340738299087768,-0.101431328355187
2.8009999999998025,0.18752342979285538,-0.11315584565280205
3.0009999999997805,0.20721072842588656,-0.13431228415632165
3.2009999999997585,0.23070751261511369,-0.15943221199580598
3.4009999999997365,0.25685826870091755,-0.1934214270432488
3.6009999999997144,0.2835732631819315,-0.21802909933619566
3.8009999999996924,0.3085735696071352,-0.24329591855548008
4.000999999999671,0.33427516043868893,-0.2588073485135777
4.200999999999738,0.3669742922194002,-0.2632692909376246
4.400999999999804,0.3986205213704798,-0.2669924453587168
4.600999999999871,0.42793579033192364,-0.2774750777811987
4.800999999999938,0.45700680375066316,-0.2951212145482462
5.000000000000004,0.4763790334266466,-0.3190614668998423
5.200000000000071,0.4959431147041446,-0.33814761130635923
5.400000000000138,0.51817544997259,-0.36058690139269495
5.600000000000205,0.5410670983656403,-0.3845879642081216
5.800000000000272,0.5582711734585379,-0.4084428000818947
6.000000000000338,0.5718436604957462,-0.44184895236498517
6.200000000000405,0.5832152413779932,-0.4866864159988571
6.400000000000472,0.5961445876595418,-0.5266079668025764
6.600000000000539,0.6104305368551814,-0.5662260073683589
6.800000000000606,0.6252375123158275,-0.6097217818889096
7.000000000000672,0.6393532776281995,-0.6690270069726177
7.200000000000739,0.6597620938438518,-0.7061809851365387
7.400000000000806,0.6823352812353073,-0.7407202039681856
7.600000000000873,0.7070525210014998,-0.7812292205421428
7.8000000000009395,0.7308348290376274,-0.8126938058878275
8.000000000001005,0.7525381144528084,-0.839332073980293
8.200000000000895,0.7692394646166317,-0.8763788618408612
8.400000000000784,0.780301248640165,-0.9222634857577268
8.600000000000673,0.7850574991271067,-0.9651543583063783
8.800000000000562,0.7902920448202112,-1.0143728122928335
9.000000000000451,0.7996779279266315,-1.059584338172107
9.20000000000034,0.8146583080396288,-1.089495021542944
9.40000000000023,0.8285045335133329,-1.1333759468245503
9.600000000000119,0.8480871924587738,-1.160140069819737
9.800000000000008,0.8713344213443585,-1.1698454541054044
10.000999999999896,0.8985303218880406,-1.188296446805341
10.200999999999786,0.9245645822701357,-1.22432444049625
10.400999999999675,0.9382127467067052,-1.2734377179463001
10.600999999999564,0.9388821785680711,-1.3286031504375133
10.800999999999453,0.9417485647615284,-1.376821838516911
11.000999999999342,0.9523508990034169,-1.4130287082036719
11.200999999999231,0.9688277472642639,-1.4341114114440041
11.40099999999912,0.9897727039286941,-1.4600191130664397
11.60099999999901,1.0155065088227406,-1.4913958649656087
11.800999999998899,1.0401594528817468,-1.5249987640259548
12.000999999998788,1.0656569582657782,-1.5468458981519808
12.200999999998677,1.091089852018118,-1.5704969231715593
12.400999999998566,1.116003485147041,-1.6085283821768916
12.600999999998455,1.1404129475023486,-1.6397209349189377
12.800999999998345,1.1667436545035952,-1.6489251071783577
13.000999999998234,1.1940846635932731,-1.6746593420092404
13.200999999998123,1.2239303503218055,-1.6948566053797811
13.400999999998012,1.257137453525823,-1.7067723207511412
13.600999999997901,1.291556911426818,-1.7060813049227856
13.80099999999779,1.3365920843685168,-1.7099920112507851
14.00099999999768,1.3884492789613039,-1.708095715310251
14.200999999997569,1.4357442217790934,-1.6952371457455253
14.400999999997458,1.4836022240583406,-1.6857921485111547
14.600999999997347,1.5321569807645423,-1.6801858837941281
14.800999999997236,1.5776994076360153,-1.6675857671699974
15.000999999997125,1.631132436979467,-1.6546610707975737
15.200999999997014,1.6890024366612773,-1.6421760670449337
15.400999999996904,1.7433080930842646,-1.6297155736937505
15.600999999996793,1.786775267016663,-1.6121690090580074
15.800999999996682,1.8098117949985153,-1.5937012259170058
16.000999999996573,1.8416188508378184,-1.5735942781593184
16.200999999996817,1.86470113516611,-1.546314174651692
16.40099999999706,1.8889439553329166,-1.5128835539356231
16.600999999997306,1.9078325925139308,-1.4784073081460842
16.80099999999755,1.9322000412435545,-1.4434855503839747
17.000999999997795,1.9674562126026485,-1.4163921829305888
17.20099999999804,1.9898160832708356,-1.3860603933865283
17.400999999998284,2.010952899749549,-1.3531459670048853
17.60099999999853,2.0524824150142855,-1.329015552744392
17.800999999998773,2.095556054540261,-1.3066749351479245
18.000999999999017,2.1543873600992742,-1.2913025710448192
18.20099999999926,2.2051194959687823,-1.2773495110219257
18.400999999999506,2.2599139593253597,-1.2597749101892644
18.60099999999975,2.302781257803271,-1.2381684339459502
18.799999999999994,2.3402183534639227,-1.220043291150293
19.000000000000238,2.3720753469722555,-1.20109260282211
19.200000000000482,2.3983660979651376,-1.178656554247093
19.400000000000727,2.4395571630847552,-1.1514859098581405
19.60000000000097,2.472734957366091,-1.123052548616646
19.800000000001216,2.5114676884478753,-1.0916733106723877
20.00000000000146,2.555828080981474,-1.0616431939245825
