Time (s),X (m),Y (m)
0.001,-0.00016860096042250976,0.000844935058449024
0.20000000000000015,0.0010886616814987907,-0.000606401648874156
0.4000000000000003,0.0026467933001092835,-0.0025679071553384777
0.6000000000000004,0.003823869353396454,0.002337072953641349
0.8000000000000006,0.0069684450993379304,0.007607554615888107
1.0000000000000007,0.011237662714579797,0.008498923836502371
1.2009999999999785,0.021363675911574884,0.006859074930105129
1.4009999999999565,0.03747895131670463,-0.00016537959088422656
1.6009999999999345,0.05130163755041957,-0.0070387292003153
1.8009999999999124,0.06836365655258926,-0.01592349421515363
2.0009999999998906,0.0771857788985643,-0.01588026229575431
2.2009999999998686,0.09051377808139319,-0.015350939000032232
2.4009999999998466,0.09647125681685491,-0.015511431843345741
2.6009999999998246,0.09815341623670212,-0.005907252423206322
2.8009999999998025,0.10405051618722996,-0.001888878377491811
3.0009999999997805,0.11326864815684644,-0.003184121252981153
3.2009999999997585,0.12301225304411469,0.00013390747191388696
3.4009999999997365,0.124635610325564,0.006236537644115288
3.6009999999997144,0.12762269232062862,0.01602444097128111
3.8009999999996924,0.12872145194671814,0.029188150213440005
4.000999999999671,0.12514130342584512,0.04408344967988871
4.200999999999738,0.12753560994268287,0.055697819787832045
4.400999999999804,0.13001698516662918,0.0676495147836334
4.600999999999871,0.1407538445547755,0.07592326703673137
4.800999999999938,0.15099117765454792,0.08063850624866231
5.000000000000004,0.165259700516477,0.08285214329287044
5.200000000000071,0.1720201964156638,0.09173625011074224
5.400000000000138,0.18115632527158648,0.09235163438936886
5.600000000000205,0.19643373906119171,0.08973752918940867
5.800000000000272,0.21826946255344326,0.09043715792824361
6.000000000000338,0.2363471433738087,0.09522873809910395
6.200000000000405,0.2507823846504844,0.09985184454466858
6.400000000000472,0.2645307571145812,0.10329737395504797
6.600000000000539,0.2761652905892268,0.10808052323644708
6.800000000000606,0.2845409319779491,0.1083481808067559
7.000000000000672,0.2979639861875803,0.10810565808020657
7.200000000000739,0.3114595510886814,0.10716531237430495
7.400000000000806,0.3205447139507541,0.1107442651786411
7.600000000000873,0.32417558676749286,0.11579340079355475
7.8000000000009395,0.3318004326871683,0.12427864468484746
8.000000000001005,0.3446199715553468,0.13180383777705665
8.200000000000895,0.3582514176494139,0.13843501771944194
8.400000000000784,0.3655211068656318,0.14172348425739853
8.600000000000673,0.3759062332812306,0.14801094395838024
8.800000000000562,0.3922728721596919,0.15502828673129676
9.000000000000451,0.40541499456179947,0.161629439061874
9.20000000000034,0.4180427918066407,0.17265095463245142
9.40000000000023,0.4249327724423529,0.18375689101984807
9.600000000000119,0.43829247618810996,0.19080093190456177
9.800000000000008,0.45255741481164813,0.19858189391853584
10.000999999999896,0.4722161449846991,0.20392749513787745
10.200999999999786,0.4958146735260326,0.20887193288827827
10.400999999999675,0.5129280656811439,0.21840619729194977
10.600999999999564,0.5272699124374063,0.22556041292904816
10.800999999999453,0.5427987833311073,0.22565103989229343
11.000999999999342,0.5601259272210198,0.22663942176013369
11.200999999999231,0.5724339163341754,0.22942647133648747
11.40099999999912,0.586490503677118,0.23192374304274171
11.60099999999901,0.5843914301445006,0.24027146047555367
11.800999999998899,0.5937711812279842,0.2499735370269891
12.000999999998788,0.5981869434755328,0.25966110855519164
12.200999999998677,0.6075312832532496,0.27155143997561215
12.400999999998566,0.6225181302958459,0.2836974870330452
12.600999999998455,0.6391959398112529,0.2930334680130624
12.800999999998345,0.6442245019708984,0.3041877912878788
13.000999999998234,0.6454845204395777,0.31489444542321293
13.200999999998123,0.6571672430262983,0.325024064131568
13.400999999998012,0.6703037647077015,0.334645852468042
13.600999999997901,0.6801823650799005,0.3471162765373716
13.80099999999779,0.6933354582456878,0.35691857333687055
14.00099999999768,0.7088370564060177,0.36380613299922915
14.200999999997569,0.727989393721214,0.3704272789387626
14.400999999997458,0.7429379454675742,0.3795751110120565
14.600999999997347,0.7575500635136183,0.3913955616428089
14.800999999997236,0.765739873447842,0.40139904557208234
15.000999999997125,0.7735834854937584,0.4113199381687135
15.200999999997014,0.7786202165741077,0.42249061425873147
15.400999999996904,0.7852601473979703,0.43224833432759135
15.600999999996793,0.7870713232061151,0.43621097997459557
15.800999999996682,0.7919929932340437,0.4449089574849836
16.000999999996573,0.7921220372468858,0.45466376970302647
16.200999999996817,0.7925412187748252,0.4645507692514801
16.40099999999706,0.7887814913015082,0.47555545486447776
16.600999999997306,0.7989677222811825,0.48470103028760586
16.80099999999755,0.8064320626064893,0.4925371031296173
17.000999999997795,0.8106311090023277,0.49863774129820715
17.20099999999804,0.8190006588398495,0.5093760752943087
17.400999999998284,0.8243831696881967,0.5190101172735553
17.60099999999853,0.8318004444038964,0.530274157019853
17.800999999998773,0.8441533191646656,0.5348768983181209
18.000999999999017,0.8635362965018599,0.5379623700444672
18.20099999999926,0.8811267885784575,0.5427973925117294
18.400999999999506,0.8911101209124683,0.5495375869149906
18.60099999999975,0.9129806878469127,0.5548773857821028
18.799999999999994,0.933306048989666,0.5595460935338601
19.000000000000238,0.9433373353373209,0.566591439449459
19.200000000000482,0.9531696595545848,0.5701252223452679
19.400000000000727,0.9766264829969787,0.572560148236263
19.60000000000097,0.9918917786848515,0.5761260455771334
19.800000000001216,0.9982937947604319,0.5839093796620685
20.00000000000146,0.9971687514627223,0.5942146574130367
