Time (s),X (m),Y (m)
0.001,0.0013163127053841656,-0.0005157376242541218
0.20000000000000015,4.0936583816384555e-05,0.0005686799262405713
0.4000000000000003,-0.0010735940704090059,-0.0015297664989758007
0.6000000000000004,0.009656359306585927,-0.01312355833700828
0.8000000000000006,0.023289764100739303,-0.021389672998016293
1.0000000000000007,0.04649779179554415,-0.03702410322465596
1.2009999999999785,0.07330416045695572,-0.05448797378411985
1.4009999999999565,0.0967279701059808,-0.06104382527035552
1.6009999999999345,0.11477534752702728,-0.06390129274111489
1.8009999999999124,0.12770851424926682,-0.06292436993308435
2.0009999999998906,0.14035535322057696,-0.06396321244412062
2.2009999999998686,0.14936281221367764,-0.0617427486226992
2.4009999999998466,0.1502468461116477,-0.06664875111086097
2.6009999999998246,0.14763384033464055,-0.07616391349114598
2.8009999999998025,0.13694909409827075,-0.09812582869101172
3.0009999999997805,0.12704582679945628,-0.12370516727997509
3.2009999999997585,0.11971250749839099,-0.1442484338523155
3.4009999999997365,0.1095246852619645,-0.1698560419598809
3.6009999999997144,0.10161450961434626,-0.19832001886195486
3.8009999999996924,0.09277510138269242,-0.22837030732372082
4.000999999999671,0.07589729521208595,-0.2591050204138732
4.200999999999738,0.049203605917124145,-0.2923816957313162
4.400999999999804,0.01745093338011139,-0.3241586663359028
4.600999999999871,-0.010895102204866024,-0.34693094855057555
4.800999999999938,-0.052146683870096806,-0.36369298840289804
5.000000000000004,-0.09519719281268199,-0.37315185751721275
5.200000000000071,-0.12915976673042615,-0.3770807775542231
5.400000000000138,-0.15986297321802487,-0.37308632596382385
5.600000000000205,-0.1895655763704172,-0.36640603694360435
5.800000000000272,-0.226173939796611,-0.35370632525371115
6.000000000000338,-0.26803585992076223,-0.33731443522713256
6.200000000000405,-0.3046274728936724,-0.3195617403836722
6.400000000000472,-0.33852565467621265,-0.29743736522872205
6.600000000000539,-0.36599721434269133,-0.2750969784310953
6.800000000000606,-0.3725478549822676,-0.23940880922475039
7.000000000000672,-0.36332461992666837,-0.20018962113025565
7.200000000000739,-0.3416257701277538,-0.16000816481508287
7.400000000000806,-0.32194950949857587,-0.12437445548614079
7.600000000000873,-0.3121265521506723,-0.09863349441141847
7.8000000000009395,-0.298235668840798,-0.05646236996891952
8.000000000001005,-0.27713414075909043,-0.0026222878313794293
8.200000000000895,-0.2574182683160783,0.05133108569112043
8.400000000000784,-0.24002367236214328,0.09887388159770687
8.600000000000673,-0.22809963847209586,0.13763451382923758
8.800000000000562,-0.2194200596048917,0.17291492130543204
9.000000000000451,-0.21339166581085273,0.2080486120166343
9.20000000000034,-0.20385125597344061,0.24837649850990012
9.40000000000023,-0.1882286069905777,0.28400858943978785
9.600000000000119,-0.17166349984785842,0.32671247086832883
9.800000000000008,-0.15452080401355803,0.3710303064906123
10.000999999999896,-0.14179092829410153,0.41821395387762084
10.200999999999786,-0.1281919550097376,0.4669249591905204
10.400999999999675,-0.11927941944636403,0.5104909593332148
10.600999999999564,-0.10692347467483503,0.5539379013391748
10.800999999999453,-0.0952967885847171,0.6009470589483598
11.000999999999342,-0.07703860751786168,0.6515249897992066
11.200999999999231,-0.0542397742231805,0.7022044434952347
11.40099999999912,-0.033446434089721755,0.7497310063791439
11.60099999999901,0.0002515049483699074,0.779159644702564
11.800999999998899,0.04452762449835354,0.7846863733750487
12.000999999998788,0.0946354674855601,0.7750713313975212
12.200999999998677,0.14934362893206726,0.7472938220228038
12.400999999998566,0.20032422848163392,0.7206350076257159
12.600999999998455,0.24938709927147001,0.6945438288834794
12.800999999998345,0.2944880458919692,0.6701670078060512
13.000999999998234,0.3431926239297031,0.6385944191943047
13.200999999998123,0.3860134394944674,0.6031579881225027
13.400999999998012,0.42057111039691314,0.5552658260925852
13.600999999997901,0.444928113926733,0.5067340482178536
13.80099999999779,0.45433058641145996,0.46346295060325665
14.00099999999768,0.4487616419448479,0.4148672672160861
14.200999999997569,0.4368882110139191,0.36835349570443526
14.400999999997458,0.4185611032072587,0.32166759761874847
14.600999999997347,0.395306837761294,0.2737448447777773
14.800999999997236,0.3763395413621747,0.22808680781046597
15.000999999997125,0.3606941127668799,0.18170960085802337
15.200999999997014,0.3452299720919893,0.1359679759767889
15.400999999996904,0.33632667300740654,0.09156221601648877
15.600999999996793,0.3129119196560525,0.038122765627901956
15.800999999996682,0.2865557615838918,-0.018128483627401375
16.000999999996573,0.24606007728438264,-0.05805663963923297
16.200999999996817,0.19700916170978858,-0.07327363855286247
16.40099999999706,0.14574530862055715,-0.07153540262893614
16.600999999997306,0.08654419724433474,-0.05558822474437661
16.80099999999755,0.03965417933286029,-0.0456219657589754
17.000999999997795,-0.016349943739053123,-0.031202919132027388
17.20099999999804,-0.06658394895605875,-0.014807752622298043
17.400999999998284,-0.11105358348305178,-0.003400307928012579
17.60099999999853,-0.15485793976937465,0.011328623984633758
17.800999999998773,-0.20450651883442753,0.027286069474546835
18.000999999999017,-0.25869725737740157,0.048813614790654165
18.20099999999926,-0.3210242330952335,0.07858540118203297
18.400999999999506,-0.38626051655600674,0.11819943448681916
18.60099999999975,-0.43391596354376405,0.16432138047774744
18.799999999999994,-0.4529557270391338,0.21620907844537998
19.000000000000238,-0.4537904034809035,0.26219356517817355
19.200000000000482,-0.44423119870293704,0.3162924821301164
19.400000000000727,-0.42773146125191297,0.37870090281563495
19.60000000000097,-0.39535532607348334,0.44430831660996645
19.800000000001216,-0.3559789389670285,0.5107442372413896
20.00000000000146,-0.3260948983157842,0.5733752603838204
