Time (s),X (m),Y (m)
0.001,0.001267963995250183,0.0005916298972236683
0.20000000000000015,0.0007341672719679922,-1.980874949873902e-05
0.4000000000000003,0.004329390786463057,0.0018046661430451375
0.6000000000000004,0.008984614828167094,0.0029399275523865564
0.8000000000000006,0.01879825873969232,0.009323754131677632
1.0000000000000007,0.02987070896398012,0.01451430364398175
1.2009999999999785,0.04059635571769168,0.02297393507150669
1.4009999999999565,0.05291015562634448,0.033521588552386634
1.6009999999999345,0.06738197782485718,0.04489866087515408
1.8009999999999124,0.07778835793037076,0.049254039159774034
2.0009999999998906,0.08667741996580842,0.06204769234732605
2.2009999999998686,0.09525380943203335,0.06260549133586372
2.4009999999998466,0.10166865586052311,0.07165670026442801
2.6009999999998246,0.10690766085109159,0.08022151889198173
2.8009999999998025,0.1134150218179727,0.1010151079333984
3.0009999999997805,0.11859368267280118,0.11346999180613909
3.2009999999997585,0.12094085050218628,0.13109136115544442
3.4009999999997365,0.1226924653110377,0.1507902170489507
3.6009999999997144,0.123962861554492,0.16721844607407552
3.8009999999996924,0.125736818210122,0.18177328582884344
4.000999999999671,0.12821031088701507,0.20100869364471277
4.200999999999738,0.12946423848094096,0.211720571931562
4.400999999999804,0.12730739080854217,0.22685459283533432
4.600999999999871,0.1303292087642922,0.2439308196386925
4.800999999999938,0.13392720213124273,0.26620837718489887
5.000000000000004,0.14271838705949147,0.2845438702602512
5.200000000000071,0.14911941288523928,0.3106548448914394
5.400000000000138,0.15738281039503468,0.3309888999938913
5.600000000000205,0.16238723945282363,0.3455472282902578
5.800000000000272,0.16565184995863122,0.37128277861268927
6.000000000000338,0.17451530073065005,0.39216621243260824
6.200000000000405,0.1816858583814682,0.40520887453790166
6.400000000000472,0.18556070644412515,0.4219603046152127
6.600000000000539,0.19384061050606835,0.43992014151031655
6.800000000000606,0.199684767244746,0.45408851148682366
7.000000000000672,0.2020495380935557,0.46175630509703436
7.200000000000739,0.19830839994038088,0.47959083005409314
7.400000000000806,0.19478508316629628,0.49953090989935106
7.600000000000873,0.19072211530635713,0.5241065785066752
7.8000000000009395,0.19301294165907815,0.5409772351244755
8.000000000001005,0.1976031160059128,0.5611961722950464
8.200000000000895,0.20475910265754596,0.5835001041858138
8.400000000000784,0.20990291242298326,0.5999171427568085
8.600000000000673,0.2128690492799175,0.6260398028980643
8.800000000000562,0.2137614026204781,0.648665281334258
9.000000000000451,0.2192546051658248,0.6637116623554496
9.20000000000034,0.22448820935966649,0.6813137873665581
9.40000000000023,0.22763869974118964,0.6925863826673639
9.600000000000119,0.23159633037365188,0.7065959471132535
9.800000000000008,0.23605880396561307,0.7234365946087328
10.000999999999896,0.2379902613695109,0.7378486390744812
10.200999999999786,0.23657550287322623,0.7550910493563475
10.400999999999675,0.23817027915412403,0.7736319328933701
10.600999999999564,0.23701590895158833,0.7997381604567787
10.800999999999453,0.23431813205218427,0.820716231745608
11.000999999999342,0.22708086660022692,0.8407925678929841
11.200999999999231,0.2203260925062314,0.8608455415264918
11.40099999999912,0.21081632809229017,0.8752679219600547
11.60099999999901,0.2028751671307923,0.8985141061098637
11.800999999998899,0.19578457635918287,0.9200383345966547
12.000999999998788,0.19238544448163378,0.9431357474405351
12.200999999998677,0.18769539352178619,0.968082974224076
12.400999999998566,0.18327313401495335,0.9910666986449183
12.600999999998455,0.18548687185619422,1.0120592809310465
12.800999999998345,0.1931146144026286,1.0245239026195023
13.000999999998234,0.19367427339382548,1.0560817048477735
13.200999999998123,0.1977033957871515,1.0734364364456963
13.400999999998012,0.19797234070750455,1.096862988776218
13.600999999997901,0.19944169813059293,1.119459383734292
13.80099999999779,0.20389857413963983,1.1383514128649979
14.00099999999768,0.20550737779584968,1.1618253768710871
14.200999999997569,0.20641182924470386,1.191384648683026
14.400999999997458,0.20734020625496077,1.2187744248805108
14.600999999997347,0.20651718031678268,1.2473343739837794
14.800999999997236,0.2088420543762505,1.2630483631483613
15.000999999997125,0.21540380706501633,1.2743117604216119
15.200999999997014,0.21369920773852732,1.2954938368006221
15.400999999996904,0.21138611724869483,1.3203900619033309
15.600999999996793,0.21062361343372546,1.3397176169010632
15.800999999996682,0.20645816190416555,1.3691211525240397
16.000999999996573,0.19571955066393734,1.4016606219098817
16.200999999996817,0.18705330004253176,1.4333825219548926
16.40099999999706,0.18065670277630858,1.4651802512003063
16.600999999997306,0.17655951749124071,1.4953625288820767
16.80099999999755,0.1742213953592286,1.5233834810792797
17.000999999997795,0.1664849978220644,1.5494528592438697
17.20099999999804,0.1603843831339845,1.576400990422299
17.400999999998284,0.15750124547097505,1.6017571207103511
17.60099999999853,0.15372580008719983,1.6252701466906594
17.800999999998773,0.15201687382400775,1.6437243199508025
18.000999999999017,0.15143452068215213,1.6595356539363253
18.20099999999926,0.1460695751990591,1.683151084964385
18.400999999999506,0.13411656611993517,1.7132819538073094
18.60099999999975,0.12490837525964513,1.743587944816519
18.799999999999994,0.12163678915980872,1.7662823459606265
19.000000000000238,0.11633941117928626,1.787729730078307
19.200000000000482,0.11276831002060053,1.819232256385099
19.400000000000727,0.11257925654939412,1.844557922718075
19.60000000000097,0.11484257988409388,1.86189810473612
19.800000000001216,0.12052540163601211,1.875701188485033
20.00000000000146,0.12111803394695554,1.8953049773969617
