Time (s),X (m),Y (m)
0.001,7.024362446948994e-05,0.0009692696795465077
0.20000000000000015,0.000796635856165037,-0.00012501409497113827
0.4000000000000003,0.0016054709715414177,-0.0002372346078449786
0.6000000000000004,0.0052280366675706656,-0.003225184895191752
0.8000000000000006,0.008838711754254597,-0.00046779738462110444
1.0000000000000007,0.013045063990129658,0.0015643946709069324
1.2009999999999785,0.018700093606731947,0.0006326863858987633
1.4009999999999565,0.024993322674995988,-0.0010143469047986314
1.6009999999999345,0.02832344594797488,0.0002168827379495597
1.8009999999999124,0.0336888859363197,6.0955972652904414e-05
2.0009999999998906,0.040458005034306736,0.0008760061563193939
2.2009999999998686,0.0480256809318684,-0.00047751560425127746
2.4009999999998466,0.05420280638866527,0.000797099957676076
2.6009999999998246,0.06224489792173419,-0.0004882873304968686
2.8009999999998025,0.06358147531169528,0.005247001459777702
3.0009999999997805,0.07180940466619935,0.004473604675696974
3.2009999999997585,0.07837654616530808,0.006090885960370523
3.4009999999997365,0.08516207152557821,0.005303560432523684
3.6009999999997144,0.09386265716466975,0.006162311999852742
3.8009999999996924,0.09616355862141043,0.008963112714612287
4.000999999999671,0.10272427084934165,0.011685743128073816
4.200999999999738,0.1080126220777648,0.013631626854173552
4.400999999999804,0.1158634012927876,0.01591209258647905
4.600999999999871,0.12453815598917202,0.020085688560478262
4.800999999999938,0.12926871496538145,0.025016422254093486
5.000000000000004,0.1385455842566206,0.029213290266642898
5.200000000000071,0.14567452698826755,0.032049803761690775
5.400000000000138,0.15106884587566521,0.03632833642439567
5.600000000000205,0.15721893263408307,0.04073362424583791
5.800000000000272,0.16337065675198378,0.04240134255768332
6.000000000000338,0.16538612451136792,0.048779374523138276
6.200000000000405,0.1687303068028287,0.053513020501915365
6.400000000000472,0.1767224517250515,0.060187426787797406
6.600000000000539,0.18184177758246975,0.06619816396561154
6.800000000000606,0.18367711658750488,0.07385497834807538
7.000000000000672,0.18866289482961685,0.08033774900655355
7.200000000000739,0.19264915007633823,0.0882264947382054
7.400000000000806,0.1899807976677283,0.09467146366374635
7.600000000000873,0.19501862579726667,0.1012078462807301
7.8000000000009395,0.1984266950517092,0.1094865677600554
8.000000000001005,0.20180672001394642,0.12001279922145222
8.200000000000895,0.20542523083189912,0.12941064989917733
8.400000000000784,0.20473765163168448,0.137440748899304
8.600000000000673,0.2008895664526802,0.14868352461557427
8.800000000000562,0.206168601237358,0.15832383159178098
9.000000000000451,0.21193935497540092,0.16695804244170373
9.20000000000034,0.2105384099859674,0.17638840813859763
9.40000000000023,0.208411140142294,0.185700775832495
9.600000000000119,0.20788757556388934,0.1946889144639871
9.800000000000008,0.20763069154526534,0.20402215640446694
10.000999999999896,0.20436535500498046,0.2130272111545608
10.200999999999786,0.20156570400400883,0.2249913293161285
10.400999999999675,0.2003645863965412,0.23656016641100536
10.600999999999564,0.20152068747947527,0.2469314653841638
10.800999999999453,0.2008460133585996,0.25596357887666193
11.000999999999342,0.20022380196348977,0.26607821344793015
11.200999999999231,0.2001763551245968,0.27697633454519066
11.40099999999912,0.19841033596959215,0.28563370874200905
11.60099999999901,0.19708140626164417,0.2953947255745259
11.800999999998899,0.194220432680309,0.30609329524060863
12.000999999998788,0.19702176271170896,0.31430800878134424
12.200999999998677,0.1993117196619784,0.32338929039286635
12.400999999998566,0.1975307483932121,0.3352855490444435
12.600999999998455,0.19711954724278594,0.34747988117452466
12.800999999998345,0.1935894550347903,0.3582751814641003
13.000999999998234,0.19247499115680022,0.3691776605563493
13.200999999998123,0.19156238197779066,0.37654702406089635
13.400999999998012,0.1911555914811553,0.38693175580488964
13.600999999997901,0.19004330411542117,0.39765344057913327
13.80099999999779,0.19265272654815732,0.40798519095639174
14.00099999999768,0.19171124973419723,0.41626522092309587
14.200999999997569,0.18757840623015604,0.42543037447734233
14.400999999997458,0.18944298536759202,0.43777333347375286
14.600999999997347,0.18799819355952024,0.4481702396478356
14.800999999997236,0.18958112733772584,0.45819232720028646
15.000999999997125,0.1890840615239589,0.4680316172844747
15.200999999997014,0.19211059425263136,0.47586759127393374
15.400999999996904,0.19348784886245027,0.48573719807698135
15.600999999996793,0.19287579555135906,0.4966325175992476
15.800999999996682,0.19387705843968311,0.5067687490527525
16.000999999996573,0.19079111175788355,0.5162226855779486
16.200999999996817,0.19161210693242095,0.5256717447478747
16.40099999999706,0.19400688324069712,0.5334248738258947
16.600999999997306,0.1943825337786553,0.5441008217429838
16.80099999999755,0.19450300120822087,0.5527475858180158
17.000999999997795,0.1952722945371033,0.5649526418226014
17.20099999999804,0.1948861379952672,0.5759214860230715
17.400999999998284,0.19670338305518695,0.5838312775257588
17.60099999999853,0.19697550353275978,0.5928369239742131
17.800999999998773,0.19597295135029494,0.6036958557902635
18.000999999999017,0.19146412607535898,0.6136375271835809
18.20099999999926,0.1904983401975654,0.6239379545754592
18.400999999999506,0.19126093982952463,0.6343468541331695
18.60099999999975,0.18535474043640127,0.6436067219438191
18.799999999999994,0.18033133669800314,0.6540980866242699
19.000000000000238,0.1803988734088349,0.6615631282795743
19.200000000000482,0.18174305864490273,0.6716120675522307
19.400000000000727,0.18065820647044445,0.6813870729328098
19.60000000000097,0.18049678816701084,0.6929368861294453
19.800000000001216,0.1805833848876899,0.702099653743869
20.00000000000146,0.18550171234787913,0.7129873501098468
