Time (s),X (m),Y (m)
0.001,-0.000592775884969954,0.00017911379721200063
0.20000000000000015,0.0022347586291443905,-0.0007088566311256666
0.4000000000000003,0.0078043791729181106,-0.0014067847046883657
0.6000000000000004,0.008868619328848304,-0.004213882362790184
0.8000000000000006,0.012299672768433613,-0.0058933015311903566
1.0000000000000007,0.01371162174361445,-0.005324733675924749
1.2009999999999785,0.022483067105072824,-0.003940134745264546
1.4009999999999565,0.04546649436605251,-0.010942183738265238
1.6009999999999345,0.07338934850085697,-0.019374294210014204
1.8009999999999124,0.10526527730726107,-0.031387750052960656
2.0009999999998906,0.13633894599919852,-0.04494054483644396
2.2009999999998686,0.1624591214511511,-0.05631167558830982
2.4009999999998466,0.19437160532850872,-0.07258906371779013
2.6009999999998246,0.2264068198341389,-0.0945387668457695
2.8009999999998025,0.25435474864517477,-0.11702991198044099
3.0009999999997805,0.27681483766929027,-0.13231689665737761
3.2009999999997585,0.3090130213129542,-0.15024536718954837
3.4009999999997365,0.3433653308780206,-0.16638393791845718
3.6009999999997144,0.380638197311827,-0.1822786486139165
3.8009999999996924,0.4183004492030546,-0.20087436702006622
4.000999999999671,0.4556573418444055,-0.21946899678385334
4.200999999999738,0.4849735767944908,-0.23737449909333377
4.400999999999804,0.5027079063445571,-0.2606340086617803
4.600999999999871,0.5105665913460101,-0.2843339518491895
4.800999999999938,0.5064948251204611,-0.31403573405472734
5.000000000000004,0.48938938420901706,-0.35916824737489994
5.200000000000071,0.47225510019649225,-0.40057898902083044
5.400000000000138,0.4495135646368197,-0.4401486237664679
5.600000000000205,0.4345665285248156,-0.46733321035029013
5.800000000000272,0.4168256662563129,-0.5011559150367997
6.000000000000338,0.3916737751355172,-0.5399379199672494
6.200000000000405,0.3674875918999505,-0.5816311821806598
6.400000000000472,0.34350047470328887,-0.6319690780897707
6.600000000000539,0.3208230585865066,-0.681106738864286
6.800000000000606,0.2851730141929585,-0.7393321683988114
7.000000000000672,0.25554275847873964,-0.793957277332649
7.200000000000739,0.22366394124145286,-0.8440003299403496
7.400000000000806,0.1793547629253991,-0.8768197972642982
7.600000000000873,0.12257644688865406,-0.879575878945277
7.8000000000009395,0.07013398993441283,-0.8672738899888731
8.000000000001005,0.016033046640897046,-0.8414561953177467
8.200000000000895,-0.04087052980001026,-0.8085594904792615
8.400000000000784,-0.0961726250652194,-0.7756805392477433
8.600000000000673,-0.1499305513161219,-0.7428113390247079
8.800000000000562,-0.20334097817483035,-0.7021236470309533
9.000000000000451,-0.2500965605362484,-0.675676730826896
9.20000000000034,-0.2892099873925734,-0.6448726648412274
9.40000000000023,-0.3060764266249083,-0.6041128646907906
9.600000000000119,-0.30655672788678734,-0.5438798232318699
9.800000000000008,-0.29784879711405493,-0.4927926104455215
10.000999999999896,-0.28139657404717705,-0.44578355987634233
10.200999999999786,-0.2624749526313633,-0.4061600399096529
10.400999999999675,-0.23927768430194182,-0.36879468081583744
10.600999999999564,-0.19851661995657177,-0.32732203948382743
10.800999999999453,-0.1454690577788244,-0.2922147877401105
11.000999999999342,-0.08715076028148591,-0.27632572492354357
11.200999999999231,-0.036992010149021606,-0.2782943030303071
11.40099999999912,0.010781482974390622,-0.293511527692066
11.60099999999901,0.054772884148983514,-0.3111861085826692
11.800999999998899,0.10220063432119936,-0.33625383609528714
12.000999999998788,0.1530783365173671,-0.3710234225124569
12.200999999998677,0.1919013571282968,-0.41928436217584625
12.400999999998566,0.20669201111014993,-0.4806971631916058
12.600999999998455,0.2022114372703207,-0.5382486185852354
12.800999999998345,0.18507089268619792,-0.6010879489978112
13.000999999998234,0.15647859535080536,-0.6670812323409647
13.200999999998123,0.11367231234321215,-0.7347816399443895
13.400999999998012,0.06623807302501662,-0.8034344538198187
13.600999999997901,0.013350910921035599,-0.8706585776729391
13.80099999999779,-0.04177923596336915,-0.9174769453505178
14.00099999999768,-0.09179858047442219,-0.9393476260380019
14.200999999997569,-0.13060826079184537,-0.9387315318821349
14.400999999997458,-0.16666237903985184,-0.9282619247215587
14.600999999997347,-0.20963722335283555,-0.9110062359386458
14.800999999997236,-0.25956088168350944,-0.8878077664126115
15.000999999997125,-0.3164966940219583,-0.8630421902482699
15.200999999997014,-0.3752993725139575,-0.8341234530693774
15.400999999996904,-0.43647151313857835,-0.7979500424274302
15.600999999996793,-0.5030844616236538,-0.7549583860056902
15.800999999996682,-0.5682498994157447,-0.7060232001316258
16.000999999996573,-0.6229076451397244,-0.671605814026547
16.200999999996817,-0.6774460950423494,-0.641204796129427
16.40099999999706,-0.7366474015166071,-0.6061128728440217
16.600999999997306,-0.7959878261589177,-0.5667271111570846
16.80099999999755,-0.8581794511002198,-0.5151852776256701
17.000999999997795,-0.9206948225287769,-0.4561196666183467
17.20099999999804,-0.9582592568025643,-0.394636988260567
17.400999999998284,-0.9617267421269874,-0.3289373105500744
17.60099999999853,-0.9411060368202624,-0.26146943190382554
17.800999999998773,-0.9136312366837953,-0.19996888718304753
18.000999999999017,-0.8820907989358985,-0.1397682997639236
18.20099999999926,-0.8475162963649342,-0.08683808549608862
18.400999999999506,-0.7976842955183514,-0.048637951037238496
18.60099999999975,-0.7404771679056529,-0.040318276618848896
18.799999999999994,-0.6885681355426917,-0.0498450662365751
19.000000000000238,-0.6450016651029136,-0.062059600877024015
19.200000000000482,-0.6070584205192596,-0.07993290604089129
19.400000000000727,-0.5621413141202006,-0.10394725196760372
19.60000000000097,-0.5091195023760638,-0.13588729291194016
19.800000000001216,-0.4529609743107616,-0.16669720248712083
20.00000000000146,-0.3988794392603792,-0.19735751263113582
