Time (s),X (m),Y (m)
0.001,-0.0005462407427453492,-0.00035278531233166996
0.20000000000000015,0.0006846903586167127,-0.00012514743054215159
0.4000000000000003,0.0017162644573084922,0.0004566026327757225
0.6000000000000004,0.00302294599186369,0.0017014313564521425
0.8000000000000006,0.005956055864747021,0.0031338135432341513
1.0000000000000007,0.009733863170023614,0.004642012132693055
1.2009999999999785,0.012980195219779632,0.006481118330877313
1.4009999999999565,0.016068054637977325,0.007920190168483327
1.6009999999999345,0.01857482316120703,0.009879141320264602
1.8009999999999124,0.02049101607029241,0.011974482778871975
2.0009999999998906,0.02412497220792246,0.014274399225575836
2.2009999999998686,0.02512807457920965,0.01721400534349042
2.4009999999998466,0.026024149950144085,0.018991699300594498
2.6009999999998246,0.024989459692035757,0.016481760348969646
2.8009999999998025,0.028249987586415577,0.01728484853929246
3.0009999999997805,0.0334473638062954,0.020802647698239453
3.2009999999997585,0.03831629091078269,0.024864916967504272
3.4009999999997365,0.04093593514293822,0.027885060453397063
3.6009999999997144,0.04420775886061937,0.03068912270073224
3.8009999999996924,0.04820196565091155,0.03409336483431104
4.000999999999671,0.05344202049591644,0.0382801007788544
4.200999999999738,0.058686762033974625,0.04080684155970262
4.400999999999804,0.06402703455272986,0.045908182295525575
4.600999999999871,0.06831412026378623,0.051079684235600505
4.800999999999938,0.07367747165978004,0.057325161444184
5.000000000000004,0.07863607061512679,0.061723159877844755
5.200000000000071,0.08324854608327817,0.06574606887670452
5.400000000000138,0.08671019548310034,0.06971512666118487
5.600000000000205,0.09244669897936016,0.07462079707557914
5.800000000000272,0.097440435899491,0.08014272954512963
6.000000000000338,0.10313685865580802,0.08549684607250246
6.200000000000405,0.10769377422808533,0.08951593031400017
6.400000000000472,0.1136416658962583,0.09663190973303065
6.600000000000539,0.11880350748370787,0.10384120142377552
6.800000000000606,0.12345381481163163,0.10907658721863274
7.000000000000672,0.12837846938642278,0.11594018228323466
7.200000000000739,0.13284342397343502,0.12184917937993232
7.400000000000806,0.13762690405393715,0.12828936028876725
7.600000000000873,0.1424335128047427,0.1352636538471716
7.8000000000009395,0.14688887731864225,0.14199304500987292
8.000000000001005,0.15075391724149004,0.14802937407203884
8.200000000000895,0.15500145051548828,0.15241721390002602
8.400000000000784,0.15882235433750658,0.15617062636923426
8.600000000000673,0.1638124075774338,0.1644490464485834
8.800000000000562,0.16710533645506798,0.17036843831334644
9.000000000000451,0.17118747184925184,0.17326131394863792
9.20000000000034,0.17565574872566891,0.18007094363816986
9.40000000000023,0.1796108934523973,0.1865419270234175
9.600000000000119,0.18232052101099974,0.19452683155431685
9.800000000000008,0.18556615848571964,0.20134690012213244
10.000999999999896,0.18892649407726111,0.20890044356347875
10.200999999999786,0.19233974702590959,0.21645819114422227
10.400999999999675,0.19553387944357928,0.22401953586100048
10.600999999999564,0.1976148325636845,0.23409125836876676
10.800999999999453,0.2007061472039593,0.24058486751594832
11.000999999999342,0.20267204620273946,0.24970358873098517
11.200999999999231,0.20478964788099396,0.25696322280531797
11.40099999999912,0.20648452492456904,0.2662509016381463
11.60099999999901,0.20743873351640502,0.2704376705926881
11.800999999998899,0.21072753336432437,0.2743609801337584
12.000999999998788,0.21197532080800977,0.2834003253488949
12.200999999998677,0.21331956166862254,0.2907254329542294
12.400999999998566,0.21276348989575727,0.3000747482023371
12.600999999998455,0.21305790535410293,0.3050669974160024
12.800999999998345,0.21418062155536427,0.31459343666946504
13.000999999998234,0.21457758203149777,0.3262328349663059
13.200999999998123,0.21484160290715448,0.33470026453877233
13.400999999998012,0.21457256361111302,0.34474398975224635
13.600999999997901,0.2152966589945955,0.3545691548104896
13.80099999999779,0.21448348002342152,0.36198414986765803
14.00099999999768,0.21244315806199388,0.3691273126451485
14.200999999997569,0.21110100658972042,0.38099761201102494
14.400999999997458,0.20782312078935322,0.38972049519608554
14.600999999997347,0.20695320679982604,0.396522647925193
14.800999999997236,0.2051554931391299,0.4030973275315714
15.000999999997125,0.20325795920757697,0.40998406297152445
15.200999999997014,0.20094610612918978,0.4161167358131786
15.400999999996904,0.1985219521637031,0.42421017580280285
15.600999999996793,0.19612508091876268,0.43064551399471274
15.800999999996682,0.19406479878153582,0.43630534471871163
16.000999999996573,0.19140367829637905,0.44291386199646926
16.200999999996817,0.18819917018102755,0.4507755547577516
16.40099999999706,0.18457515642077918,0.46206272123189607
16.600999999997306,0.18126374140399143,0.47084352884937514
16.80099999999755,0.17913912702654197,0.4762370524967864
17.000999999997795,0.17574664947305277,0.4841558363803516
17.20099999999804,0.17340262945563564,0.4889504952874153
17.400999999998284,0.1699347424568084,0.4965702675246425
17.60099999999853,0.17038373955180178,0.4963614427385862
17.800999999998773,0.17078026413034236,0.4967067357771479
18.000999999999017,0.17105808538430117,0.49651327275606555
18.20099999999926,0.1708198599924032,0.49849453307663727
18.400999999999506,0.1678875344332508,0.5062748875592471
18.60099999999975,0.1629390446734109,0.5179380707052418
18.799999999999994,0.15803942051315886,0.5242580329396307
19.000000000000238,0.154477518707146,0.5313975802707035
19.200000000000482,0.14899386630235886,0.5406022938091796
19.400000000000727,0.14535194545094313,0.547329030155627
19.60000000000097,0.13958915531464697,0.5554851621246534
19.800000000001216,0.13292399944891975,0.562921919220257
20.00000000000146,0.12712333896994485,0.5700851389957298
