Time (s),X (m),Y (m)
0.001,0.0007758142491328282,0.0009692696795465077
0.20000000000000015,0.000841046380262264,-5.2486920666346246e-05
0.4000000000000003,0.0014672751723593216,0.00016145764610539534
0.6000000000000004,0.002673426309021183,0.0005975557831324484
0.8000000000000006,0.0036285596567384574,6.374745429250083e-05
1.0000000000000007,0.0037847583499495932,-0.0002522648284543475
1.2009999999999785,0.00520721623335567,-0.00264058376530968
1.4009999999999565,0.006961505046697702,-0.0012677976880852973
1.6009999999999345,0.010536443394387649,0.00014719916742260384
1.8009999999999124,0.01425029270794124,0.0024403441234300436
2.0009999999998906,0.017588992249602364,0.003752694864493196
2.2009999999998686,0.02084803083837541,0.006012455133980364
2.4009999999998466,0.02407883273881686,0.008550855040786948
2.6009999999998246,0.027091631949178515,0.009793237658368835
2.8009999999998025,0.030025172691481007,0.01179313231725131
3.0009999999997805,0.033880425918089686,0.014120939583446176
3.2009999999997585,0.03752656886178527,0.017395461586562688
3.4009999999997365,0.0410530508039661,0.01622017819817195
3.6009999999997144,0.043698173376104564,0.018084774348634414
3.8009999999996924,0.048268835572072934,0.01837794244807375
4.000999999999671,0.05201964218474335,0.020085332184570075
4.200999999999738,0.05519996921908157,0.018818667185157567
4.400999999999804,0.05955197077294538,0.021038653724181622
4.600999999999871,0.06245465463171518,0.023365163442376605
4.800999999999938,0.06453115727070728,0.026123510992549937
5.000000000000004,0.06736393493884538,0.02950909571748797
5.200000000000071,0.07132698584186457,0.03366030162469325
5.400000000000138,0.07473259006170929,0.03754674910534825
5.600000000000205,0.07874040657587382,0.03983614463372375
5.800000000000272,0.08153555271059372,0.04441508289021067
6.000000000000338,0.08501928989624537,0.0492176645918111
6.200000000000405,0.08863217320038716,0.0536210528038347
6.400000000000472,0.09140448309706167,0.058580129218235244
6.600000000000539,0.09395917985551173,0.0636540786075162
6.800000000000606,0.09534654790651065,0.06907617164838853
7.000000000000672,0.09602750698235332,0.07529284521236192
7.200000000000739,0.09651415158498558,0.08151656078983617
7.400000000000806,0.09628586695905507,0.08803953622265981
7.600000000000873,0.09700498937205204,0.09258639882853778
7.8000000000009395,0.0958742989923008,0.09954500966876427
8.000000000001005,0.09559549365206128,0.10538647547536392
8.200000000000895,0.09321239017118407,0.11125811831499474
8.400000000000784,0.08992537056483771,0.11705193679509404
8.600000000000673,0.08445958559541039,0.12349580057035335
8.800000000000562,0.08402912492855699,0.12915913303967105
9.000000000000451,0.08233315716264666,0.13468453588796495
9.20000000000034,0.08334845085760147,0.13930583196731747
9.40000000000023,0.07761291077859624,0.14569027869566575
9.600000000000119,0.07683662656569426,0.15135778492808202
9.800000000000008,0.07538358784630449,0.15735480574072855
10.000999999999896,0.07396702782291745,0.1635335112245726
10.200999999999786,0.07150657645485077,0.17049579420158753
10.400999999999675,0.06921719451102366,0.1773068960616404
10.600999999999564,0.06589374326342852,0.18320409263792262
10.800999999999453,0.06293924434322733,0.18915205768209306
11.000999999999342,0.060355796448750054,0.19548561796576702
11.200999999999231,0.054390370989911646,0.20117842772175223
11.40099999999912,0.05119129180681648,0.20780443129083112
11.60099999999901,0.04721272221690102,0.21237771177876336
11.800999999998899,0.04261616586993022,0.2176681851537169
12.000999999998788,0.03666509230556058,0.22121559450012293
12.200999999998677,0.029507232478809407,0.22459074508312113
12.400999999998566,0.022925819997355424,0.22812411760880136
12.600999999998455,0.01596702331635547,0.23107423458866216
12.800999999998345,0.008391031224014689,0.23279208518209926
13.000999999998234,0.0009847529896704385,0.23455942874987892
13.200999999998123,-0.0064024823019420505,0.23569743653631714
13.400999999998012,-0.013614401354983588,0.2365039567948974
13.600999999997901,-0.021975525591578608,0.2339821585170592
13.80099999999779,-0.02707553456276465,0.23485758934532056
14.00099999999768,-0.03366647864314693,0.23495290485392292
14.200999999997569,-0.040048575940476006,0.23530001056726504
14.400999999997458,-0.04609587906106715,0.2333281856884205
14.600999999997347,-0.05402399845949702,0.23075837185512452
14.800999999997236,-0.06150802183419281,0.22839660427700792
15.000999999997125,-0.06792156086256872,0.22701692710662752
15.200999999997014,-0.07505057248254933,0.22335089789917423
15.400999999996904,-0.08011467057024425,0.2203145159325841
15.600999999996793,-0.08692989326888045,0.21502408213160254
15.800999999996682,-0.09397409530047936,0.20983942441666475
16.000999999996573,-0.10112561396254101,0.20631125120627752
16.200999999996817,-0.10878748209371719,0.20335506200290718
16.40099999999706,-0.11726130781682677,0.20023136870507818
16.600999999997306,-0.12329234727640266,0.1975759615412095
16.80099999999755,-0.13099771821857692,0.19359424180314103
17.000999999997795,-0.1386634953657155,0.18958573369280896
17.20099999999804,-0.1439967465176686,0.1863813505055609
17.400999999998284,-0.15005456618108387,0.18120548188548213
17.60099999999853,-0.1561676979029864,0.17653106154183007
17.800999999998773,-0.16088738472708472,0.1704444937200667
18.000999999999017,-0.16521825874766297,0.16408392703422273
18.20099999999926,-0.16954775762782784,0.1571940449434617
18.400999999999506,-0.17010053531096306,0.14893469387802652
18.60099999999975,-0.17297827029813576,0.1423231043058303
18.799999999999994,-0.17333554412250832,0.13567995151858692
19.000000000000238,-0.17386720965700492,0.13030757146863878
19.200000000000482,-0.1730370066706614,0.12322752953754214
19.400000000000727,-0.17417546009459603,0.11542201872936135
19.60000000000097,-0.16976429218180447,0.10645396853912785
19.800000000001216,-0.17160597635359046,0.1005985041616548
20.00000000000146,-0.16834652192200789,0.09267536367423272
