Time (s),X (m),Y (m)
0.001,0.00015606349793537,0.0009963285817120476
0.20000000000000015,0.0011257469441118314,-0.001066637252232249
0.4000000000000003,0.003793242496064572,0.0047743009367084074
0.6000000000000004,0.008988595594116683,0.011751306015515885
0.8000000000000006,0.015977212063777738,0.0007882242748966773
1.0000000000000007,0.025899609687245778,-0.00379294134730223
1.2009999999999785,0.03751972347503625,0.001887816779905271
1.4009999999999565,0.050735378420526445,0.003648175985427502
1.6009999999999345,0.06799297581461201,-0.0023961487803707228
1.8009999999999124,0.08687665132270844,-0.013207670068888662
2.0009999999998906,0.1059559509613673,-0.01561948778344449
2.2009999999998686,0.1278500045248482,0.00013203682539860792
2.4009999999998466,0.1483830182055397,0.005803569421197092
2.6009999999998246,0.16808199296963056,0.01318356496214054
2.8009999999998025,0.1886702128671251,0.01914370705499186
3.0009999999997805,0.21112738835771488,0.012404452146552242
3.2009999999997585,0.23428611990722698,0.009881689881355557
3.4009999999997365,0.26143783514917124,0.017722109720628865
3.6009999999997144,0.2850275717860614,0.01954693455449078
3.8009999999996924,0.30687160934230195,0.007632585220334379
4.000999999999671,0.32845428548992617,0.002234799407871314
4.200999999999738,0.35357267733070874,-0.011212019723786344
4.400999999999804,0.3762359174155662,-0.028123609722867593
4.600999999999871,0.393879733938369,-0.04074548692323444
4.800999999999938,0.4158577129867728,-0.038472341251026394
5.000000000000004,0.43461467073711885,-0.04660549203640903
5.200000000000071,0.45909895372784587,-0.055512158956071284
5.400000000000138,0.48555725603149336,-0.05010451271410588
5.600000000000205,0.5144895646545248,-0.04395936391392011
5.800000000000272,0.5439331405121097,-0.05314888486976683
6.000000000000338,0.5780369971323658,-0.061718424545674735
6.200000000000405,0.6129854287384436,-0.06783783379216239
6.400000000000472,0.6448898451132573,-0.0781701263486152
6.600000000000539,0.6778001701787605,-0.06591516885248054
6.800000000000606,0.713234470086937,-0.06292887007810898
7.000000000000672,0.7436447378506652,-0.07653408215005258
7.200000000000739,0.7696600298667109,-0.0921114961187046
7.400000000000806,0.7999184767985719,-0.103590007947622
7.600000000000873,0.8286330971273949,-0.11555467384477858
7.8000000000009395,0.8537333956006303,-0.13322865215024793
8.000000000001005,0.8862822251984357,-0.15059540201998173
8.200000000000895,0.9145182491381186,-0.166870725434721
8.400000000000784,0.9385773760581455,-0.17484805919767768
8.600000000000673,0.9703413825510072,-0.17705946319056406
8.800000000000562,1.0021479835535472,-0.18496607612863034
9.000000000000451,1.0262631788180383,-0.18929409079998383
9.20000000000034,1.0551159717538923,-0.1921907374103904
9.40000000000023,1.0808565023229069,-0.206093459675809
9.600000000000119,1.1026427103761902,-0.2213211221444224
9.800000000000008,1.1258641223974915,-0.23678661455024366
10.000999999999896,1.1534840878733958,-0.25304227269781193
10.200999999999786,1.1855008473876185,-0.2535984883590334
10.400999999999675,1.2188762487144216,-0.2601984926803902
10.600999999999564,1.2492297163301136,-0.2713151402983579
10.800999999999453,1.2766171529327275,-0.29214308852049775
11.000999999999342,1.3058301009784756,-0.30757862071262193
11.200999999999231,1.3397001247557412,-0.31641233157649573
11.40099999999912,1.37410147723333,-0.3252690065055059
11.60099999999901,1.3992618007366109,-0.3523253668986185
11.800999999998899,1.4249829573541521,-0.37664452462625536
12.000999999998788,1.451161121542393,-0.39558912614130065
12.200999999998677,1.478796322077897,-0.415278480281379
12.400999999998566,1.5005824057952173,-0.4447522163303117
12.600999999998455,1.520998434796348,-0.47499002560324044
12.800999999998345,1.5283161598985626,-0.5088635282334348
13.000999999998234,1.5355361668558216,-0.5468683630852601
13.200999999998123,1.53077404254003,-0.5805092724390578
13.400999999998012,1.5250026845803313,-0.6132874861713252
13.600999999997901,1.5109881337305027,-0.6413308995698845
13.80099999999779,1.4863654728823772,-0.660662643289961
14.00099999999768,1.4574251964231568,-0.668370356301728
14.200999999997569,1.426555289540094,-0.6679159664470821
14.400999999997458,1.3917846168915256,-0.6621113565365596
14.600999999997347,1.3649038916402683,-0.6481731181208984
14.800999999997236,1.3507790629152698,-0.6240116372790774
15.000999999997125,1.3354178089002988,-0.6014113298284689
15.200999999997014,1.3168249380461654,-0.5790086773766798
15.400999999996904,1.3012767992010847,-0.5530765448168434
15.600999999996793,1.2958114727390406,-0.5231441138432203
15.800999999996682,1.2960333433355689,-0.4890223140261599
16.000999999996573,1.28993001310843,-0.4492801969916455
16.200999999996817,1.2932210511621023,-0.40865932316157705
16.40099999999706,1.306303488036795,-0.37103980689380256
16.600999999997306,1.3050432979344946,-0.33396950416782617
16.80099999999755,1.30590011245511,-0.2956942186544699
17.000999999997795,1.3081590930949665,-0.254045008113752
17.20099999999804,1.311594019633658,-0.2136516815926043
17.400999999998284,1.3265262045784523,-0.18199556113128196
17.60099999999853,1.340049544302538,-0.1532955376637178
17.800999999998773,1.3522062003379853,-0.123019387533071
18.000999999999017,1.358281331508576,-0.08537090604028709
18.20099999999926,1.3622978053587627,-0.05510157146942766
18.400999999999506,1.367551510142191,-0.02679046967176097
18.60099999999975,1.3902943259489238,0.0010832775092602606
18.799999999999994,1.4055401718535998,0.028433465656612558
19.000000000000238,1.4067614088072127,0.05474250075100843
19.200000000000482,1.4197461770236797,0.08130317591070728
19.400000000000727,1.4353012156944092,0.10129796575182481
19.60000000000097,1.4326929985097259,0.12769146128581582
19.800000000001216,1.4390034963524927,0.15315413833939528
20.00000000000146,1.4596865278717897,0.17569508031165712
