Time (s),X (m),Y (m)
0.001,0.0006021427340131596,0.0010158048217711127
0.20000000000000015,0.0008641251795843382,-8.273335538252543e-05
0.4000000000000003,0.0018098331331801844,0.0003149913309104448
0.6000000000000004,0.00465444787962357,0.00012268212638683068
0.8000000000000006,0.00891353456996795,0.005640076176472641
1.0000000000000007,0.012302170922756255,0.006338326926758951
1.2009999999999785,0.014593249222124006,0.01005347589559554
1.4009999999999565,0.018743861887213772,0.011368633016647558
1.6009999999999345,0.022123447054197533,0.006758509547774941
1.8009999999999124,0.025633876557846522,0.006982828863350365
2.0009999999998906,0.028514651555075588,0.007663652357975051
2.2009999999998686,0.0329597728074192,0.009595097040267793
2.4009999999998466,0.03815105869637034,0.013232698181710578
2.6009999999998246,0.04265015366690555,0.015077060824756941
2.8009999999998025,0.046116021537220005,0.017365878710942764
3.0009999999997805,0.04959221215675974,0.017622731439362212
3.2009999999997585,0.05588732170991266,0.015436136346855008
3.4009999999997365,0.061790716698329515,0.014073933426682946
3.6009999999997144,0.06650182812071362,0.011161005593327817
3.8009999999996924,0.07264652803798685,0.008138215215802042
4.000999999999671,0.07805616665337652,0.005791952639268069
4.200999999999738,0.08365293839997813,0.004440551343651729
4.400999999999804,0.08940023375401354,0.003752384193814571
4.600999999999871,0.09502196117581532,0.0004492104217274049
4.800999999999938,0.10203810137175427,-0.0026245180427009675
5.000000000000004,0.10812451164266604,-0.00449903905048649
5.200000000000071,0.11441385086920532,-0.005815432127234181
5.400000000000138,0.12227118994059889,-0.009612297887680529
5.600000000000205,0.1289995474773991,-0.009204271492824571
5.800000000000272,0.13457561374018415,-0.011704835938581045
6.000000000000338,0.1406796124497716,-0.011671324705993911
6.200000000000405,0.14715126568621903,-0.013791017604948944
6.400000000000472,0.15240826670268084,-0.012674792930702443
6.600000000000539,0.15866708821910186,-0.007735480040306265
6.800000000000606,0.16561043675621448,-0.003173863880801248
7.000000000000672,0.17158915259879864,-0.00309372091461177
7.200000000000739,0.17585688718992684,-0.0011264990823435027
7.400000000000806,0.18037063817441595,0.004436123652779095
7.600000000000873,0.18656534156331053,0.0068368083871716955
7.8000000000009395,0.1920324918750672,0.010709273283718169
8.000000000001005,0.19960783824152606,0.01387364786626669
8.200000000000895,0.20510440815518113,0.01790487262938593
8.400000000000784,0.21206258129214203,0.021767143429742012
8.600000000000673,0.21711891652064497,0.02571688245394452
8.800000000000562,0.22124959090046709,0.03235421986261748
9.000000000000451,0.22493327228432503,0.03693173442204772
9.20000000000034,0.23110880901638084,0.0393324882674808
9.40000000000023,0.23479331867072326,0.04454375923977249
9.600000000000119,0.23889470034410318,0.049487311334601033
9.800000000000008,0.24315127496499,0.0547162437818222
10.000999999999896,0.24452108214025728,0.06307862890759676
10.200999999999786,0.242773674669236,0.07008696807569129
10.400999999999675,0.2404308265300279,0.07841443649968083
10.600999999999564,0.24447614973632267,0.08384199457917782
10.800999999999453,0.24404026359325537,0.09080929804800111
11.000999999999342,0.2398922714131934,0.09867870770609372
11.200999999999231,0.2370458487177031,0.10716871421756889
11.40099999999912,0.23597655737568998,0.11695073437739967
11.60099999999901,0.23556544270556523,0.12270281664661163
11.800999999998899,0.23379232545257228,0.13223006829916778
12.000999999998788,0.23356541562185554,0.14178461790833777
12.200999999998677,0.22876905916022458,0.15106544085854445
12.400999999998566,0.22880831116292377,0.1602602955676689
12.600999999998455,0.2274124939756643,0.17034754080366984
12.800999999998345,0.2285147352097821,0.17917714579640395
13.000999999998234,0.2305731987136079,0.18800533865337746
13.200999999998123,0.22855218777736014,0.19477536781897753
13.400999999998012,0.22873248866206983,0.20102246274922794
13.600999999997901,0.22588350991226422,0.20809682384738637
13.80099999999779,0.2192258759877803,0.21680558873391284
14.00099999999768,0.21894983896215522,0.22291023948372882
14.200999999997569,0.21492268280479587,0.23028521957161335
14.400999999997458,0.21597007912662958,0.23889616396908614
14.600999999997347,0.21593001576726878,0.24643220391440032
14.800999999997236,0.21797132018639442,0.25291300431444524
15.000999999997125,0.21490194346337807,0.2608206816640362
15.200999999997014,0.20833741364588243,0.26735122559213104
15.400999999996904,0.20140470121552292,0.27508364757208115
15.600999999996793,0.19501499110721118,0.28356380595300146
15.800999999996682,0.19383202150318496,0.2905294007038443
16.000999999996573,0.1901901980805911,0.2969870671512925
16.200999999996817,0.1864381408288785,0.3042541540530686
16.40099999999706,0.1817961091358298,0.3125311803519843
16.600999999997306,0.17815721435378074,0.3202597943357206
16.80099999999755,0.17155627271682175,0.328136885371234
17.000999999997795,0.16835905270754112,0.33528661418308825
17.20099999999804,0.16327295212005782,0.3416968004932809
17.400999999998284,0.15887962683102735,0.3485005161776575
17.60099999999853,0.15544466521550132,0.3571344926277521
17.800999999998773,0.15231167120041678,0.36377073984933145
18.000999999999017,0.14708369508198982,0.3704440491444784
18.20099999999926,0.1434014424446324,0.3747256281051916
18.400999999999506,0.13780271251716544,0.38047309904749327
18.60099999999975,0.129983690603953,0.3850040796349711
18.799999999999994,0.12428977639507835,0.3920361263233072
19.000000000000238,0.11893567790131529,0.3961388131586676
19.200000000000482,0.11105426021168589,0.40114663815250545
19.400000000000727,0.10326291016307303,0.4029926883346644
19.60000000000097,0.09519669596230193,0.40471309158166197
19.800000000001216,0.08921743148275203,0.4091114172088166
20.00000000000146,0.08093205858745559,0.4104774822128111
