Time (s),X (m),Y (m)
0.001,-0.00023999057263828476,0.0007901558823345071
0.20000000000000015,0.001492503094714114,-0.0008318088041450553
0.4000000000000003,0.002099168288309155,-0.00012587915868604477
0.6000000000000004,0.006557464861427478,-0.004030066498550462
0.8000000000000006,0.017072673832642122,-0.01498920369813029
1.0000000000000007,0.02785205400034272,-0.020217044374532606
1.2009999999999785,0.03880060128382079,-0.013954391324860116
1.4009999999999565,0.04923263496043222,-0.0064967129236209115
1.6009999999999345,0.06379434066522904,0.0030420655281290523
1.8009999999999124,0.08752540529624156,0.012388763745867675
2.0009999999998906,0.1047308924115367,0.021165008488245735
2.2009999999998686,0.1255899077836193,0.027924665510186044
2.4009999999998466,0.1443390189015485,0.03246944748838002
2.6009999999998246,0.1568168355800793,0.040484810386918986
2.8009999999998025,0.17704850561043656,0.04938400604254245
3.0009999999997805,0.21216645741985657,0.055491042478747414
3.2009999999997585,0.24282437918746358,0.06127022650179274
3.4009999999997365,0.27068173741961227,0.07167529547461174
3.6009999999997144,0.29067487011355314,0.08415260870681349
3.8009999999996924,0.30536082159907896,0.09875302580253775
4.000999999999671,0.32240178393882835,0.10354306291789069
4.200999999999738,0.3360272423245029,0.11047938717900148
4.400999999999804,0.3622062449055263,0.11829769398409817
4.600999999999871,0.3939365572804622,0.1287980785499299
4.800999999999938,0.4227974722006664,0.1403143344082015
5.000000000000004,0.45782836697847734,0.14577725051359447
5.200000000000071,0.4908045470013289,0.15189157876294657
5.400000000000138,0.5347232947175936,0.14870560484739623
5.600000000000205,0.5694600395053638,0.14856138208936143
5.800000000000272,0.617769399639477,0.13644521156531722
6.000000000000338,0.6744350985560328,0.11898182185730867
6.200000000000405,0.7370069213881096,0.11076924858634064
6.400000000000472,0.7925871554972707,0.10835004237529564
6.600000000000539,0.8439503701550068,0.10407567735208588
6.800000000000606,0.8905367652850167,0.09775270702825181
7.000000000000672,0.9422700658811073,0.09235628117510425
7.200000000000739,0.98610939970833,0.08741902414439429
7.400000000000806,1.034898751377809,0.0836626771074771
7.600000000000873,1.0772318170187427,0.08572677396098745
7.8000000000009395,1.11656140224402,0.0958395397983206
8.000000000001005,1.1623553938774043,0.1055802859321258
8.200000000000895,1.2090918342064185,0.11329062587791741
8.400000000000784,1.2598880339089504,0.10584640423104057
8.600000000000673,1.323068101443632,0.08172045173543419
8.800000000000562,1.3891711045857364,0.055687319513284456
9.000000000000451,1.4537893458490372,0.03306420048548202
9.20000000000034,1.5067063106252385,0.021754275352223584
9.40000000000023,1.5654545917866238,0.0138762433367754
9.600000000000119,1.6168919928592898,0.006783473793314345
9.800000000000008,1.668993048217329,0.010192951673115139
10.000999999999896,1.7221141524570482,0.013707263238850634
10.200999999999786,1.7725067751890782,0.014499168857848094
10.400999999999675,1.8114276692737252,0.026762328666075443
10.600999999999564,1.8516550090662822,0.03919585745045041
10.800999999999453,1.895812284517827,0.04787082647764919
11.000999999999342,1.9407039021811066,0.05586005064664105
11.200999999999231,2.009172849878931,0.05310980659163127
11.40099999999912,2.081682189221065,0.04689802194799048
11.60099999999901,2.1526207549415983,0.033440987634749376
11.800999999998899,2.216225270500128,0.0186963624596952
12.000999999998788,2.2672565182229314,0.013341358847816282
12.200999999998677,2.327698824981996,0.004979130214965541
12.400999999998566,2.3792469724990593,0.0006444861281607576
12.600999999998455,2.4329844729064516,0.00239702709943542
12.800999999998345,2.488257689352551,0.0040974508674011265
13.000999999998234,2.5362359592222465,0.00975344347401863
13.200999999998123,2.57367822843838,0.0168193720993242
13.400999999998012,2.6131017543069337,0.024440623730489396
13.600999999997901,2.654741583659589,0.03216990878471996
13.80099999999779,2.705782946713714,0.03172859435319918
14.00099999999768,2.756872691343887,0.02852052166394791
14.200999999997569,2.81003465602046,0.018964419531416293
14.400999999997458,2.8469524405419184,0.015054493395239685
14.600999999997347,2.889178451611743,0.012451640789941362
14.800999999997236,2.9314071828449046,0.010980612423330519
15.000999999997125,2.9762534757408443,0.013226330428314491
15.200999999997014,3.0291093075276585,0.01284193645679848
15.400999999996904,3.0860902584803607,0.00929904751418368
15.600999999996793,3.1490594179078686,-0.005040921055424689
15.800999999996682,3.2060427658029975,-0.01655801397096466
16.000999999996573,3.2693541564599036,-0.03700405729497619
16.200999999996817,3.327317995840964,-0.05837493926696252
16.40099999999706,3.382479338396012,-0.08844232388503269
16.600999999997306,3.429338121336782,-0.11688879631565771
16.80099999999755,3.4667255170961657,-0.15201996469813508
17.000999999997795,3.499838041532176,-0.1981168864647868
17.20099999999804,3.522821404329076,-0.2572744480866713
17.400999999998284,3.5409086228066005,-0.3090291258337652
17.60099999999853,3.545411588950587,-0.3710736303724023
17.800999999998773,3.5517723170103728,-0.42738289556536524
18.000999999999017,3.563115651712763,-0.47969344811120945
18.20099999999926,3.5746735785749615,-0.5237782605088516
18.400999999999506,3.586332167599506,-0.5678292499011041
18.60099999999975,3.593997017381173,-0.6196401647648125
18.799999999999994,3.5983564945329856,-0.6674716267920301
19.000000000000238,3.5967495635608278,-0.729809188320201
19.200000000000482,3.5918471898481767,-0.8091478999927199
19.400000000000727,3.587784213171258,-0.8938834041619071
19.60000000000097,3.5816187348124715,-0.9805840781623212
19.800000000001216,3.574183419632297,-1.0648999053122015
20.00000000000146,3.566967881196613,-1.1465234359764103
