Time (s),X (m),Y (m)
0.001,0.0006021427340131596,0.0010158048217711127
0.20000000000000015,0.001613498816280127,0.0013175356741237793
0.4000000000000003,0.008764141030965634,0.007643788499736841
0.6000000000000004,0.01844603223096916,0.012857285269283626
0.8000000000000006,0.025122472372492793,0.015506481962804857
1.0000000000000007,0.037537486301872564,0.012424257499138789
1.2009999999999785,0.045770217128324124,0.0018816432525706295
1.4009999999999565,0.0661055906100872,-0.010392982003532399
1.6009999999999345,0.09626334798638499,-0.029872199167817564
1.8009999999999124,0.12909280219166727,-0.0563921456326402
2.0009999999998906,0.15354261343273112,-0.08490365935153683
2.2009999999998686,0.17704082487429088,-0.11244710730602935
2.4009999999998466,0.19656497505591877,-0.1381860920011643
2.6009999999998246,0.20612205315789395,-0.15595134097487381
2.8009999999998025,0.20719371748259868,-0.1607325236553001
3.0009999999997805,0.1955112305636092,-0.1666788411813433
3.2009999999997585,0.17657215883929023,-0.16897617807907836
3.4009999999997365,0.1605442976097553,-0.15699094684955012
3.6009999999997144,0.147290390839569,-0.14106480210404382
3.8009999999996924,0.1071631626199079,-0.13765721871458697
4.000999999999671,0.07290706530376517,-0.1396407819497548
4.200999999999738,0.05161722408574796,-0.13096368741843298
4.400999999999804,0.03697789340090771,-0.10925613645250083
4.600999999999871,0.03255243117652143,-0.07253601732940812
4.800999999999938,0.0370627727439419,-0.025693455335653797
5.000000000000004,0.07246691584964138,0.016483743096283615
5.200000000000071,0.11501397060446665,0.0532613166286305
5.400000000000138,0.15864864051633334,0.06917662266430083
5.600000000000205,0.19864986331589093,0.05888006258279166
5.800000000000272,0.226258619765923,0.03160265919266863
6.000000000000338,0.25248012841112055,-0.0027288903967669226
6.200000000000405,0.2587805883858862,-0.02591551455160375
6.400000000000472,0.2501881898975239,-0.048814124889128875
6.600000000000539,0.2299268989508717,-0.07300595054494563
6.800000000000606,0.20609047322843377,-0.08831177079048226
7.000000000000672,0.17607838928897016,-0.08912311747450671
7.200000000000739,0.1409825631965049,-0.09889092703705783
7.400000000000806,0.10267089023801253,-0.11441146764425777
7.600000000000873,0.0643924703450546,-0.1196240812544619
7.8000000000009395,0.024247459026204114,-0.12431342281858486
8.000000000001005,-0.0063889460358795575,-0.12432632240829358
8.200000000000895,-0.04720377506187159,-0.12386723088245156
8.400000000000784,-0.08509777936440614,-0.11843462746615323
8.600000000000673,-0.12070103764474187,-0.1128801037383638
8.800000000000562,-0.15267004048947594,-0.09835169860787273
9.000000000000451,-0.1903833119602819,-0.06894996803723247
9.20000000000034,-0.21424941641214582,-0.0316951031029496
9.40000000000023,-0.24338585993439976,0.0274296063594089
9.600000000000119,-0.2821126035639626,0.09941555691515343
9.800000000000008,-0.316023019304331,0.1738407705927687
10.000999999999896,-0.3330751040649059,0.24477032698471282
10.200999999999786,-0.33691663541357186,0.29873712752374304
10.400999999999675,-0.32316510017661176,0.32877343008691734
10.600999999999564,-0.2879455795739149,0.372795412341604
10.800999999999453,-0.24569783984177704,0.4158093732112198
11.000999999999342,-0.19667127231445128,0.4507662421721743
11.200999999999231,-0.13878952042220016,0.4894978067106173
11.40099999999912,-0.08080952716263032,0.5145317641120924
11.60099999999901,-0.02708064980384232,0.527738337641264
11.800999999998899,0.025963062386500625,0.5285603995400863
12.000999999998788,0.08578962246165343,0.5311055151903252
12.200999999998677,0.14615895301670312,0.5377218098649129
12.400999999998566,0.20607820821558342,0.5616505243634081
12.600999999998455,0.26263871257051946,0.5802490073521012
12.800999999998345,0.3220456525863949,0.5881410261268635
13.000999999998234,0.3867977798107786,0.5903968592225985
13.200999999998123,0.4551167046546732,0.5809471362457526
13.400999999998012,0.518904229123818,0.5398129036907756
13.600999999997901,0.5722030885316339,0.47954741937008244
13.80099999999779,0.6094377434584822,0.41489987685297186
14.00099999999768,0.6144849010386508,0.3612729130162593
14.200999999997569,0.5914218424892121,0.3178708867088607
14.400999999997458,0.5507596229985116,0.2828713058210865
14.600999999997347,0.5230957094578325,0.23409966029609097
14.800999999997236,0.4943155260573927,0.18458777615547797
15.000999999997125,0.46780545680506497,0.13986346826808482
15.200999999997014,0.43678825732609267,0.10281906500856354
15.400999999996904,0.39307921760938425,0.06882690115331305
15.600999999996793,0.34967480290985936,0.05238303318988993
15.800999999996682,0.30371105634419776,0.06276396724831036
16.000999999996573,0.2613370884268085,0.09157186891470376
16.200999999996817,0.21805473417952345,0.1399010707011187
16.40099999999706,0.186201320800261,0.193411208278826
16.600999999997306,0.15620202384245832,0.2513667882184955
16.80099999999755,0.14371582597969432,0.29464152693795786
17.000999999997795,0.15872062928075253,0.3213057266194727
17.20099999999804,0.1992685007185471,0.3340567043999786
17.400999999998284,0.23968048370311715,0.3374238657214413
17.60099999999853,0.2746879410076432,0.31942213435971906
17.800999999998773,0.3106156984694167,0.2868849602083721
18.000999999999017,0.3501446206183808,0.23245734698024312
18.20099999999926,0.37581784268142293,0.1598991208515842
18.400999999999506,0.37496890402584077,0.09901363377114826
18.60099999999975,0.3494017666447927,0.058005405917708024
18.799999999999994,0.3228707645738073,0.03212121228676167
19.000000000000238,0.3066731394668328,0.031531550171529345
19.200000000000482,0.29022407459791255,0.04859045067508889
19.400000000000727,0.2723025219639677,0.07541208208847902
19.60000000000097,0.25639450949698606,0.11103981121663545
19.800000000001216,0.24838154435907547,0.1491644278756693
20.00000000000146,0.21981017697741081,0.19898911332339086
