Time (s),X (m),Y (m)
0.001,-9.270868745296317e-05,-0.0008932837685830058
0.20000000000000015,0.0007352843261421515,-0.00018082554161298647
0.4000000000000003,0.0012545268235437232,-3.9217651801067805e-05
0.6000000000000004,0.0020895498992063747,0.00046285573618486684
0.8000000000000006,0.0028792965695285024,0.0006790758553262814
1.0000000000000007,0.0037767271370794534,0.0010201781135812191
1.2009999999999785,0.004759108038699296,0.0015886013214487854
1.4009999999999565,0.005656778482840141,0.0020444636047291793
1.6009999999999345,0.006534751436857243,0.0024752224600277793
1.8009999999999124,0.007436824407350771,0.002941934835586751
2.0009999999998906,0.008384863641937967,0.003489193937829858
2.2009999999998686,0.0093715104665413,0.004100061248455197
2.4009999999998466,0.010378979760678511,0.0047474927545365815
2.6009999999998246,0.011392129771933424,0.005413726434229711
2.8009999999998025,0.012410047495081964,0.0060971546459360065
3.0009999999997805,0.013427382928065584,0.0067969214163665845
3.2009999999997585,0.014445156314500388,0.0075175148690932725
3.4009999999997365,0.015466759353786734,0.008260660578222011
3.6009999999997144,0.016488176813884713,0.009023140536477896
3.8009999999996924,0.017507315002296256,0.009801994020585576
4.000999999999671,0.018524197121015096,0.010595075276061778
4.200999999999738,0.019561433810536367,0.011401428790009832
4.400999999999804,0.020626719075760334,0.012221498259250561
4.600999999999871,0.021718972727978396,0.013054862905320375
4.800999999999938,0.022836689517842006,0.01390062632108153
5.000000000000004,0.0239686899166823,0.014728875136500338
5.200000000000071,0.025131644376955992,0.015596309873691615
5.400000000000138,0.02631392188293081,0.016473288570297
5.600000000000205,0.02751445120165099,0.01735897503276209
5.800000000000272,0.028731351141598367,0.018252722329635214
6.000000000000338,0.02996290499768197,0.019154040278237156
6.200000000000405,0.031198089253328815,0.02006303292334728
6.400000000000472,0.03242524296981142,0.020979182147987534
6.600000000000539,0.03364223226034044,0.02190189992442284
6.800000000000606,0.034842553111176545,0.022829348427702817
7.000000000000672,0.03600756325741389,0.023756652152964047
7.200000000000739,0.03713428838799511,0.02468389745370756
7.400000000000806,0.038222520628013845,0.025611474096980058
7.600000000000873,0.03927210786859564,0.02653943922412833
7.8000000000009395,0.040282710896898964,0.027467852944798095
8.000000000001005,0.04125439105356947,0.02839658209249991
8.200000000000895,0.042187040397492895,0.029325522836054357
8.400000000000784,0.04308032233139729,0.030254633369822745
8.600000000000673,0.04393409684980793,0.031183920418592657
8.800000000000562,0.04474865914168673,0.032113376256039806
9.000000000000451,0.04552395530986647,0.03304274597681827
9.20000000000034,0.046259716170729756,0.03397188230846147
9.40000000000023,0.046947687944142294,0.03490159950587795
9.600000000000119,0.04755529891951794,0.03583334503717159
9.800000000000008,0.048076517924204955,0.03676639656861335
10.000999999999896,0.0485105537975664,0.037728927921119364
10.200999999999786,0.04886251338890981,0.038663159463636194
10.400999999999675,0.04913522467691139,0.03959778136690311
10.600999999999564,0.04933165670562256,0.040532707360345976
10.800999999999453,0.049455895720537886,0.04146798385214099
11.000999999999342,0.04951195519903636,0.04240358626146588
11.200999999999231,0.049503375733357766,0.04333957303771754
11.40099999999912,0.04943355533536413,0.044275978392719115
11.60099999999901,0.049305619205450714,0.04521282802969018
11.800999999998899,0.049122887530382256,0.046150238727695275
12.000999999998788,0.04888940681138698,0.047088348278555105
12.200999999998677,0.04860860529036737,0.048027347365578225
12.400999999998566,0.04829096719664991,0.04896814650703938
12.600999999998455,0.04794759641859526,0.04991168218881731
12.800999999998345,0.04758027044807031,0.05085798640860934
13.000999999998234,0.047191811600052674,0.05180709111428465
13.200999999998123,0.046784888364254054,0.05275902547324431
13.400999999998012,0.046361154461604714,0.05371395547028905
13.600999999997901,0.045921881476826173,0.05467187378645402
13.80099999999779,0.045469238443481476,0.055632861556814524
14.00099999999768,0.045005447358828464,0.05659714324853648
14.200999999997569,0.04453205430459404,0.05756466525121268
14.400999999997458,0.04405120993322949,0.0585356096958473
14.600999999997347,0.04356315799667467,0.05951000129180335
14.800999999997236,0.04306795980295862,0.060487960196683045
15.000999999997125,0.042565665847811275,0.06146955244287709
15.200999999997014,0.0420563338843961,0.06245496667357458
15.400999999996904,0.04154006212707873,0.06344415350962998
15.600999999996793,0.04101675230802306,0.06443730537460797
15.800999999996682,0.040486446463201126,0.06543453375508143
16.000999999996573,0.03994906581867569,0.06643608945750294
16.200999999996817,0.03940460477068715,0.06744236143405301
16.40099999999706,0.03885309064750514,0.06845342666104821
16.600999999997306,0.03829451531541344,0.06946939474493076
16.80099999999755,0.03772889029185245,0.07049071491394761
17.000999999997795,0.037156098903241314,0.07151769840214849
17.20099999999804,0.036576086823589565,0.07255098299901977
17.400999999998284,0.03598868183156416,0.07359182779324258
17.60099999999853,0.03539379550412506,0.07464069408445646
17.800999999998773,0.03479140312482276,0.07569746103380183
18.000999999999017,0.034181379493837816,0.07676223464782671
18.20099999999926,0.03356378292029571,0.07783518151039663
18.400999999999506,0.03293859209341058,0.07891634715766051
18.60099999999975,0.032305787965301445,0.08000585798916092
18.799999999999994,0.0316801513949251,0.08107640292727249
19.000000000000238,0.031031883864310512,0.08218330261031674
19.200000000000482,0.03037558007954634,0.0832990189635398
19.400000000000727,0.029711186435393836,0.08442364178456167
19.60000000000097,0.029038713095390124,0.08555682515371284
19.800000000001216,0.028358235275915127,0.08669852399427366
20.00000000000146,0.027669771163367936,0.0878497350649054
