Time (s),X (m),Y (m)
0.001,0.001392298616347667,0.0003527853123316693
0.20000000000000015,0.0007960305067890136,-2.0262321233034723e-05
0.4000000000000003,0.002409057908408667,0.0011260909651687172
0.6000000000000004,0.004757977993522095,0.0017763022271620771
0.8000000000000006,0.013509286080509499,0.005671191580565875
1.0000000000000007,0.020147985993623992,0.008958895309517392
1.2009999999999785,0.028056459549907948,0.013956325748559886
1.4009999999999565,0.03305011801919397,0.020162526364294258
1.6009999999999345,0.03416026348295435,0.01995899391921978
1.8009999999999124,0.04433350679205571,0.02438222891822352
2.0009999999998906,0.05095998560789558,0.031161563464250735
2.2009999999998686,0.05533016143465296,0.03717836323573793
2.4009999999998466,0.060419147580186135,0.040339948183163485
2.6009999999998246,0.06780136288429141,0.048099648572760556
2.8009999999998025,0.07611151599336642,0.057155531460769786
3.0009999999997805,0.08311782244814518,0.0659525623358543
3.2009999999997585,0.09060265678666599,0.07688800962297486
3.4009999999997365,0.09932383160494895,0.0815309464670698
3.6009999999997144,0.11077000342079818,0.09108210923377405
3.8009999999996924,0.121619322526896,0.10360392373335857
4.000999999999671,0.13431527420682754,0.11335750712204645
4.200999999999738,0.14685849622882582,0.1277320330060291
4.400999999999804,0.1593463582091803,0.14070744169713212
4.600999999999871,0.172061158294328,0.1505450005281249
4.800999999999938,0.18178045257318198,0.158039219329725
5.000000000000004,0.19118536934015426,0.16702501596544841
5.200000000000071,0.20573056183099303,0.18333216677768557
5.400000000000138,0.21543180456942998,0.19381577505801373
5.600000000000205,0.22333693147879857,0.19971316794331415
5.800000000000272,0.22781241109665185,0.2058256019496773
6.000000000000338,0.23418777601343085,0.21521598670571582
6.200000000000405,0.24648340377549033,0.23325400802547425
6.400000000000472,0.2566182886485368,0.24725532952845997
6.600000000000539,0.2650831184540261,0.2607882582025913
6.800000000000606,0.2740621754057517,0.2774866486249526
7.000000000000672,0.2820638022914078,0.2922153213026066
7.200000000000739,0.28887097993512406,0.3040901636126047
7.400000000000806,0.2966920183829202,0.31732272340910167
7.600000000000873,0.30331676550326725,0.330528149513358
7.8000000000009395,0.3101029473825392,0.33522051260234587
8.000000000001005,0.31369547186697844,0.34656694825863893
8.200000000000895,0.3159982371153409,0.36008696544158
8.400000000000784,0.31911820413055975,0.3702571094723155
8.600000000000673,0.3238132257090105,0.3853572091517916
8.800000000000562,0.32731063806481175,0.39978705547371624
9.000000000000451,0.33182864831144276,0.4093811992978823
9.20000000000034,0.33480561885646887,0.42603887209354196
9.40000000000023,0.33804397994557167,0.439553905177792
9.600000000000119,0.3426765234239983,0.4450396957492877
9.800000000000008,0.34657700412913034,0.4600856693481333
10.000999999999896,0.3500394110367685,0.4691899511953493
10.200999999999786,0.35260825395838097,0.47953729646959387
10.400999999999675,0.3560517279878639,0.48964746135621445
10.600999999999564,0.35874705812566976,0.502295045307393
10.800999999999453,0.36102926720980427,0.5159943077143442
11.000999999999342,0.3619925169890629,0.533353971370845
11.200999999999231,0.36349976039192444,0.553813749303948
11.40099999999912,0.3656156215706816,0.5675301173103602
11.60099999999901,0.3666891454841316,0.581549787512773
11.800999999998899,0.36805526456790416,0.594545869719654
12.000999999998788,0.36985601051619665,0.604399215052323
12.200999999998677,0.3713557016016414,0.6158544346911325
12.400999999998566,0.3736755552767811,0.6329479467620718
12.600999999998455,0.37413759800345925,0.6487567615271077
12.800999999998345,0.37419063026946925,0.6699937377572497
13.000999999998234,0.37617131805003673,0.6816535811371937
13.200999999998123,0.3810625940993515,0.6932294171442819
13.400999999998012,0.3867554414076857,0.708796914305594
13.600999999997901,0.392402347289269,0.7199274511858602
13.80099999999779,0.3947671191854841,0.7359340329424169
14.00099999999768,0.3949482834426927,0.7533147363918018
14.200999999997569,0.39585224951513476,0.7613396887395942
14.400999999997458,0.40193871477555204,0.7660951121975171
14.600999999997347,0.4080879592845954,0.7709404307056194
14.800999999997236,0.40887789277964537,0.7898154991012315
15.000999999997125,0.4097843675559779,0.8074492870216182
15.200999999997014,0.4126100117302324,0.8186984853061546
15.400999999996904,0.41587481909201246,0.8316178886101886
15.600999999996793,0.41693096579678735,0.8474252056749083
15.800999999996682,0.41773895870876876,0.8617926446064014
16.000999999996573,0.4161270309060178,0.8764962398053591
16.200999999996817,0.414100123969494,0.8934823844043955
16.40099999999706,0.41247515409906094,0.9114826712036843
16.600999999997306,0.41073151206760417,0.9278971849466997
16.80099999999755,0.4094405920525847,0.9451186416348013
17.000999999997795,0.41047775304485357,0.9583952474452758
17.20099999999804,0.4128983857211474,0.9665712640988889
17.400999999998284,0.4119907007433966,0.9837708145558945
17.60099999999853,0.40915129881980955,1.0046135238316571
17.800999999998773,0.4095339520952489,1.018108681087358
18.000999999999017,0.41009840467437914,1.0296302151849228
18.20099999999926,0.4116587615130663,1.0413522264524153
18.400999999999506,0.41098407068135284,1.0606242033194353
18.60099999999975,0.41129179933662213,1.0758230792602923
18.799999999999994,0.40973028504627834,1.0910134133221567
19.000000000000238,0.4081811162371288,1.1010674367064115
19.200000000000482,0.4075046013396971,1.1133988429648551
19.400000000000727,0.4071587698232151,1.1264846973854847
19.60000000000097,0.40877740081420144,1.1392465435953236
19.800000000001216,0.4093944624217695,1.1520619386696305
20.00000000000146,0.4093561680059128,1.1676925252288013
