Time (s),X (m),Y (m)
0.001,0.00042302893680115855,-0.0010314752485082442
0.20000000000000015,0.0014818862885663427,0.0011820725951230242
0.4000000000000003,0.004685330369232391,-0.003487390579296038
0.6000000000000004,0.013375692142365786,-0.008218692184416709
0.8000000000000006,0.021527470352401854,-0.01403764868361846
1.0000000000000007,0.03486229712855218,-0.023388139130671042
1.2009999999999785,0.0346920424442066,-0.03510009352002656
1.4009999999999565,0.030770071244011172,-0.05430200729719085
1.6009999999999345,0.01922953342972068,-0.08094267274518155
1.8009999999999124,-2.805781278936077e-05,-0.09338436837672402
2.0009999999998906,-0.018326913607161606,-0.0948935959748082
2.2009999999998686,-0.015929153129421475,-0.08451183381348534
2.4009999999998466,-0.02616044630656817,-0.06448224530267442
2.6009999999998246,-0.04009655730840612,-0.03605780361844801
2.8009999999998025,-0.037253190159716544,-0.016347527022613228
3.0009999999997805,-0.031146544446619077,0.006915790751308056
3.2009999999997585,-0.01713801394998266,0.03727727139291088
3.4009999999997365,0.004519812762060124,0.06151132130926353
3.6009999999997144,0.03460135438951905,0.08515088539458426
3.8009999999996924,0.0672359591148873,0.09656759061843001
4.000999999999671,0.09363343980137785,0.09630497730571388
4.200999999999738,0.12380946746770452,0.0954391965053214
4.400999999999804,0.15556485931314967,0.08388432493743357
4.600999999999871,0.18071067518011544,0.05365321938134133
4.800999999999938,0.1966365899891516,0.017696655209067477
5.000000000000004,0.20204018184598352,-0.020578896107678744
5.200000000000071,0.20019618380685963,-0.0457766278450014
5.400000000000138,0.186660288309842,-0.04888439606799091
5.600000000000205,0.16862163188590992,-0.03381545229614833
5.800000000000272,0.14141411730572395,-0.015210057843427927
6.000000000000338,0.10787350448188329,0.009202332245143434
6.200000000000405,0.07530051104587025,0.04497612726755272
6.400000000000472,0.054714882088183814,0.09587187614006207
6.600000000000539,0.039410713546609966,0.14776884294805095
6.800000000000606,0.032930576263398736,0.17858814146415317
7.000000000000672,0.05232327791195188,0.19887177974381032
7.200000000000739,0.08913851692679953,0.2167846403186074
7.400000000000806,0.11741027632358793,0.21634601861336733
7.600000000000873,0.15169299114235366,0.20088829649579557
7.8000000000009395,0.193205871210652,0.17461283868007582
8.000000000001005,0.21986029554745184,0.13756220565480606
8.200000000000895,0.23290315848360235,0.0926203783861895
8.400000000000784,0.23503916711946102,0.04412150807312663
8.600000000000673,0.22225107794105423,0.015306296109548074
8.800000000000562,0.19421894759369213,0.0032335670551643194
9.000000000000451,0.15152213290007538,-0.009357176888862652
9.20000000000034,0.10817331280268365,-0.02228676018190398
9.40000000000023,0.06416696459384243,-0.02731789289803737
9.600000000000119,0.024557604853880196,-0.01887395212204402
9.800000000000008,-0.024686525877411512,0.003201862967875253
10.000999999999896,-0.05400274151487916,0.034694752240450134
10.200999999999786,-0.07514756622109761,0.0743908794693707
10.400999999999675,-0.08589828727886752,0.11544590200332004
10.600999999999564,-0.08266090002585913,0.1501940190876693
10.800999999999453,-0.06567767463762862,0.1661469909185181
11.000999999999342,-0.048316170045110976,0.16920522728525478
11.200999999999231,-0.053356639357041574,0.15688308570642678
11.40099999999912,-0.05107609500720585,0.12571895478948014
11.60099999999901,-0.05820002839462258,0.1052752702466122
11.800999999998899,-0.08440718367860081,0.08097297997742338
12.000999999998788,-0.10280422636930114,0.07556738727341963
12.200999999998677,-0.12867596816841162,0.08488567505613308
12.400999999998566,-0.1529622825697209,0.10975081226095645
12.600999999998455,-0.1578105063393563,0.13713238295388816
12.800999999998345,-0.1499469698633798,0.16805469294977082
13.000999999998234,-0.13097650012488202,0.17724208072478406
13.200999999998123,-0.10108838820201917,0.17524723853053817
13.400999999998012,-0.06396379218986345,0.16664800901044283
13.600999999997901,-0.02884861165815981,0.15470841976745756
13.80099999999779,-0.007322286943950518,0.14248455563613496
14.00099999999768,-0.010191361885785427,0.12230960738374674
14.200999999997569,-0.029024062247858303,0.09902229043095633
14.400999999997458,-0.052961117245733054,0.0798313291560222
14.600999999997347,-0.08583658002278673,0.06565583555791882
14.800999999997236,-0.12479016565647146,0.06246689270837078
15.000999999997125,-0.17967763090481625,0.05503997774609355
15.200999999997014,-0.22664152931502904,0.05691750337143134
15.400999999996904,-0.27033223984867266,0.06874542912163328
15.600999999996793,-0.3263805788147209,0.08490356553631644
15.800999999996682,-0.38786486798977243,0.09639863684359928
16.000999999996573,-0.4452618846225732,0.11115682509575228
16.200999999996817,-0.506673649627054,0.12719385375980005
16.40099999999706,-0.5477020606733808,0.14717145162226902
16.600999999997306,-0.5612279913379554,0.1812076412571604
16.80099999999755,-0.5595452715535845,0.22690675192029966
17.000999999997795,-0.555322945737688,0.27723242183637375
17.20099999999804,-0.5444097454541542,0.3357105937305999
17.400999999998284,-0.5264530498390849,0.38553103253727744
17.60099999999853,-0.5199270187478279,0.44004555771449316
17.800999999998773,-0.5098002728519939,0.48541038900261835
18.000999999999017,-0.49067054986789127,0.5308185644383108
18.20099999999926,-0.4655618532786841,0.5790150973805024
18.400999999999506,-0.4276309971080119,0.6129851024698537
18.60099999999975,-0.37401739173732773,0.6411604987699
18.799999999999994,-0.31342885062398435,0.6594438659627982
19.000000000000238,-0.2453859646062592,0.6719785436541674
19.200000000000482,-0.1861334418234156,0.6655231651273701
19.400000000000727,-0.15492265673149183,0.6377200188850655
19.60000000000097,-0.1464304318739683,0.5995807313892026
19.800000000001216,-0.15756122772935488,0.5822907074776767
20.00000000000146,-0.18385450004213896,0.5776618444030234
