Time (s),X (m),Y (m)
0.001,0.001152392079647418,0.0007293631428462583
0.20000000000000015,0.0006790807245656326,-0.00025577891356272684
0.4000000000000003,-0.0006476541293175499,-0.004096611950486736
0.6000000000000004,-0.0037300839885885573,-0.009344605455209124
0.8000000000000006,0.00015154991206964982,-0.006251738047736973
1.0000000000000007,0.009231769185727995,-0.004353556518697821
1.2009999999999785,0.01889253988038597,-0.0026182420236234988
1.4009999999999565,0.023799406669013413,-0.0037279744101381307
1.6009999999999345,0.03096199853173762,-0.007006204203001189
1.8009999999999124,0.04010402938838132,-0.009531356168195292
2.0009999999998906,0.046555521641661525,-0.0074757984845979664
2.2009999999998686,0.056778650560298544,0.0028407354497266266
2.4009999999998466,0.0740344575441347,0.008046833976935949
2.6009999999998246,0.09146041361862971,0.023921685510460994
2.8009999999998025,0.10759861597333344,0.04068076460710239
3.0009999999997805,0.11866383515751659,0.06172088475825252
3.2009999999997585,0.1268204310891754,0.0784543359145698
3.4009999999997365,0.1354565508109127,0.08620483700359535
3.6009999999997144,0.14576602504057706,0.09278975915682888
3.8009999999996924,0.15814935250208423,0.10974521900114659
4.000999999999671,0.16922405703296134,0.12762756661110508
4.200999999999738,0.17926556979541045,0.14870832422130156
4.400999999999804,0.18443121370819088,0.18030850607541252
4.600999999999871,0.19050874765675202,0.20826719882328623
4.800999999999938,0.20305289427223358,0.24499842900283414
5.000000000000004,0.21838814828049788,0.2586813678380626
5.200000000000071,0.23500094299232405,0.266994653445633
5.400000000000138,0.25119230504153583,0.27256153209465883
5.600000000000205,0.267172074228161,0.28531757351850634
5.800000000000272,0.27887425994605997,0.30744930743960086
6.000000000000338,0.28997948612954666,0.3322232931468974
6.200000000000405,0.30220963981948423,0.35834159783381714
6.400000000000472,0.3204907322595866,0.37912335449335827
6.600000000000539,0.3420851350248345,0.40643585828054185
6.800000000000606,0.3592358398237572,0.4306604015311289
7.000000000000672,0.36698312642845915,0.462614341873723
7.200000000000739,0.37336695642812245,0.4862853611562771
7.400000000000806,0.3842319357571118,0.5007628703599555
7.600000000000873,0.398746804352796,0.5152340980667514
7.8000000000009395,0.4070261561995394,0.5470093945492733
8.000000000001005,0.41560375509681363,0.5847424063127076
8.200000000000895,0.4232852006761721,0.6192049090511507
8.400000000000784,0.4324421756018046,0.6525762778970138
8.600000000000673,0.44275873930550064,0.6944457203188521
8.800000000000562,0.4528587385894859,0.730339141788649
9.000000000000451,0.46127620736282304,0.7621860754086625
9.20000000000034,0.47300699249482947,0.7832465353122431
9.40000000000023,0.48345277526397434,0.8161329927504144
9.600000000000119,0.4982300250896954,0.8378725639542527
9.800000000000008,0.5073955574792984,0.8589351711204233
10.000999999999896,0.5152484537353536,0.8945197986259177
10.200999999999786,0.5238414229810716,0.9338265640762131
10.400999999999675,0.5341687037739266,0.9604482887081687
10.600999999999564,0.546375575866643,0.9975833427516169
10.800999999999453,0.561623692773249,1.026107993080956
11.000999999999342,0.5753206753805744,1.060463160615588
11.200999999999231,0.5849174435000971,1.0943429021616335
11.40099999999912,0.5961246295164905,1.1373080924507517
11.60099999999901,0.6073031968689943,1.1747709607463712
11.800999999998899,0.6158907128620107,1.2082384104278683
12.000999999998788,0.634650341491771,1.2418276010576892
12.200999999998677,0.6580303072021919,1.273055081861914
12.400999999998566,0.6815048807690977,1.3049588344310126
12.600999999998455,0.7087034984205716,1.339004987395525
12.800999999998345,0.7355393168429134,1.3700537739075134
13.000999999998234,0.7557690453290982,1.405888863297963
13.200999999998123,0.7705019775590712,1.447266145059119
13.400999999998012,0.7796358370495552,1.4847931782314376
13.600999999997901,0.7811503423266845,1.5183169555772404
13.80099999999779,0.7778882660553972,1.5529698698871908
14.00099999999768,0.7800644995944904,1.5830381307492896
14.200999999997569,0.7772506961749228,1.6255958160660422
14.400999999997458,0.7751908538858713,1.6754459535297972
14.600999999997347,0.7810553396456638,1.7164176518840706
14.800999999997236,0.7963734152612745,1.7329673991396146
15.000999999997125,0.8143012123091204,1.7571696775599157
15.200999999997014,0.8310281264603269,1.7945306370466534
15.400999999996904,0.8382036623946328,1.8300970261489482
15.600999999996793,0.8354986788576285,1.8729740879519536
15.800999999996682,0.8265589511318229,1.915055010772328
16.000999999996573,0.8164124781200289,1.9639060561955926
16.200999999996817,0.8066403381384971,2.0039191920745627
16.40099999999706,0.798524703294021,2.0444343439314605
16.600999999997306,0.7793617878665483,2.0945104968479593
16.80099999999755,0.754772137096659,2.147459820933157
17.000999999997795,0.7386011891140741,2.195000751118234
17.20099999999804,0.7253652792497669,2.235519285064221
17.400999999998284,0.7138602082914267,2.2741448196322964
17.60099999999853,0.6932963090455864,2.3162795171345696
17.800999999998773,0.672974851065842,2.363675201497917
18.000999999999017,0.6575288573890419,2.4179986636610957
18.20099999999926,0.6412553980426309,2.469932423961719
18.400999999999506,0.629859148687124,2.5157244241720544
18.60099999999975,0.6179200036735937,2.5640285691583036
18.799999999999994,0.6086513988945115,2.607891917801541
19.000000000000238,0.603054292568872,2.6479868938198274
19.200000000000482,0.5959318655734258,2.6864541797103985
19.400000000000727,0.5911518514498304,2.7364600876039
19.60000000000097,0.5855751622827956,2.7800618122378093
19.800000000001216,0.5839510565644658,2.8108378824100466
20.00000000000146,0.5716251604069056,2.852251700452118
