Time (s),X (m),Y (m)
0.001,-0.00042190612164786544,-0.0005916298972236683
0.20000000000000015,0.0022245001107031,0.0015033387411167263
0.4000000000000003,0.010577069998066487,0.003343660494847027
0.6000000000000004,0.023091911596190704,0.007728883292905591
0.8000000000000006,0.03781959683714553,0.014790393599350814
1.0000000000000007,0.05348679117081507,0.021120364653602456
1.2009999999999785,0.06575960922630344,0.023539723176751917
1.4009999999999565,0.08109394827706298,0.022938339439578716
1.6009999999999345,0.10202808023964655,0.023026222172756537
1.8009999999999124,0.1272872023971768,0.017170810140963593
2.0009999999998906,0.15238081660189226,0.006009616123500449
2.2009999999998686,0.18605238728807286,-0.006775471752510473
2.4009999999998466,0.20709959384697085,-0.019828443983988225
2.6009999999998246,0.21278249213511993,-0.03636091621716186
2.8009999999998025,0.23308586069716686,-0.05706850380630986
3.0009999999997805,0.2533587819073737,-0.08024966566658845
3.2009999999997585,0.2790684525608282,-0.11294439054602178
3.4009999999997365,0.31173847396090126,-0.1536154533421631
3.6009999999997144,0.34586687210773165,-0.1940207935182789
3.8009999999996924,0.3771972057946332,-0.24080127218846034
4.000999999999671,0.40371250136343895,-0.2902761159947814
4.200999999999738,0.4151367561457781,-0.3272636092658735
4.400999999999804,0.4047528549032144,-0.37479683336599645
4.600999999999871,0.37992929701743805,-0.41891995888814854
4.800999999999938,0.34582645461787853,-0.4621870301471125
5.000000000000004,0.3075572084142338,-0.500191594894122
5.200000000000071,0.26853648056830637,-0.5326771606820244
5.400000000000138,0.22561664350771274,-0.5710348044053921
5.600000000000205,0.1777993334685837,-0.6115377715372248
5.800000000000272,0.13331624807279716,-0.6432432140358019
6.000000000000338,0.08308215596268727,-0.6738828207575039
6.200000000000405,0.028002114539661355,-0.724133363329293
6.400000000000472,-0.023814127321299887,-0.7726064568105682
6.600000000000539,-0.07653763853728947,-0.8155459469207946
6.800000000000606,-0.13349145460065728,-0.8615286939959309
7.000000000000672,-0.19414372252870715,-0.9033757324343208
7.200000000000739,-0.25553217722309196,-0.9388810390567213
7.400000000000806,-0.314302604817592,-0.9570658190098291
7.600000000000873,-0.37668650435639156,-0.965659140108365
7.8000000000009395,-0.45312082143075366,-0.9646400951735029
8.000000000001005,-0.5098207280793988,-0.9556381541610738
8.200000000000895,-0.5563264773331008,-0.9357048186398768
8.400000000000784,-0.6097981888085077,-0.9036191588502048
8.600000000000673,-0.667786939725605,-0.869969623598198
8.800000000000562,-0.7278232034502333,-0.8360958747788377
9.000000000000451,-0.7886174921806502,-0.7983296103493585
9.20000000000034,-0.8462666417437792,-0.7547613037665404
9.40000000000023,-0.9024077213435818,-0.708278267433547
9.600000000000119,-0.9492038173940688,-0.6580622480180176
9.800000000000008,-0.9897027288800548,-0.603803202454114
10.000999999999896,-1.0338707017952415,-0.5446523746173579
10.200999999999786,-1.0841045498429198,-0.481396378765568
10.400999999999675,-1.1275806181853723,-0.42183382731799085
10.600999999999564,-1.1800173458137058,-0.35778417190664724
10.800999999999453,-1.23418942404731,-0.2898560304045186
11.000999999999342,-1.2971671165702336,-0.22080538265454722
11.200999999999231,-1.372446186757131,-0.1364456150666362
11.40099999999912,-1.4354031864805998,-0.0568167822776759
11.60099999999901,-1.487995868454185,0.024486488161666056
11.800999999998899,-1.5285583359169308,0.09821840632483314
12.000999999998788,-1.5475674500015417,0.15631817416358687
12.200999999998677,-1.5492764215483399,0.21034984984199545
12.400999999998566,-1.533956731184089,0.2662819236762479
12.600999999998455,-1.4994692662021263,0.32032342401842273
12.800999999998345,-1.457631406901001,0.3646338025960928
13.000999999998234,-1.4075376756494908,0.4051179944526618
13.200999999998123,-1.3501467259801707,0.4478633936935197
13.400999999998012,-1.2834912329363468,0.4895591416067809
13.600999999997901,-1.2003163131657184,0.5411345964336767
13.80099999999779,-1.1165444125519204,0.5892870121729932
14.00099999999768,-1.0358164185824925,0.6385208524625546
14.200999999997569,-0.9495912651693942,0.6962542056488682
14.400999999997458,-0.868036286227229,0.7560441079243975
14.600999999997347,-0.789682264733759,0.8102856289953145
14.800999999997236,-0.7144899680369523,0.8705434852403068
15.000999999997125,-0.6349487530772204,0.9466531888516929
15.200999999997014,-0.5561778682096902,1.0220482210324449
15.400999999996904,-0.47777262950673316,1.1036011281483995
15.600999999996793,-0.39855700349162,1.1836424676257085
15.800999999996682,-0.32306843908346716,1.2645108361088009
16.000999999996573,-0.25332851090959313,1.3417461120472252
16.200999999996817,-0.18194822974729954,1.416269596971049
16.40099999999706,-0.11143388950468207,1.4866530550660881
16.600999999997306,-0.05113741584142533,1.5547697834611895
16.80099999999755,0.007381311505151644,1.6358881542159298
17.000999999997795,0.06973344571907379,1.7124275516559333
17.20099999999804,0.1375059255446383,1.7852400736052485
17.400999999998284,0.20741767318170948,1.852236050717186
17.60099999999853,0.2785938587247343,1.9108309051401084
17.800999999998773,0.3513506023968779,1.9751896984551909
18.000999999999017,0.4229881362196708,2.0402088587171123
18.20099999999926,0.49606154185617657,2.102189162416581
18.400999999999506,0.5706247509804314,2.169979865291337
18.60099999999975,0.6469453414803417,2.2413614460529567
18.799999999999994,0.7182881449164044,2.3074500953865895
19.000000000000238,0.7792098308088867,2.378263731167564
19.200000000000482,0.8347316434886399,2.4554133144664734
19.400000000000727,0.8955021460637522,2.527417920003284
19.60000000000097,0.954287439665335,2.5929594577868023
19.800000000001216,1.017330374629075,2.652145308458145
20.00000000000146,1.0903191584800487,2.714987199725888
