Time (s),X (m),Y (m)
0.001,0.0014388337585722719,-0.0001791137972120003
0.20000000000000015,0.0006386845259374886,-0.0001222344106080599
0.4000000000000003,0.008418791564532057,-0.002065727948594181
0.6000000000000004,0.01881561943449786,-0.004354381790694532
0.8000000000000006,0.023207912028081607,-0.004873215651245339
1.0000000000000007,0.032278661890754026,-0.0071242737279244225
1.2009999999999785,0.043316306906845785,-0.01457365932713914
1.4009999999999565,0.05209571002831854,-0.019685095515261
1.6009999999999345,0.05845915853054115,-0.022364509031200113
1.8009999999999124,0.0667390406006395,-0.028063737082395804
2.0009999999998906,0.08321152395168142,-0.02930386666155798
2.2009999999998686,0.0948691369920741,-0.03480750431071872
2.4009999999998466,0.10845593571518256,-0.03813399594945098
2.6009999999998246,0.1269633216939212,-0.0485594969970667
2.8009999999998025,0.1511192077891341,-0.0639190560431094
3.0009999999997805,0.1723356073450201,-0.08067904260367213
3.2009999999997585,0.19063456493120698,-0.0884387146121796
3.4009999999997365,0.19824627073631432,-0.09351461029579075
3.6009999999997144,0.20754701740942233,-0.09391231202964088
3.8009999999996924,0.2083551620851946,-0.0902181439937906
4.000999999999671,0.22532223703772394,-0.09637208931322941
4.200999999999738,0.24590894188777443,-0.10867032115152864
4.400999999999804,0.2633489358131727,-0.1167338637203818
4.600999999999871,0.28132983217812474,-0.12699864338187658
4.800999999999938,0.29915071448244696,-0.13466864666406939
5.000000000000004,0.31919659530799765,-0.14336816692181417
5.200000000000071,0.3338472083560974,-0.15123297757634566
5.400000000000138,0.35287551862449373,-0.1622817027754517
5.600000000000205,0.37598875251636465,-0.17577552749518874
5.800000000000272,0.4084747814141941,-0.19481231466404644
6.000000000000338,0.43307950986141736,-0.20848178544251358
6.200000000000405,0.45911201400178536,-0.23097441182104048
6.400000000000472,0.48731928028352345,-0.25211967553894504
6.600000000000539,0.516534627481465,-0.26982968627307247
6.800000000000606,0.5431122913326603,-0.2824794885109501
7.000000000000672,0.5714826792780003,-0.29462717598699556
7.200000000000739,0.6041955917992616,-0.3186648729894481
7.400000000000806,0.6387432550280201,-0.3440445761582933
7.600000000000873,0.6642626686463314,-0.3819787902631632
7.8000000000009395,0.6781700410223126,-0.42354067367587955
8.000000000001005,0.6733569292970486,-0.4586492449420239
8.200000000000895,0.656851918600946,-0.4906053560189927
8.400000000000784,0.6332972686392525,-0.5300186965989484
8.600000000000673,0.6204635070410915,-0.5600301792028254
8.800000000000562,0.6100026495461603,-0.581308009402297
9.000000000000451,0.593023696975401,-0.6106468351563777
9.20000000000034,0.568192991979454,-0.6461918177081868
9.40000000000023,0.53865399794492,-0.6794107897647629
9.600000000000119,0.5074989307188497,-0.7066228401258103
9.800000000000008,0.47880411545536566,-0.7284088539986258
10.000999999999896,0.4492028116064255,-0.7421671519165817
10.200999999999786,0.4338058189549297,-0.7492725512354023
10.400999999999675,0.40992373240381624,-0.7522133610287284
10.600999999999564,0.3910581950095906,-0.7562630847746311
10.800999999999453,0.3703917093320291,-0.7565560803654041
11.000999999999342,0.348364572324768,-0.751891672357329
11.200999999999231,0.3165452042968839,-0.7397817616644884
11.40099999999912,0.28536185791572666,-0.7326342029157021
11.60099999999901,0.25784213126727973,-0.7223789493148167
11.800999999998899,0.22345241959172316,-0.713828116812537
12.000999999998788,0.1912079343692924,-0.6957556097119479
12.200999999998677,0.16531305293001586,-0.6836423193013241
12.400999999998566,0.13576414324783515,-0.6741329581721702
12.600999999998455,0.10119508835297572,-0.6592185893485094
12.800999999998345,0.06322008060074435,-0.6414305606655416
13.000999999998234,0.02592050793953664,-0.6228297944086926
13.200999999998123,-0.015089648724389984,-0.599933179984195
13.400999999998012,-0.049320842254577425,-0.5725788187652666
13.600999999997901,-0.06728377718384533,-0.5338669694780789
13.80099999999779,-0.0752645944636364,-0.5078142238984558
14.00099999999768,-0.07781335516123082,-0.4837413237830666
14.200999999997569,-0.07068096913146887,-0.4564101425171545
14.400999999997458,-0.05955216995295384,-0.41603911787479886
14.600999999997347,-0.04493133520863645,-0.3730174588782716
14.800999999997236,-0.017984522498522833,-0.32894095931314404
15.000999999997125,0.0020496691732101472,-0.28858201152992907
15.200999999997014,0.00779952973147843,-0.26184813635970283
15.400999999996904,0.014917245369839228,-0.24257020287327197
15.600999999996793,0.023218038326037024,-0.22042704581173841
15.800999999996682,0.03676450154108825,-0.19324297555951972
16.000999999996573,0.050200591212768625,-0.16308965822064228
16.200999999996817,0.06280477880523835,-0.13029178900788582
16.40099999999706,0.0733890570155045,-0.1026062874832906
16.600999999997306,0.08480415318986097,-0.07943907459848534
16.80099999999755,0.09945195263828663,-0.054415252969485434
17.000999999997795,0.11238204478106496,-0.025438185398523175
17.20099999999804,0.12975248621224605,0.007535335265907093
17.400999999998284,0.15634324851735068,0.03983509665128059
17.60099999999853,0.18486882727884846,0.07485036124716088
17.800999999998773,0.21797593030684026,0.10607763144384216
18.000999999999017,0.24027213786754795,0.1312600145089825
18.20099999999926,0.2555125452806252,0.1534820114716521
18.400999999999506,0.28205151022298375,0.16489351577417777
18.60099999999975,0.30902335800649106,0.16313297390270926
18.799999999999994,0.3340268556923921,0.163178902770474
19.000000000000238,0.3654797060809199,0.15426685001058646
19.200000000000482,0.3958637862659012,0.14680946938955627
19.400000000000727,0.42594342010915665,0.13352487881315564
19.60000000000097,0.46111548122596846,0.11874025256706511
19.800000000001216,0.49166417188020456,0.10241286150620613
20.00000000000146,0.5297182166281343,0.09164013743359868
