Time (s),X (m),Y (m)
0.001,0.0005129279282107199,0.0010275501737767782
0.20000000000000015,0.0008751213165706728,-2.3718559016437692e-05
0.4000000000000003,0.0020150725164901615,-0.00022907397607772157
0.6000000000000004,0.005407302289388776,0.0004033182824651312
0.8000000000000006,0.009994272413598406,-0.001666006961820091
1.0000000000000007,0.015397046535270553,0.0024091277929270656
1.2009999999999785,0.02331184091677037,0.006891946378347927
1.4009999999999565,0.028319255474642938,0.014375453312433355
1.6009999999999345,0.03273161413316188,0.016789211004556385
1.8009999999999124,0.03907089690819078,0.018165361910200132
2.0009999999998906,0.04702210346879754,0.022061206536158125
2.2009999999998686,0.0542750604661188,0.023557552470205433
2.4009999999998466,0.05927690119866653,0.025254560972593668
2.6009999999998246,0.06537645363630949,0.029001473368626605
2.8009999999998025,0.07489706973329661,0.027655562386114975
3.0009999999997805,0.08254431627041928,0.03309890754278604
3.2009999999997585,0.08952500041527058,0.02953678953611388
3.4009999999997365,0.09525975156937198,0.02782264009840147
3.6009999999997144,0.10168755583419242,0.021831419356358024
3.8009999999996924,0.10797934531620423,0.02481761903592531
4.000999999999671,0.11653222865427723,0.03011506890583627
4.200999999999738,0.12543550627953537,0.02730735846018278
4.400999999999804,0.13147562285675135,0.02032888912253958
4.600999999999871,0.1337841829656664,0.009358127417191527
4.800999999999938,0.13413210322985153,0.0006953369388546002
5.000000000000004,0.13533073402522117,-0.0055541073531533945
5.200000000000071,0.14120868098201586,-0.009624276614111261
5.400000000000138,0.14388032675406065,-0.02145728424329132
5.600000000000205,0.14488916138781627,-0.027249050077690105
5.800000000000272,0.14924558199822047,-0.033782010655003226
6.000000000000338,0.15587245439565478,-0.03871321421559693
6.200000000000405,0.16405920094726906,-0.0327489746716816
6.400000000000472,0.1720737499695471,-0.032775280044566334
6.600000000000539,0.17945726857263325,-0.03490499290551973
6.800000000000606,0.19200756026873428,-0.03366858526932077
7.000000000000672,0.19808369564168654,-0.03247849577521387
7.200000000000739,0.20785489054179945,-0.02992051236560102
7.400000000000806,0.21540316301658977,-0.02581577315880581
7.600000000000873,0.22297093564381348,-0.026808717713376815
7.8000000000009395,0.23540472549863897,-0.02266862362099847
8.000000000001005,0.2487228443612705,-0.016048892877462573
8.200000000000895,0.2639639731315023,-0.010590463191202432
8.400000000000784,0.2742500076808516,-0.010192978589734152
8.600000000000673,0.283879432207066,-0.013325163398273221
8.800000000000562,0.29527194618212643,-0.010336631426159345
9.000000000000451,0.30585554974331863,-0.012125043316683674
9.20000000000034,0.31018058120650494,-0.01897460025621509
9.40000000000023,0.31533857958146155,-0.020800627487590602
9.600000000000119,0.32706612263483403,-0.017718743747745392
9.800000000000008,0.3350419476869848,-0.013992705390472798
10.000999999999896,0.3430666078637895,-0.024176465587403308
10.200999999999786,0.3474055427802575,-0.030308699825275225
10.400999999999675,0.35537403200188367,-0.032212509168276005
10.600999999999564,0.3685321735533598,-0.027328597625412225
10.800999999999453,0.3800646206251284,-0.027447033192135137
11.000999999999342,0.3906760606566616,-0.028587005478585944
11.200999999999231,0.39783240047246826,-0.026408932964391122
11.40099999999912,0.4046494930681761,-0.019363589398260442
11.60099999999901,0.4153809395874048,-0.01780120965773381
11.800999999998899,0.42385831032955024,-0.011230048900528198
12.000999999998788,0.4312036665895302,-0.0055691080664525576
12.200999999998677,0.44004639892994973,-0.009354532250868856
12.400999999998566,0.44705750522062776,-0.008702888022894633
12.600999999998455,0.4584535553093643,-0.005149715210726938
12.800999999998345,0.46841433238052554,-0.0014859111641474896
13.000999999998234,0.48086377298567484,0.0029271328179781664
13.200999999998123,0.49087622668269715,0.0021363133354239863
13.400999999998012,0.5021309260785167,0.006754086234085847
13.600999999997901,0.5149917127520519,0.01792534393640878
13.80099999999779,0.5271158434160426,0.021616527711028975
14.00099999999768,0.5385722691870609,0.021484980420702432
14.200999999997569,0.5511215205682755,0.01687256515770478
14.400999999997458,0.5615816842821196,0.017862422224338058
14.600999999997347,0.5734961377005257,0.015824572359708924
14.800999999997236,0.5846148813714005,0.01707381198794222
15.000999999997125,0.5963102051061505,0.01932848060445869
15.200999999997014,0.6052254240488104,0.015691598433497135
15.400999999996904,0.6127832854995018,0.011179641451169182
15.600999999996793,0.6243473601211265,0.011936532647911979
15.800999999996682,0.6368692436853588,0.01705647234426054
16.000999999996573,0.6492100469757568,0.024207473797844416
16.200999999996817,0.6580365936881083,0.024119071483280886
16.40099999999706,0.6705023731982026,0.02644645564035373
16.600999999997306,0.6820577439747295,0.02729471292867997
16.80099999999755,0.6899502891996845,0.02512365793330095
17.000999999997795,0.6948243323231437,0.024988118591005297
17.20099999999804,0.7043049991485767,0.02400489958591694
17.400999999998284,0.7169082039294549,0.02536653622015678
17.60099999999853,0.7257017741448836,0.025805304959928325
17.800999999998773,0.7349527028729675,0.019516792629486954
18.000999999999017,0.7457079980671645,0.014354248620077502
18.20099999999926,0.7555375051305524,0.008028951861802922
18.400999999999506,0.7633962119081903,0.004377905514044635
18.60099999999975,0.7692405192485188,-7.544361997777775e-05
18.799999999999994,0.7774836708399939,0.002953466343363517
19.000000000000238,0.7841715749914229,0.0037085451259628766
19.200000000000482,0.7902129706380426,0.004726588499395323
19.400000000000727,0.7974038300136155,0.010607146206030739
19.60000000000097,0.8038290894202087,0.014205001754964966
19.800000000001216,0.8192612568605863,0.025588484561035862
20.00000000000146,0.8348666409256147,0.031235092637134424
