Time (s),X (m),Y (m)
0.001,0.0009387665610552813,0.0008932837685830061
0.20000000000000015,0.0011187271679783495,0.001047102560469147
0.4000000000000003,0.004820247068236326,0.006160372908572589
0.6000000000000004,0.019576288341982447,0.017877068063882978
0.8000000000000006,0.03652091882629283,0.026613591014275094
1.0000000000000007,0.061005475790410935,0.041351931657044705
1.2009999999999785,0.09316756367341011,0.05652883474225841
1.4009999999999565,0.11227343418515007,0.06403618998750893
1.6009999999999345,0.14315166818050135,0.06190756415997352
1.8009999999999124,0.17400932399878027,0.05208855811104918
2.0009999999998906,0.1956215929524481,0.04137892373197547
2.2009999999998686,0.20876523699690655,0.00791541924039339
2.4009999999998466,0.21386989734424258,-0.03424802563366512
2.6009999999998246,0.20694528832517203,-0.07176386084687619
2.8009999999998025,0.19265723661675171,-0.08952596101717228
3.0009999999997805,0.16884827787042211,-0.10605714886483868
3.2009999999997585,0.13587338418568276,-0.12868294155216245
3.4009999999997365,0.09871771694320754,-0.1504872964712562
3.6009999999997144,0.05526083058426234,-0.18914765574161221
3.8009999999996924,0.008908802369108864,-0.23803194686316223
4.000999999999671,-0.037529873559148406,-0.2787689194035819
4.200999999999738,-0.07940188068582381,-0.3061003924778388
4.400999999999804,-0.10405242171706501,-0.32492165610752916
4.600999999999871,-0.11729630233900569,-0.328133178752769
4.800999999999938,-0.13039948267950743,-0.31669722234909753
5.000000000000004,-0.15849610184872132,-0.29908833461539686
5.200000000000071,-0.18393564896364573,-0.2677306787663452
5.400000000000138,-0.21446150281012277,-0.2229328021725004
5.600000000000205,-0.2382282741946074,-0.17254658772763748
5.800000000000272,-0.2519353943002078,-0.11639067280860191
6.000000000000338,-0.2509450455385707,-0.0632109190420393
6.200000000000405,-0.23265623106966274,-0.022219704780999
6.400000000000472,-0.2020507460233472,0.0025315877685331096
6.600000000000539,-0.1563451782384059,0.024518107992770974
6.800000000000606,-0.09112054484100349,0.050435138974678766
7.000000000000672,-0.03079547337791964,0.07004156048051642
7.200000000000739,0.02761800757253356,0.06587851469988812
7.400000000000806,0.08785826356380305,0.03281909219337088
7.600000000000873,0.14490901929328878,-0.014156151577844873
7.8000000000009395,0.20999800336018423,-0.056077751929507674
8.000000000001005,0.2680820726721379,-0.09636316267000719
8.200000000000895,0.312321024537075,-0.13908379640906696
8.400000000000784,0.35644993708435846,-0.18265417915977217
8.600000000000673,0.4075601995643249,-0.2229248556467039
8.800000000000562,0.4721320793016948,-0.2575604671764517
9.000000000000451,0.5156256039345434,-0.29759637676481104
9.20000000000034,0.5533839763627391,-0.34728014961674536
9.40000000000023,0.5931553653293989,-0.4075745874436849
9.600000000000119,0.6302030539400032,-0.47888132403336353
9.800000000000008,0.6653193561695261,-0.5552762055461545
10.000999999999896,0.692058102181499,-0.6283082745519278
10.200999999999786,0.7061578957546522,-0.696605331526269
10.400999999999675,0.6927314193925074,-0.7544621360489442
10.600999999999564,0.6620249967631309,-0.8084671189544659
10.800999999999453,0.6201631543755626,-0.8552108138170889
11.000999999999342,0.5660656186628832,-0.9026060913903927
11.200999999999231,0.5115262392349115,-0.9453632086469125
11.40099999999912,0.45913192871548875,-1.0088182827267054
11.60099999999901,0.4029540229705137,-1.0721696300560133
11.800999999998899,0.3334979329483201,-1.132420694778655
12.000999999998788,0.26038250397227264,-1.184280803898928
12.200999999998677,0.18835487170936804,-1.2279479218858722
12.400999999998566,0.11204803820855386,-1.2616957881456725
12.600999999998455,0.03658898643684196,-1.27384091755022
12.800999999998345,-0.02154313219881833,-1.2481053698812234
13.000999999998234,-0.0643618193171355,-1.1994847681012106
13.200999999998123,-0.08975411285920026,-1.1446086186672757
13.400999999998012,-0.08688303423748334,-1.102177178024703
13.600999999997901,-0.057299299104383576,-1.064157385749289
13.80099999999779,-0.016051768795851646,-1.035941872252345
14.00099999999768,0.03381452714244958,-1.0077475186291835
14.200999999997569,0.07989010624094835,-0.9908928177828217
14.400999999997458,0.13318518428471662,-0.9972058447409786
14.600999999997347,0.17140051984719348,-1.0126039190392766
14.800999999997236,0.20301774517758642,-1.035954030192532
15.000999999997125,0.2279695292430691,-1.0556498169037574
15.200999999997014,0.24197311965746396,-1.0828699927659562
15.400999999996904,0.23933210894348533,-1.1196123425739564
15.600999999996793,0.21815337245463712,-1.1502865303464822
15.800999999996682,0.18373802361908234,-1.1933476922561717
16.000999999996573,0.13985204862382528,-1.2371084501555045
16.200999999996817,0.08373500418673642,-1.2904946155776178
16.40099999999706,0.01804710079427012,-1.3472815577548516
16.600999999997306,-0.05241673454678791,-1.4010796282584432
16.80099999999755,-0.12604819495685596,-1.455297700912184
17.000999999997795,-0.19528593370760505,-1.5000192731033366
17.20099999999804,-0.2623688811148033,-1.547576072038587
17.400999999998284,-0.3313022423663773,-1.5937532880414595
17.60099999999853,-0.4037957348123515,-1.6295163538771154
17.800999999998773,-0.4667719234609787,-1.6465661198190762
18.000999999999017,-0.5224710663268308,-1.6310370007621011
18.20099999999926,-0.5712081285446581,-1.5962981731297972
18.400999999999506,-0.6310480507252542,-1.5431476667455832
18.60099999999975,-0.6783684260195745,-1.4872244952667495
18.799999999999994,-0.7255453142387963,-1.4255938604769216
19.000000000000238,-0.7822055088336981,-1.3554218277406833
19.200000000000482,-0.8465114965973755,-1.280052995966317
19.400000000000727,-0.9068558902592433,-1.2034668465463108
19.60000000000097,-0.955881466596748,-1.1264960875299612
19.800000000001216,-0.9979656095402805,-1.0498373289772371
20.00000000000146,-1.009815945149956,-0.9888014208533402
