Time (s),X (m),Y (m)
0.001,0.0006899943756669482,0.0009963285817120476
0.20000000000000015,0.0008169082002324188,-0.0005585113027447864
0.4000000000000003,0.0020318909398597284,-0.0027832028936977827
0.6000000000000004,0.004229115732931477,-0.0033547814896333563
0.8000000000000006,0.011309106108516103,-0.004158102024334429
1.0000000000000007,0.02039523151825007,-0.003732675739889666
1.2009999999999785,0.03003663883880286,-0.008503591117198462
1.4009999999999565,0.04068086799747622,-0.010936296952111752
1.6009999999999345,0.05410370904510272,-0.010017630233571464
1.8009999999999124,0.06737706634391176,-0.008985285776812728
2.0009999999998906,0.08266322463288792,-0.009130930847542497
2.2009999999998686,0.10150763559600218,0.005433583530254431
2.4009999999998466,0.1154966765839609,0.011285369500517329
2.6009999999998246,0.12812223542240456,0.014812830171883793
2.8009999999998025,0.14375140063080163,0.017730404379462543
3.0009999999997805,0.15955592106957306,0.02079260274154713
3.2009999999997585,0.18226286459600965,0.02050301251864734
3.4009999999997365,0.20102278482497254,0.019430348359954337
3.6009999999997144,0.21729618515155685,0.014743007642392829
3.8009999999996924,0.2267564153967926,0.004801135238647605
4.000999999999671,0.23566786228872988,-0.0055925670674623045
4.200999999999738,0.24847016310018102,-0.017007699693760998
4.400999999999804,0.264644577983019,-0.025473917043126255
4.600999999999871,0.28209449593436187,-0.0361984900778487
4.800999999999938,0.295124574453905,-0.04953243211814231
5.000000000000004,0.30137581563395033,-0.06651954993311628
5.200000000000071,0.29783311738404583,-0.08383161701146721
5.400000000000138,0.30033271053592453,-0.1041066734039668
5.600000000000205,0.3073720304356155,-0.12219965484594794
5.800000000000272,0.31214469380407706,-0.1373969966626104
6.000000000000338,0.3112384558768686,-0.15462970817090416
6.200000000000405,0.3219643000699734,-0.1774338567718604
6.400000000000472,0.3217889367948199,-0.1957403180943766
6.600000000000539,0.3308509598815634,-0.218039596487191
6.800000000000606,0.33365519401644206,-0.24122955699051657
7.000000000000672,0.3323628651373063,-0.2632745950145666
7.200000000000739,0.3225489519373254,-0.2786344490400787
7.400000000000806,0.3294837678642002,-0.29739598847727633
7.600000000000873,0.3376044073096097,-0.32344168968927983
7.8000000000009395,0.33768938448053726,-0.3491816546759772
8.000000000001005,0.3437935413740478,-0.3754588564704485
8.200000000000895,0.33795811204156634,-0.3924624352052216
8.400000000000784,0.345647143895769,-0.41895853327257054
8.600000000000673,0.3374737889384546,-0.4435198157193417
8.800000000000562,0.33132731931623827,-0.4674642124983895
9.000000000000451,0.33396598544992323,-0.48966456658781465
9.20000000000034,0.34165591389031497,-0.5166755370831869
9.40000000000023,0.35406263388587694,-0.539053393404955
9.600000000000119,0.3594570193381284,-0.5663852064439476
9.800000000000008,0.3718954864883722,-0.5962563719113668
10.000999999999896,0.38325174742138024,-0.6220137193222122
10.200999999999786,0.38924974215823077,-0.6513093187457786
10.400999999999675,0.39221320723930075,-0.6781820205662645
10.600999999999564,0.3902577970608859,-0.7018967294295417
10.800999999999453,0.3967873215420358,-0.7245375404426168
11.000999999999342,0.4000921420049742,-0.7459335541383227
11.200999999999231,0.3999000311443615,-0.7723819121261029
11.40099999999912,0.4052605504466645,-0.8022237766066238
11.60099999999901,0.404994322610724,-0.8312655054619457
11.800999999998899,0.3998449513090394,-0.8564011029112051
12.000999999998788,0.4003347305558248,-0.88356348205285
12.200999999998677,0.4071130007005337,-0.9129084520858538
12.400999999998566,0.4194932854054168,-0.9484517413794561
12.600999999998455,0.42141500658015796,-0.9790552497608738
12.800999999998345,0.42551350519734915,-1.0125879644051365
13.000999999998234,0.4239939804417133,-1.0385917660701023
13.200999999998123,0.4163332649800894,-1.0552568688764532
13.400999999998012,0.4133942492483784,-1.076999528232075
13.600999999997901,0.4172051689209076,-1.1113491975534364
13.80099999999779,0.4188334890238527,-1.139482321535625
14.00099999999768,0.4181420357894591,-1.1635052097219274
14.200999999997569,0.4171358637008,-1.1936287112672126
14.400999999997458,0.4177346640183365,-1.2268179191834323
14.600999999997347,0.42527249369658654,-1.259574627818484
14.800999999997236,0.4271467020524423,-1.2962699683982817
15.000999999997125,0.43169450761196615,-1.333253742537007
15.200999999997014,0.4372495785618774,-1.3693856461306213
15.400999999996904,0.4397121713347255,-1.3950565888201392
15.600999999996793,0.4330056452533944,-1.4152888274496003
15.800999999996682,0.4365858639994414,-1.4507054707364513
16.000999999996573,0.4314584923437713,-1.4758795062875754
16.200999999996817,0.4301217729292613,-1.507108592991486
16.40099999999706,0.42550129769545414,-1.536364260691953
16.600999999997306,0.4219370733207605,-1.5684222263622372
16.80099999999755,0.4189854874788249,-1.5973457934804904
17.000999999997795,0.4092179691220509,-1.6183118445008764
17.20099999999804,0.4027006125182549,-1.635317301065871
17.400999999998284,0.40144440696234807,-1.6565954837116426
17.60099999999853,0.4070438750379946,-1.6828912266245923
17.800999999998773,0.4240512161034122,-1.7148065056040234
18.000999999999017,0.433436832936846,-1.7494545214082766
18.20099999999926,0.44251328049381256,-1.783798873113829
18.400999999999506,0.4545021534553336,-1.8150746464320728
18.60099999999975,0.4616958515874775,-1.8451286354420917
18.799999999999994,0.47746282030152193,-1.8732962921607725
19.000000000000238,0.48362280527418056,-1.9030626136807867
19.200000000000482,0.48966147662656767,-1.933030751066209
19.400000000000727,0.4995311688833812,-1.9596701954356246
19.60000000000097,0.5089861658472498,-1.9892463403366012
19.800000000001216,0.5152062883779213,-2.0137458309370166
20.00000000000146,0.5182239770106142,-2.03749894139855
