Time (s),X (m),Y (m)
0.001,0.001086048446240603,0.0007901558823345071
0.20000000000000015,0.0009388502543661222,0.0006021939451265195
0.4000000000000003,0.008024033709178768,0.0005070885967461692
0.6000000000000004,0.02312041156542199,0.004475471310161757
0.8000000000000006,0.0459877029910202,0.011709130658553139
1.0000000000000007,0.06988087015423695,0.024166066800106537
1.2009999999999785,0.09513259768267665,0.03069711391465509
1.4009999999999565,0.1281012122725794,0.024426324397858405
1.6009999999999345,0.1792678667604865,0.007799268243883719
1.8009999999999124,0.22438885294912314,-0.01146251074306433
2.0009999999998906,0.26487710476922044,-0.03483764039445297
2.2009999999998686,0.31197758270862636,-0.07032220579224815
2.4009999999998466,0.3562094655460466,-0.11125285694955794
2.6009999999998246,0.39453461538906437,-0.1614664340396414
2.8009999999998025,0.4325339877597646,-0.21138344574514642
3.0009999999997805,0.45559374232604205,-0.2551553929853202
3.2009999999997585,0.4554895183724483,-0.2853934141089461
3.4009999999997365,0.44723731941497696,-0.30968786641385665
3.6009999999997144,0.4409781641905994,-0.3437552927650894
3.8009999999996924,0.43398023019721077,-0.384186937321667
4.000999999999671,0.43002645482613755,-0.4219932593263513
4.200999999999738,0.42096478522657255,-0.4637410648624569
4.400999999999804,0.39399421407183965,-0.5077765584719504
4.600999999999871,0.35544287367391203,-0.5560649993583853
4.800999999999938,0.31012772330625543,-0.6068685725782268
5.000000000000004,0.2542527998175674,-0.6605935462575576
5.200000000000071,0.1940877307158428,-0.7109997684158644
5.400000000000138,0.13549363435866227,-0.757810664814954
5.600000000000205,0.08026470232674196,-0.8022851072642151
5.800000000000272,0.028085922810300153,-0.8366595648420806
6.000000000000338,-0.01258991294180275,-0.8422315335155386
6.200000000000405,-0.050236127769611054,-0.8168758547811676
6.400000000000472,-0.07759280252250632,-0.7745303915836934
6.600000000000539,-0.09255836366913765,-0.7406290043525743
6.800000000000606,-0.0857610434132975,-0.7139017906069778
7.000000000000672,-0.06512060409184318,-0.6747027730821255
7.200000000000739,-0.03633880623889134,-0.6221278030089638
7.400000000000806,-0.00014401401605604333,-0.5750810210790744
7.600000000000873,0.03770119549453791,-0.5381662872056322
7.8000000000009395,0.08305672351354566,-0.49758610898543554
8.000000000001005,0.13229869221299892,-0.45943048333318726
8.200000000000895,0.18427893274247586,-0.4262660087985728
8.400000000000784,0.23686863778171938,-0.39152173628682635
8.600000000000673,0.29744447146516234,-0.35745910088439065
8.800000000000562,0.3565367312002766,-0.32017124544797243
9.000000000000451,0.39328770900414445,-0.2756703423157847
9.20000000000034,0.4070068526652163,-0.22202600922539786
9.40000000000023,0.4038794846530587,-0.1563933360154526
9.600000000000119,0.39708596496543375,-0.09107488114747324
9.800000000000008,0.3937279392806431,-0.03987022918433157
10.000999999999896,0.39200533604021165,-0.00041083406504674767
10.200999999999786,0.4080873398181423,0.04109449699998531
10.400999999999675,0.44353888802430197,0.08937763963323656
10.600999999999564,0.48378686824285644,0.14124017306295394
10.800999999999453,0.5317298643972463,0.19621081938266138
11.000999999999342,0.586685537483928,0.2493007254200011
11.200999999999231,0.6450180949157837,0.3185207612699374
11.40099999999912,0.7134125903886729,0.38701213495845505
11.60099999999901,0.7824522626391159,0.47212855403987397
11.800999999998899,0.8424569740045127,0.5475759252877498
12.000999999998788,0.9028236330309646,0.6167865417190194
12.200999999998677,0.9663877384409716,0.6839434101331845
12.400999999998566,1.036196250716632,0.7401725782685918
12.600999999998455,1.1153658635455155,0.7944466075068857
12.800999999998345,1.1947466763762775,0.8468002007700255
13.000999999998234,1.263117033413171,0.8894452114152336
13.200999999998123,1.3147554354729558,0.9014199229350631
13.400999999998012,1.3572455735171272,0.8740307382892305
13.600999999997901,1.375667585201224,0.8271100574416561
13.80099999999779,1.3651748426655277,0.7839303735148949
14.00099999999768,1.322911822678248,0.7414300156365896
14.200999999997569,1.2773570704502801,0.7064245683001799
14.400999999997458,1.21638431020077,0.6509024430257524
14.600999999997347,1.1531134881095404,0.594552537725278
14.800999999997236,1.0840237457226916,0.5350888859287051
15.000999999997125,1.0120363157240517,0.4859740974955575
15.200999999997014,0.946981246136826,0.4494673462677433
15.400999999996904,0.880916742885562,0.4143857131736167
15.600999999996793,0.8091235161902577,0.3711580651085869
15.800999999996682,0.7323908099848526,0.3254262821865731
16.000999999996573,0.657418555733493,0.28352087451383684
16.200999999996817,0.5829857316496797,0.24332530402773755
16.40099999999706,0.5082446835099271,0.19665564298283433
16.600999999997306,0.4316015535050939,0.14097372933774155
16.80099999999755,0.36100387631466474,0.08012981176130243
17.000999999997795,0.30033925024110664,0.020434345514469578
17.20099999999804,0.2374222573934085,-0.046914872352019785
17.400999999998284,0.17807389568692125,-0.12824132359193352
17.60099999999853,0.11161307835276724,-0.19357336924174204
17.800999999998773,0.037820944753060436,-0.2535748076007655
18.000999999999017,-0.04138543955868015,-0.30909162242245364
18.20099999999926,-0.12959800855936177,-0.37576357860697046
18.400999999999506,-0.21960045145933577,-0.4474239446122276
18.60099999999975,-0.3111882179153978,-0.5172387488886867
18.799999999999994,-0.40396193167282674,-0.5817761354783823
19.000000000000238,-0.49186768505708867,-0.6351362980413174
19.200000000000482,-0.5852178690344071,-0.6871029569988674
19.400000000000727,-0.6839388498084945,-0.7341033870590415
19.60000000000097,-0.7852651646489109,-0.7776491212504528
19.800000000001216,-0.8788297043471828,-0.8163122311889573
20.00000000000146,-0.9706981931049046,-0.8402539935675172
