Time (s),X (m),Y (m)
0.001,-1.2891339751951317e-05,-0.0009348340498585851
0.20000000000000015,0.0012739820230687352,0.0004673422743475286
0.4000000000000003,0.0029043940642070128,0.0007892799629241896
0.6000000000000004,0.002229957478743697,-0.007920018984212938
0.8000000000000006,0.004699324563967416,-0.008509034650651285
1.0000000000000007,0.004092779649572912,-0.0068843691891634345
1.2009999999999785,0.008249987520946148,-0.0032627067236398765
1.4009999999999565,0.017430707421233243,0.0010849120328738058
1.6009999999999345,0.02186556426339068,0.011140525356326559
1.8009999999999124,0.03149435861948538,0.017090980049969482
2.0009999999998906,0.04717457685851874,0.023564787429870795
2.2009999999998686,0.06344189244948209,0.026508113015757093
2.4009999999998466,0.08241134976267879,0.028418251813288224
2.6009999999998246,0.10387254874973763,0.034945348404134914
2.8009999999998025,0.1259423867329104,0.048987145992609026
3.0009999999997805,0.14085415883636862,0.05298274488283113
3.2009999999997585,0.1525466161873897,0.05244644068373271
3.4009999999997365,0.16644443602086662,0.050563023032280885
3.6009999999997144,0.18806590271470508,0.060198165390579164
3.8009999999996924,0.205015672629183,0.06582761931080942
4.000999999999671,0.21946661694638506,0.06681919853282255
4.200999999999738,0.23738718186146857,0.07479249886948082
4.400999999999804,0.2504507932877965,0.07811208111145075
4.600999999999871,0.26622146744867725,0.07885585344311594
4.800999999999938,0.28077836458389177,0.0823117537125997
5.000000000000004,0.2992539950071324,0.08563150337710829
5.200000000000071,0.32609667925507535,0.09871645637819887
5.400000000000138,0.3544502601369707,0.10828695806213469
5.600000000000205,0.3725322275388181,0.11268719426543401
5.800000000000272,0.3906821667095498,0.11466878514182353
6.000000000000338,0.40801824605273757,0.12174215901069271
6.200000000000405,0.4307092851836642,0.12137095279228885
6.400000000000472,0.4501580370027641,0.1251601545724794
6.600000000000539,0.46872261015529676,0.1329358030050723
6.800000000000606,0.48979144198284913,0.14189735248244562
7.000000000000672,0.5109639661913695,0.15156289430036501
7.200000000000739,0.5326245855511937,0.1529401025565234
7.400000000000806,0.5550479123815081,0.16744855470537012
7.600000000000873,0.580147461263786,0.17992925101508692
7.8000000000009395,0.607585996825539,0.19151872357775884
8.000000000001005,0.6342789548453344,0.20887099753609845
8.200000000000895,0.6595015437028076,0.2186762712096532
8.400000000000784,0.6789714364771615,0.22744930927817159
8.600000000000673,0.698697446481008,0.2342726950746498
8.800000000000562,0.7186576779532071,0.2466435515060614
9.000000000000451,0.7395651360627844,0.25341057052268157
9.20000000000034,0.761525312012996,0.2604993007395757
9.40000000000023,0.7822483314192229,0.27111196130768095
9.600000000000119,0.8020061461319667,0.28536048425522736
9.800000000000008,0.82145646588373,0.2889563610139315
10.000999999999896,0.8414628180816083,0.3066053872012859
10.200999999999786,0.8615344823215404,0.31763668017802116
10.400999999999675,0.8786061774938816,0.33865743324178094
10.600999999999564,0.8993463790433318,0.3521563288620177
10.800999999999453,0.9151312109292136,0.3711819973696958
11.000999999999342,0.9321625959925646,0.39147227512233185
11.200999999999231,0.9548398440972011,0.4086743740017966
11.40099999999912,0.9751211848413405,0.41639850827652625
11.60099999999901,0.9946672053160205,0.42484212974322966
11.800999999998899,1.0116152588743557,0.4532903594421727
12.000999999998788,1.0289941230059416,0.47253389191875417
12.200999999998677,1.0532612983337712,0.495395121022335
12.400999999998566,1.0783467460982545,0.509349938085883
12.600999999998455,1.103363700282918,0.5243982902462944
12.800999999998345,1.1284281631419795,0.5353446083547914
13.000999999998234,1.156762202566928,0.557470315314006
13.200999999998123,1.1896939659438825,0.5804460162079248
13.400999999998012,1.2228932860752797,0.6014693756583587
13.600999999997901,1.2579354420117996,0.6151065449824757
13.80099999999779,1.2845678391819217,0.6194035413230659
14.00099999999768,1.3074326621147456,0.6190472292990675
14.200999999997569,1.3343094203130472,0.6328729038087224
14.400999999997458,1.361086269183155,0.6465490353599405
14.600999999997347,1.3876992265586223,0.6577724489645823
14.800999999997236,1.4132369788915342,0.6687057699353007
15.000999999997125,1.4410943350500542,0.6771694985018997
15.200999999997014,1.4664349826636323,0.6875920033554686
15.400999999996904,1.4782735980821105,0.711018206740708
15.600999999996793,1.4878883713320175,0.7398541425218156
15.800999999996682,1.496149428082153,0.7695944525335343
16.000999999996573,1.501915127028078,0.8059507794406074
16.200999999996817,1.5045665920577442,0.849485984479544
16.40099999999706,1.5110450928519619,0.8661942483197197
16.600999999997306,1.5243149836950802,0.8811622852630394
16.80099999999755,1.543489899659932,0.89639753943
17.000999999997795,1.564532404369463,0.916601908903422
17.20099999999804,1.5853015352618856,0.9400637911639531
17.400999999998284,1.610583960881529,0.9577390270781501
17.60099999999853,1.638054302613575,0.975137835529179
17.800999999998773,1.667054483681293,0.990021585487312
18.000999999999017,1.6961267577664103,1.003419926607712
18.20099999999926,1.723246360381983,1.024357247223434
18.400999999999506,1.7518810681346884,1.0422252159721896
18.60099999999975,1.777929604517051,1.0585687351500281
18.799999999999994,1.803349767143259,1.0789695419623238
19.000000000000238,1.8270209991266986,1.1057872883470914
19.200000000000482,1.8483792080274521,1.127516532778174
19.400000000000727,1.8661539273608339,1.1555495951932968
19.60000000000097,1.8814555669137736,1.1839805292996177
19.800000000001216,1.9004790090522148,1.204327186900487
20.00000000000146,1.916197227293825,1.2301004933423128
