Time (s),X (m),Y (m)
0.001,0.0014193575185132074,0.0002669654388657892
0.20000000000000015,3.203103527688681e-05,-0.00014428175617970635
0.4000000000000003,0.0005341323829933188,-0.00037473646800114703
0.6000000000000004,-0.007367207208391362,0.0030158651558747952
0.8000000000000006,-0.005244647638310403,0.0053410565803632985
1.0000000000000007,0.005631350989784981,0.0015126288662338238
1.2009999999999785,0.01734827342758229,-0.006729116726758416
1.4009999999999565,0.036153428287823496,-0.019950770451830507
1.6009999999999345,0.05146613573680547,-0.02824383122991641
1.8009999999999124,0.07013045084631553,-0.04349194666127324
2.0009999999998906,0.08781212812770979,-0.06453508705009688
2.2009999999998686,0.10967843605345448,-0.09181977046218173
2.4009999999998466,0.1374151269742155,-0.13311264703944278
2.6009999999998246,0.16561560372787779,-0.16362438641133634
2.8009999999998025,0.19514816368509486,-0.19430011508197498
3.0009999999997805,0.22129138234415138,-0.2296815925784991
3.2009999999997585,0.23734410973206918,-0.2593995651676842
3.4009999999997365,0.23893736973394114,-0.2959050843948405
3.6009999999997144,0.23226630456724764,-0.3326366446143567
3.8009999999996924,0.21896168792655524,-0.36580804133750294
4.000999999999671,0.2003116837487319,-0.4078645719427638
4.200999999999738,0.1772836205845447,-0.4527249134603504
4.400999999999804,0.15299488018614107,-0.4882729159941326
4.600999999999871,0.1242803472261649,-0.532223444960101
4.800999999999938,0.08948533805710945,-0.5818160615097026
5.000000000000004,0.04869815596502242,-0.630186409794771
5.200000000000071,0.003034782931648118,-0.6842735791102499
5.400000000000138,-0.043491980161237134,-0.7392371324368707
5.600000000000205,-0.09085924419590148,-0.7944280590013544
5.800000000000272,-0.13436691238109646,-0.8472758043185493
6.000000000000338,-0.18131200926407143,-0.901599276764938
6.200000000000405,-0.2295205219517696,-0.9561230593315978
6.400000000000472,-0.2808365210677069,-1.0095089496846943
6.600000000000539,-0.33776395277532917,-1.0631774277822863
6.800000000000606,-0.39620387822043407,-1.101590318469967
7.000000000000672,-0.44945674051093754,-1.112127373436857
7.200000000000739,-0.4946211976318729,-1.1045199413619624
7.400000000000806,-0.5338508471918796,-1.0861085208100874
7.600000000000873,-0.5740499746574581,-1.056592023001283
7.8000000000009395,-0.6194624264453028,-1.0184970242192717
8.000000000001005,-0.6663343466565209,-0.9737362569798896
8.200000000000895,-0.711403297832186,-0.9246851874241956
8.400000000000784,-0.758679917451189,-0.8758619614024477
8.600000000000673,-0.8044357643926082,-0.8270028024043239
8.800000000000562,-0.8463857633133899,-0.7653156970720796
9.000000000000451,-0.8661109081389724,-0.698765460289421
9.20000000000034,-0.8573294426594164,-0.640811078960809
9.40000000000023,-0.8352044221028351,-0.6001306552873893
9.600000000000119,-0.8048910926877317,-0.559297115361334
9.800000000000008,-0.7716826084738878,-0.5136581527534351
10.000999999999896,-0.7379621671242124,-0.4544584368619422
10.200999999999786,-0.7002772815547517,-0.3959409851070931
10.400999999999675,-0.656108704320012,-0.3395718738101426
10.600999999999564,-0.6014787386753973,-0.28616106407880787
10.800999999999453,-0.5477190464525068,-0.24068809988297207
11.000999999999342,-0.49132626986553174,-0.2153827794869811
11.200999999999231,-0.43072051532909666,-0.21106427448112206
11.40099999999912,-0.3697736034073742,-0.230417991999091
11.60099999999901,-0.3038130831230855,-0.26606059450353475
11.800999999998899,-0.233807089736155,-0.3110796429347463
12.000999999998788,-0.16989808551689936,-0.35593877570478927
12.200999999998677,-0.09928783224174086,-0.4067317753139359
12.400999999998566,-0.03436297415968124,-0.45923304250765634
12.600999999998455,0.02834935706779609,-0.5135114082477243
12.800999999998345,0.0952943605127221,-0.5688224292118412
13.000999999998234,0.16256796638546925,-0.6239694649149504
13.200999999998123,0.22596403563117387,-0.6747149829878787
13.400999999998012,0.2838715896310184,-0.7226345380759539
13.600999999997901,0.3441943269011213,-0.7761363537177753
13.80099999999779,0.3968178444844153,-0.8330831348953244
14.00099999999768,0.4557906736131482,-0.8896197281952177
14.200999999997569,0.5184264117491458,-0.946030580689935
14.400999999997458,0.5818314602866532,-1.0035768817734525
14.600999999997347,0.6542548208562986,-1.0619174567646377
14.800999999997236,0.7229542778032766,-1.11958151888382
15.000999999997125,0.8019005044250241,-1.1825500949849503
15.200999999997014,0.86745142953514,-1.244137921463986
15.400999999996904,0.9304849677428276,-1.3039825140998884
15.600999999996793,0.9882846174264049,-1.3637995771134226
15.800999999996682,1.0196541313627367,-1.4331462852267423
16.000999999996573,1.0209604092723572,-1.50493994115339
16.200999999996817,0.9982736793917718,-1.5761183906417437
16.40099999999706,0.9574673779168604,-1.6565725106668283
16.600999999997306,0.9038448605248678,-1.7358481301399518
16.80099999999755,0.8477572201495207,-1.807812116707114
17.000999999997795,0.7921284106787507,-1.8721631794949576
17.20099999999804,0.7314907689016886,-1.9316083029630566
17.400999999998284,0.6760991401541565,-1.971932941856528
17.60099999999853,0.6295101965115582,-1.9785041046841276
17.800999999998773,0.5753117712084902,-1.957725732914619
18.000999999999017,0.513982828362032,-1.9211196727173516
18.20099999999926,0.4506486258708844,-1.874541108592071
18.400999999999506,0.38833463366387605,-1.816713012213779
18.60099999999975,0.3257422306167103,-1.7572192529522566
18.799999999999994,0.2607096287813574,-1.6948470323785598
19.000000000000238,0.19631595967415452,-1.6236076850866563
19.200000000000482,0.1333412371968487,-1.5535949680051029
19.400000000000727,0.0759379918042551,-1.487717826071017
19.60000000000097,0.023337427058532097,-1.411488306464054
19.800000000001216,-0.002924861575817837,-1.3479482845671127
20.00000000000146,0.0021859562230011824,-1.289400673247852
