Time (s),X (m),Y (m)
0.001,0.0012131848191356664,0.000663019509439443
0.20000000000000015,0.0009940025549416255,0.00010661957154218073
0.4000000000000003,0.0018931532663892631,0.0006090984222405721
0.6000000000000004,0.004083135669287432,0.0019699974432543046
0.8000000000000006,0.008046001501600461,0.004163207395355744
1.0000000000000007,0.013283145185172457,0.006807724898583699
1.2009999999999785,0.0187245553160369,0.009794499062381118
1.4009999999999565,0.022522659695423344,0.01235560911922423
1.6009999999999345,0.026372061808888264,0.013118206712999788
1.8009999999999124,0.03117380872739824,0.01699945664503919
2.0009999999998906,0.03499206470276776,0.018634491431613356
2.2009999999998686,0.0385730172682159,0.021853765665549925
2.4009999999998466,0.043393164720098354,0.025493444803253117
2.6009999999998246,0.04747213568737626,0.02669027733532732
2.8009999999998025,0.05059964314368775,0.031731528378030525
3.0009999999997805,0.0548960463813776,0.03628424905481535
3.2009999999997585,0.05829327572110069,0.03942458186024212
3.4009999999997365,0.0628472141217178,0.04115680612041053
3.6009999999997144,0.06670722120020756,0.045522419684980005
3.8009999999996924,0.07068971600126539,0.05130328149729105
4.000999999999671,0.07322730166521525,0.05522195315202208
4.200999999999738,0.07646300865528632,0.06026364907071849
4.400999999999804,0.07962426110723095,0.06596017994267853
4.600999999999871,0.0823952880019511,0.07122249115413089
4.800999999999938,0.08549080422760849,0.07689499053593649
5.000000000000004,0.08764294970206253,0.08344330086169129
5.200000000000071,0.08858545964326486,0.0902664004463661
5.400000000000138,0.09001830878976383,0.09617003027612692
5.600000000000205,0.09110503745543935,0.10452282138013268
5.800000000000272,0.09103325841760361,0.10815377719413814
6.000000000000338,0.09111866721242433,0.11232845316191119
6.200000000000405,0.09128248842724059,0.11686708846011032
6.400000000000472,0.09143220884281934,0.12431437530668984
6.600000000000539,0.09095230161542237,0.13037931346865414
6.800000000000606,0.09013206012072199,0.13701494890770763
7.000000000000672,0.08883994312035068,0.14330666615153334
7.200000000000739,0.08781305544063606,0.149591465525959
7.400000000000806,0.08725007539768581,0.15752786112626785
7.600000000000873,0.08516444557624572,0.16436215191668282
7.8000000000009395,0.08571907198076723,0.169495427739868
8.000000000001005,0.08442981611888123,0.1769442401983477
8.200000000000895,0.08382940223790039,0.18361013530279088
8.400000000000784,0.08251892825381425,0.19008211866458638
8.600000000000673,0.08052626237023887,0.19842273751516973
8.800000000000562,0.07912643100265762,0.2039507389783313
9.000000000000451,0.07645352811618229,0.21121055782324724
9.20000000000034,0.07171526552048868,0.22057707644652846
9.40000000000023,0.06902758775303394,0.22769586250181142
9.600000000000119,0.065393939020459,0.2360293202140835
9.800000000000008,0.061709185635995985,0.24329104606326882
10.000999999999896,0.05782943977150493,0.24953351884902664
10.200999999999786,0.052687335709465925,0.25634855529583506
10.400999999999675,0.04746744251307623,0.2639659570411377
10.600999999999564,0.043250956501562195,0.271014838438815
10.800999999999453,0.037509587877693866,0.2780157185790922
11.000999999999342,0.03280849796775089,0.2855770717436536
11.200999999999231,0.025735892613756316,0.29223850477221763
11.40099999999912,0.020681887614089796,0.2987654300822774
11.60099999999901,0.01520787846628893,0.30440836563730855
11.800999999998899,0.008723311968158858,0.3096712102263829
12.000999999998788,0.0018200064854869999,0.3140940089707489
12.200999999998677,-0.005867641343929117,0.31910206857540585
12.400999999998566,-0.013686899433241471,0.32384761706239434
12.600999999998455,-0.02051882605849875,0.3283000277630494
12.800999999998345,-0.028332525296548384,0.33148866515237113
13.000999999998234,-0.036008253105502736,0.33430649984652655
13.200999999998123,-0.04216181661134695,0.3374857151407389
13.400999999998012,-0.05154910331160269,0.3407191334105234
13.600999999997901,-0.058735014228911336,0.34322786560594876
13.80099999999779,-0.06526316540071588,0.34531292890217014
14.00099999999768,-0.07485606358069918,0.345429273638969
14.200999999997569,-0.08298704582487301,0.345695779986407
14.400999999997458,-0.09066913418868776,0.3460422088218986
14.600999999997347,-0.09844945749801115,0.34534699228960103
14.800999999997236,-0.10744886057929047,0.3447132552229018
15.000999999997125,-0.11741871474210175,0.3433129118917252
15.200999999997014,-0.1253427971986574,0.34219017398499135
15.400999999996904,-0.1335332005512872,0.33998326178144606
15.600999999996793,-0.14121835771904534,0.33873218564158564
15.800999999996682,-0.14877155061707015,0.33719516511510145
16.000999999996573,-0.15694617414454,0.33303006654497547
16.200999999996817,-0.16636329447550935,0.3288054534829686
16.40099999999706,-0.17500184558702772,0.3258131443968334
16.600999999997306,-0.18377320782115789,0.32174873504048773
16.80099999999755,-0.19147218594622142,0.31912629039469376
17.000999999997795,-0.19998866168734947,0.31454859427045156
17.20099999999804,-0.2088396646771797,0.3106998281701014
17.400999999998284,-0.21805010927919916,0.3044472404711059
17.60099999999853,-0.22732144171855007,0.2986776212797397
17.800999999998773,-0.23614771934737028,0.29252482593587614
18.000999999999017,-0.24429805692837664,0.28642125537320784
18.20099999999926,-0.2519131756943883,0.27923852862266246
18.400999999999506,-0.25915470561120796,0.2737277493213109
18.60099999999975,-0.26598207190502243,0.2656147354843066
18.799999999999994,-0.27230786872059626,0.25926186025031783
19.000000000000238,-0.279369914808147,0.2544598400951956
19.200000000000482,-0.2848878477444952,0.24946462482863105
19.400000000000727,-0.2909540343285929,0.24304224302602
19.60000000000097,-0.29548010438467087,0.23597502825307998
19.800000000001216,-0.29986439691903516,0.22953664053270464
20.00000000000146,-0.30365399879603516,0.22091733201228228
