Time (s),X (m),Y (m)
0.001,0.0006899943756669482,0.0009963285817120476
0.20000000000000015,0.0007098771713232831,-0.0010855860095878953
0.4000000000000003,0.007051137658615248,0.004198194409438071
0.6000000000000004,0.01758220863184998,0.009298612839570878
0.8000000000000006,0.031014616796710817,0.010217508382488735
1.0000000000000007,0.047584600661593625,0.010555834679683573
1.2009999999999785,0.06187525607049333,0.0065747204619526775
1.4009999999999565,0.07239616848642573,0.0009171098911567485
1.6009999999999345,0.0802672169284419,-0.0006940348009354578
1.8009999999999124,0.09244938562185108,0.0024914498296909884
2.0009999999998906,0.10779863290063452,0.011237230483895156
2.2009999999998686,0.1253256202791215,0.02417797552069051
2.4009999999998466,0.14826496009643086,0.03485484291641897
2.6009999999998246,0.169791704440089,0.043980367364814275
2.8009999999998025,0.1962478123907517,0.058539279649411045
3.0009999999997805,0.21166188238445013,0.07109631194485
3.2009999999997585,0.21916545952017527,0.06606034709626171
3.4009999999997365,0.21124886441502524,0.051365438962585025
3.6009999999997144,0.22117571258808025,0.041187054447204316
3.8009999999996924,0.24315214554292974,0.028847221448765028
4.000999999999671,0.24497374005382452,0.011590858108681303
4.200999999999738,0.24407089308636698,-0.010366066454851813
4.400999999999804,0.24386947902433917,-0.04161134034745632
4.600999999999871,0.23925305403613906,-0.06338379825055851
4.800999999999938,0.22489501783107216,-0.0811113700216358
5.000000000000004,0.20510341771724067,-0.09538121689790041
5.200000000000071,0.18492151734465578,-0.0977834105449901
5.400000000000138,0.16809341933813307,-0.09599732755564065
5.600000000000205,0.155001932921283,-0.10096078705096201
5.800000000000272,0.13985135181027245,-0.10469524445823465
6.000000000000338,0.1219166797278432,-0.11248720327377182
6.200000000000405,0.09567036507097569,-0.12374357414772451
6.400000000000472,0.059910101198175185,-0.14252742215523254
6.600000000000539,0.021231355876052856,-0.15329625108439088
6.800000000000606,-0.015438530169766951,-0.16329965195647161
7.000000000000672,-0.05522592769370805,-0.1732575448121463
7.200000000000739,-0.09532802000421982,-0.17098846962356562
7.400000000000806,-0.14083841326633534,-0.1650282233857659
7.600000000000873,-0.1770184040365781,-0.1558227670425044
7.8000000000009395,-0.215822573999829,-0.1370759838797809
8.000000000001005,-0.22889697024729724,-0.11527885869611722
8.200000000000895,-0.23533691804528234,-0.08771089385056209
8.400000000000784,-0.23834698270483007,-0.05460796121658678
8.600000000000673,-0.23482698161129728,-0.015540732891065839
8.800000000000562,-0.21273718491033852,0.011081556777595937
9.000000000000451,-0.18351931781571543,0.028230339228739364
9.20000000000034,-0.15671696976251792,0.04658836836461704
9.40000000000023,-0.12632754103026228,0.06783197360702559
9.600000000000119,-0.0810875755171519,0.10804678913717253
9.800000000000008,-0.039578614469351805,0.1256515030169584
10.000999999999896,-0.006512554823607339,0.1309017105666811
10.200999999999786,0.033216069543258335,0.13383657532658697
10.400999999999675,0.06673813876168472,0.13127332144712306
10.600999999999564,0.0868159834243248,0.11796734905880811
10.800999999999453,0.13145366737397166,0.10238166769403768
11.000999999999342,0.16324241387244456,0.07506084132567227
11.200999999999231,0.18672013572516474,0.042443439525056706
11.40099999999912,0.18836468748165172,0.015080481722605696
11.60099999999901,0.18830717413104867,-0.016888925804954685
11.800999999998899,0.1842522496267465,-0.050089384160179225
12.000999999998788,0.1765989501295519,-0.07690452994749107
12.200999999998677,0.17136403905936257,-0.10707254388693996
12.400999999998566,0.16748941073331478,-0.1372662291604757
12.600999999998455,0.1678774664823415,-0.16785678712945323
12.800999999998345,0.16301842661839538,-0.18211185873356694
13.000999999998234,0.1464962509821581,-0.21101552344749694
13.200999999998123,0.1258523944690278,-0.23094448043782262
13.400999999998012,0.10276187591501737,-0.23725351742441425
13.600999999997901,0.07230671567130678,-0.23797278519593032
13.80099999999779,0.03317845022187579,-0.24072837241780418
14.00099999999768,0.004954809336225596,-0.22843237285332485
14.200999999997569,-0.025973463091129755,-0.21737835447201978
14.400999999997458,-0.07244268368071431,-0.22043015996043797
14.600999999997347,-0.13490352040552167,-0.23374963286001593
14.800999999997236,-0.18898940465178343,-0.240886157246283
15.000999999997125,-0.22525223056263333,-0.23840589134433704
15.200999999997014,-0.24791232137514108,-0.22326554656430783
15.400999999996904,-0.26374736667262666,-0.19179456677998707
15.600999999996793,-0.2736531234047994,-0.15303099646786655
15.800999999996682,-0.2732775826439293,-0.11593590192222948
16.000999999996573,-0.27877658198761324,-0.07576815647951363
16.200999999996817,-0.2886130168981188,-0.03201461135411305
16.40099999999706,-0.2847228765192253,0.006591910969663681
16.600999999997306,-0.27752230038933784,0.04287489995868474
16.80099999999755,-0.26828549966521587,0.08812400989659533
17.000999999997795,-0.2594853855323408,0.12185445207228851
17.20099999999804,-0.23810061769305907,0.14375314426453725
17.400999999998284,-0.20227709577518826,0.14339399037998293
17.60099999999853,-0.16212546297752722,0.1426446098650777
17.800999999998773,-0.1122745548670318,0.15781286919653303
18.000999999999017,-0.07079914753746595,0.16185542233974665
18.20099999999926,-0.02983137122238829,0.16226221350148684
18.400999999999506,0.013293587956964864,0.17395467023901295
18.60099999999975,0.05892996198855752,0.1819480777248785
18.799999999999994,0.11586448019204877,0.18679940005009854
19.000000000000238,0.1548648127310564,0.18818417650928276
19.200000000000482,0.17142954832590637,0.17880109678348652
19.400000000000727,0.18850912803322672,0.15604130569437258
19.60000000000097,0.2186033840205936,0.12757690650864076
19.800000000001216,0.24920257670696844,0.09251084182233568
20.00000000000146,0.26150123440784956,0.05383722022926381
