Time (s),X (m),Y (m)
0.001,0.0014388337585722719,-0.0001791137972120003
0.20000000000000015,-0.0001843577321842224,0.00030121790620709526
0.4000000000000003,0.00903766163239111,-0.0009300256078982739
0.6000000000000004,0.016427634764185333,-0.0024171976773249317
0.8000000000000006,0.02895196059597588,-0.007068603171367798
1.0000000000000007,0.04795804370844788,-0.015085800952043812
1.2009999999999785,0.06293887770660826,-0.023399951274063597
1.4009999999999565,0.0853084151284784,-0.0323364413840436
1.6009999999999345,0.10953938936390194,-0.0461193121621479
1.8009999999999124,0.13435950769086633,-0.06684184279875109
2.0009999999998906,0.15247310873414685,-0.07857813017649715
2.2009999999998686,0.17527012695600147,-0.08781429665521481
2.4009999999998466,0.20017150017489885,-0.09741256555256435
2.6009999999998246,0.2167837830921808,-0.1156747394229766
2.8009999999998025,0.21769428422816967,-0.13617151638666758
3.0009999999997805,0.2095893686234962,-0.15916920569336107
3.2009999999997585,0.18812458757855013,-0.18565422470734425
3.4009999999997365,0.16664060302472047,-0.21581797148108867
3.6009999999997144,0.15372393707969165,-0.24411655508297178
3.8009999999996924,0.13601050310899102,-0.27299577672879843
4.000999999999671,0.10737774565714382,-0.3009610713903153
4.200999999999738,0.08078154192698442,-0.326034748459994
4.400999999999804,0.05163781668983661,-0.34117618482887946
4.600999999999871,0.026506123151667654,-0.3433349127053493
4.800999999999938,0.0027170471887872495,-0.3365599311879114
5.000000000000004,-0.024967366371921308,-0.32047731036948146
5.200000000000071,-0.06304309694044648,-0.2985737448627637
5.400000000000138,-0.10950730365263024,-0.27500161874797846
5.600000000000205,-0.15465680352376912,-0.25119756549290173
5.800000000000272,-0.2013731752440157,-0.21623723427237787
6.000000000000338,-0.2485084022257459,-0.18337841311930408
6.200000000000405,-0.2939019140265499,-0.1522657421148978
6.400000000000472,-0.332905389356085,-0.11903548638706726
6.600000000000539,-0.3578700612983084,-0.07404400496784211
6.800000000000606,-0.36628958691176644,-0.026131001291850503
7.000000000000672,-0.3541518182174219,0.02904771000863718
7.200000000000739,-0.3282844900313564,0.08741246843133695
7.400000000000806,-0.29696752136283805,0.146563563355345
7.600000000000873,-0.26231943596786805,0.20836826363040042
7.8000000000009395,-0.22514109816783234,0.2693322298164942
8.000000000001005,-0.1860235463059867,0.3320827649163009
8.200000000000895,-0.14826785073251217,0.39048419417575114
8.400000000000784,-0.11039204919743939,0.4445238540365455
8.600000000000673,-0.06875473836108228,0.49338493649558773
8.800000000000562,-0.029548020159251016,0.536172321263557
9.000000000000451,0.030767206842375147,0.5642544533573414
9.20000000000034,0.0797550294587108,0.5695049946240073
9.40000000000023,0.11578321895781632,0.5622615790913867
9.600000000000119,0.1529629006767531,0.551603737087108
9.800000000000008,0.18739161129278306,0.5385605891096376
10.000999999999896,0.23238758300042409,0.5182397338043734
10.200999999999786,0.28151780217132105,0.493513232564442
10.400999999999675,0.33319998310425153,0.46878227462057964
10.600999999999564,0.3752373658762739,0.44728955876873067
10.800999999999453,0.41993963926461125,0.4240223628924194
11.000999999999342,0.47618660494860393,0.39130564604580287
11.200999999999231,0.5317597938145056,0.35711165126488775
11.40099999999912,0.5886247799631389,0.3188931230511232
11.60099999999901,0.6329951215325665,0.28236200550307705
11.800999999998899,0.6537428437291232,0.24352166950203272
12.000999999998788,0.652508679194988,0.20709753643905146
12.200999999998677,0.6449474505576853,0.18004582226719298
12.400999999998566,0.6316735253540301,0.14223921721882055
12.600999999998455,0.614954213918998,0.09964033030737787
12.800999999998345,0.5960080385922641,0.059100256418107386
13.000999999998234,0.5691920040927533,0.01115198035025291
13.200999999998123,0.5413413474514315,-0.04260478383302981
13.400999999998012,0.5002872612786851,-0.09819166244670137
13.600999999997901,0.4520997157546129,-0.1503175491711926
13.80099999999779,0.40225519910365737,-0.174549661695475
14.00099999999768,0.3576221718281197,-0.17384563035497066
14.200999999997569,0.3134429953594896,-0.16039400001347032
14.400999999997458,0.2569946312308713,-0.1323905663626309
14.600999999997347,0.19510214616081675,-0.09555061806373716
14.800999999997236,0.13405006744117878,-0.057225076427841
15.000999999997125,0.07255940589704184,-0.014353396010597392
15.200999999997014,0.02272500147668426,0.032548092270532895
15.400999999996904,-0.003813625904058422,0.07795961620100614
15.600999999996793,-0.009224819642775746,0.12124235082804323
15.800999999996682,-0.0009634691646387181,0.16140503605590484
16.000999999996573,0.013695908399431264,0.1991919433454246
16.200999999996817,0.042025056437282264,0.24662156453546633
16.40099999999706,0.07813344711883598,0.30037599174832996
16.600999999997306,0.11931366455665982,0.3592586912129935
16.80099999999755,0.17989764676082798,0.420917426072861
17.000999999997795,0.23704550053425816,0.4677898677455595
17.20099999999804,0.29953266776326115,0.48499010495830047
17.400999999998284,0.3615801720268051,0.4763734297480299
17.60099999999853,0.4137304165811734,0.45789063305392225
17.800999999998773,0.4675990260426905,0.4344713811300105
18.000999999999017,0.5153910364863599,0.4082651725907329
18.20099999999926,0.5650142206419444,0.38404881043769457
18.400999999999506,0.6241784521222543,0.35748649018677725
18.60099999999975,0.6833091866159563,0.32979577987977404
18.799999999999994,0.7531176954775249,0.2950580899898932
19.000000000000238,0.8288205402545431,0.25599693587398
19.200000000000482,0.8974982141965887,0.22448182780589004
19.400000000000727,0.9422409486723529,0.20560593924112866
19.60000000000097,0.985825039664979,0.19037709015855353
19.800000000001216,1.0384707534646127,0.1713389598584736
20.00000000000146,1.1026246096929013,0.14243130719855135
