Time (s),X (m),Y (m)
0.001,-0.0004702548317818469,0.0005157376242541224
0.20000000000000015,0.0010263486098352605,-0.0002847944693822114
0.4000000000000003,-0.0012699638519253762,0.0014334357558850811
0.6000000000000004,0.0011922244359026675,0.001783544124685174
0.8000000000000006,0.006786580958445672,-0.0031081853781468874
1.0000000000000007,0.009038874705264512,-0.004203755097057556
1.2009999999999785,0.01784601954111676,-0.008758717487999609
1.4009999999999565,0.03070458072554099,-0.014927235945923103
1.6009999999999345,0.03978053797111325,-0.01662987235440521
1.8009999999999124,0.05340778621771612,-0.020555633299283994
2.0009999999998906,0.06586266859672835,-0.028122195738432
2.2009999999998686,0.0750309878289714,-0.037377639479609294
2.4009999999998466,0.09038840864683419,-0.04312345896112794
2.6009999999998246,0.10990063465322873,-0.052412880438548005
2.8009999999998025,0.11961674012210316,-0.059297493723056476
3.0009999999997805,0.1286471907600569,-0.06318183934997088
3.2009999999997585,0.1399783997325561,-0.0702390152515887
3.4009999999997365,0.15281328662129634,-0.07574813997213461
3.6009999999997144,0.1647615852568227,-0.08186328991077572
3.8009999999996924,0.1798057020575318,-0.08354221698007255
4.000999999999671,0.19233267679939892,-0.08896623044166889
4.200999999999738,0.21305106677123228,-0.09951833945711624
4.400999999999804,0.22668725469083634,-0.103432456094311
4.600999999999871,0.23873304201629833,-0.10956769856060583
4.800999999999938,0.2519338242158592,-0.11584123295968837
5.000000000000004,0.2722684850141451,-0.12707739669650203
5.200000000000071,0.28385134354537306,-0.13019914782821576
5.400000000000138,0.30180751513719983,-0.14022864413710073
5.600000000000205,0.3163362464671981,-0.14383743034941818
5.800000000000272,0.3354070446026414,-0.15127406420098125
6.000000000000338,0.35782065944436064,-0.1627820173432912
6.200000000000405,0.38523644156254017,-0.1740867008030895
6.400000000000472,0.41278175379402504,-0.18259552948343646
6.600000000000539,0.43155311620231596,-0.19025549242630097
6.800000000000606,0.44866290875135634,-0.19474554639284544
7.000000000000672,0.4664634031746675,-0.20168042718997847
7.200000000000739,0.49308904490816535,-0.21271060416941415
7.400000000000806,0.520854046084849,-0.22295498593979754
7.600000000000873,0.5442049116174832,-0.23488592016933083
7.8000000000009395,0.5730504352376501,-0.2510287276210221
8.000000000001005,0.5954484074869981,-0.26111491264047443
8.200000000000895,0.6205932669514231,-0.2747603405103229
8.400000000000784,0.6526178015515895,-0.28496242534298566
8.600000000000673,0.6823046599423017,-0.29354129367827986
8.800000000000562,0.7090663945978429,-0.3090551214682083
9.000000000000451,0.7343222423652401,-0.32099066830202183
9.20000000000034,0.7595596333861987,-0.341318463541695
9.40000000000023,0.7805713189114853,-0.35947457971717556
9.600000000000119,0.7996611619173467,-0.38222311345209264
9.800000000000008,0.81296770337549,-0.39920111634457667
10.000999999999896,0.8224600152011271,-0.415720782673687
10.200999999999786,0.8265997397649626,-0.43683148723068993
10.400999999999675,0.8224821637057723,-0.4699026000373332
10.600999999999564,0.8139606517159274,-0.5019893217556957
10.800999999999453,0.8084107687803831,-0.5263176113760532
11.000999999999342,0.8045277037908928,-0.5450245002149764
11.200999999999231,0.7982122730763288,-0.56786807230032
11.40099999999912,0.7908268436518645,-0.5938046584305839
11.60099999999901,0.7886437882035299,-0.6176262818839622
11.800999999998899,0.7870539728348123,-0.635053436474779
12.000999999998788,0.7817360795734977,-0.6560898120465293
12.200999999998677,0.775626534146996,-0.6761642245758412
12.400999999998566,0.7692498377016878,-0.7025695354602106
12.600999999998455,0.761193451398913,-0.7348997920811008
12.800999999998345,0.7511748402360887,-0.7687922567609399
13.000999999998234,0.7469474131043554,-0.7973413014381562
13.200999999998123,0.7387020842176656,-0.828758351269073
13.400999999998012,0.7284794306033383,-0.8619295632874096
13.600999999997901,0.7163950290453027,-0.894059192558365
13.80099999999779,0.7013854783433047,-0.9274950316736397
14.00099999999768,0.6912819116080339,-0.9569859278418259
14.200999999997569,0.6783006269704891,-0.9882490479273307
14.400999999997458,0.6698314909110591,-1.0171594181581978
14.600999999997347,0.6562865489127466,-1.0455014000448803
14.800999999997236,0.6365397478709358,-1.0732462647361927
15.000999999997125,0.6252913106450865,-1.1062272728019305
15.200999999997014,0.6123904314145616,-1.1403134257300909
15.400999999996904,0.6004714406381485,-1.1670926526441974
15.600999999996793,0.5921243123112668,-1.1936439317033694
15.800999999996682,0.5817513111870266,-1.2230517250980943
16.000999999996573,0.5621154384100239,-1.2565752883442542
16.200999999996817,0.5446286993619874,-1.2845278617234364
16.40099999999706,0.5296493594407171,-1.3106703335891412
16.600999999997306,0.5139881125944146,-1.3361746239420298
16.80099999999755,0.5038200178669074,-1.357901943802307
17.000999999997795,0.4863981997955958,-1.3742810407168604
17.20099999999804,0.4691127006085111,-1.3947643076742198
17.400999999998284,0.45372312695670974,-1.4143661570874855
17.60099999999853,0.4417796935964482,-1.4342614445101785
17.800999999998773,0.4208677584826145,-1.4542149418911527
18.000999999999017,0.4026621090133502,-1.470639295794092
18.20099999999926,0.37417069098478517,-1.4757413676282278
18.400999999999506,0.353123067692222,-1.4757509127363566
18.60099999999975,0.3262034091376382,-1.4729116774444189
18.799999999999994,0.2844832054449905,-1.4586307068038944
19.000000000000238,0.25224873086884936,-1.4453744381280227
19.200000000000482,0.2208120649709798,-1.4302173567063727
19.400000000000727,0.18980937274208562,-1.4232724452042347
19.60000000000097,0.1580077579784141,-1.4183136473947542
19.800000000001216,0.12758199170623838,-1.4082963605406196
20.00000000000146,0.09655509563947186,-1.397781815004594
