Time (s),X (m),Y (m)
0.001,0.00042302893680115855,-0.0010314752485082442
0.20000000000000015,0.001191503267700741,0.0008370604492299703
0.4000000000000003,0.001993770007986641,-0.002569897165047992
0.6000000000000004,0.005951234729738873,-0.004228450389378546
0.8000000000000006,0.010459243291021646,-0.024359475059690362
1.0000000000000007,0.018976991048435296,-0.029559229038818025
1.2009999999999785,0.030820804557542374,-0.03226790366853342
1.4009999999999565,0.047330411371276984,-0.028832742170735445
1.6009999999999345,0.05688279157334305,-0.039349011230046416
1.8009999999999124,0.07557235811045382,-0.03031807655396468
2.0009999999998906,0.09694208207870866,-0.025562818478548646
2.2009999999998686,0.12268138586514342,-0.01443388535409922
2.4009999999998466,0.1382409475448621,-0.016349690360298506
2.6009999999998246,0.15087362896316664,-0.02527301321553074
2.8009999999998025,0.16584560403402915,-0.03895062392825034
3.0009999999997805,0.16411913529040842,-0.0521010360638223
3.2009999999997585,0.16481403904152384,-0.07333386297095364
3.4009999999997365,0.16001795543147365,-0.09991878227577483
3.6009999999997144,0.14971674498494686,-0.12202749479822861
3.8009999999996924,0.1322475438470662,-0.133733008284667
4.000999999999671,0.11013293734003188,-0.14126724176803826
4.200999999999738,0.102047327925924,-0.13633167532613222
4.400999999999804,0.09346692446505052,-0.11852782726469087
4.600999999999871,0.09191415590273821,-0.09563491912211135
4.800999999999938,0.09773322927269724,-0.08246457873481744
5.000000000000004,0.11014451222213133,-0.07993831137627709
5.200000000000071,0.13051311920084058,-0.08143642801974271
5.400000000000138,0.15203020196251274,-0.0732587464126865
5.600000000000205,0.1753471085248111,-0.051671701144452464
5.800000000000272,0.2071748051779747,-0.03862590257032004
6.000000000000338,0.24514054137927438,-0.03298161960120848
6.200000000000405,0.2832926951455715,-0.02341632422970035
6.400000000000472,0.3181974445609577,-0.017673843501925798
6.600000000000539,0.3483659218756658,-0.02451835903645338
6.800000000000606,0.3819617185365041,-0.02530289110115528
7.000000000000672,0.4133009343359463,-0.035571974380647665
7.200000000000739,0.445855789687588,-0.038527727108368
7.400000000000806,0.4808951323952858,-0.029364093278458462
7.600000000000873,0.5134653461970342,-0.033759628334674954
7.8000000000009395,0.5476221532373967,-0.03978418782543563
8.000000000001005,0.584533702460976,-0.040832952853858656
8.200000000000895,0.618859210462997,-0.04611541403629861
8.400000000000784,0.6620146825021013,-0.04594343885370216
8.600000000000673,0.7118668474324785,-0.05037669863541137
8.800000000000562,0.7231424856423152,-0.06246950849222766
9.000000000000451,0.7098865793153109,-0.07776334954218272
9.20000000000034,0.6920235593690276,-0.09515183331809401
9.40000000000023,0.6776146299661956,-0.1142164979608964
9.600000000000119,0.6598449108006257,-0.13177975664271027
9.800000000000008,0.6469166942747446,-0.14971637207080873
10.000999999999896,0.6278206661683432,-0.1627560097884487
10.200999999999786,0.6140978569458888,-0.1776548396214371
10.400999999999675,0.597425911649649,-0.19712394968622388
10.600999999999564,0.5840221001329027,-0.22003712926594668
10.800999999999453,0.5713915034003662,-0.24687248664240308
11.000999999999342,0.5521091154623349,-0.26738405566410006
11.200999999999231,0.5289618513198712,-0.29583884699226787
11.40099999999912,0.5076416019930476,-0.3341917974752025
11.60099999999901,0.4841783944307645,-0.3470088315965523
11.800999999998899,0.4530938850084324,-0.34674684875248446
12.000999999998788,0.4286006812523154,-0.32862492919140224
12.200999999998677,0.4054806936477906,-0.30977655812090416
12.400999999998566,0.3741026424558627,-0.30471968874955524
12.600999999998455,0.3400878222380014,-0.30055217493288894
12.800999999998345,0.30886798217012484,-0.29356102213989205
13.000999999998234,0.2848079497878715,-0.2796537285399707
13.200999999998123,0.2595980027494589,-0.2613281729295054
13.400999999998012,0.22953850365747283,-0.24188383645692693
13.600999999997901,0.2108406028652243,-0.21727348050249762
13.80099999999779,0.2056164818442164,-0.1883250692996252
14.00099999999768,0.20241689598266574,-0.1598858249165452
14.200999999997569,0.20899374537751983,-0.12907437029172839
14.400999999997458,0.21543033776060663,-0.09257602734965481
14.600999999997347,0.23119206813249443,-0.0635256797444092
14.800999999997236,0.25099194080033776,-0.035655769829675735
15.000999999997125,0.26740813909484534,-0.008342603359563015
15.200999999997014,0.28802218768873605,0.006380605282293162
15.400999999996904,0.3152722578929523,0.027817313972867724
15.600999999996793,0.34247758870845474,0.05109241850652905
15.800999999996682,0.3689455446726943,0.07401133902287271
16.000999999996573,0.4005090144155941,0.08633640763195943
16.200999999996817,0.4356973074893766,0.0871755047923797
16.40099999999706,0.47515264637267507,0.08279925428182161
16.600999999997306,0.511281768722056,0.06787968680270434
16.80099999999755,0.5484272676339665,0.05378395768441969
17.000999999997795,0.5819318436666521,0.03619798371020473
17.20099999999804,0.6162706938017726,0.014621686742247291
17.400999999998284,0.64397613499312,-0.008565527135970002
17.60099999999853,0.6739533699043225,-0.036563471203315
17.800999999998773,0.682299395481861,-0.0700741398152706
18.000999999999017,0.6913753982839523,-0.10801751556849011
18.20099999999926,0.6956221604687143,-0.15013745648841562
18.400999999999506,0.6993880691600721,-0.19922348680684068
18.60099999999975,0.6944449914727964,-0.24149548565057266
18.799999999999994,0.6818692510857038,-0.27893793953701124
19.000000000000238,0.6609974041942638,-0.300577897416233
19.200000000000482,0.6317438535139256,-0.31425488119699224
19.400000000000727,0.5987216310452246,-0.31547813087577525
19.60000000000097,0.5682265099773892,-0.30686968233141915
19.800000000001216,0.5372416088965163,-0.2954953044396695
20.00000000000146,0.5031698311895924,-0.2765523712343827
