Time (s),X (m),Y (m)
0.001,0.0007758142491328282,-0.0009692696795465074
0.20000000000000015,0.0007915825841200015,0.0005287744535762731
0.4000000000000003,0.0015547281603654315,0.003279720762339808
0.6000000000000004,0.003837022853967969,0.0011935936045878285
0.8000000000000006,0.005658556145950822,-0.002473841124601534
1.0000000000000007,0.010869138506045734,-0.004074891180954806
1.2009999999999785,0.021350355914672714,0.0016697626844499483
1.4009999999999565,0.031022902459487744,0.006541467819682128
1.6009999999999345,0.04049630568804928,-0.0015354422248941655
1.8009999999999124,0.05369501285190412,-0.01950645193611076
2.0009999999998906,0.0663271601325081,-0.0382314244588778
2.2009999999998686,0.080774915616108,-0.03794013516847952
2.4009999999998466,0.09498837819904542,-0.040765247769676764
2.6009999999998246,0.1094409028355119,-0.0479813276653389
2.8009999999998025,0.12447767687823809,-0.043668369834018936
3.0009999999997805,0.13989395298080887,-0.039824993059706465
3.2009999999997585,0.15406647049910996,-0.051983664302504624
3.4009999999997365,0.17106417103626256,-0.060239140663953965
3.6009999999997144,0.18737814056436722,-0.0644595611746309
3.8009999999996924,0.20604096233364558,-0.06626915111647562
4.000999999999671,0.22377510171817877,-0.07200298535276763
4.200999999999738,0.24232496197824724,-0.07617917430750663
4.400999999999804,0.2564491645150837,-0.08681405333203074
4.600999999999871,0.2678729570584761,-0.08293380064420036
4.800999999999938,0.27739621462619807,-0.08995602385897385
5.000000000000004,0.2932397367307359,-0.08957979097798474
5.200000000000071,0.31039382671111493,-0.09374463051324292
5.400000000000138,0.3321361088115308,-0.08375490908875673
5.600000000000205,0.3455318685759872,-0.08867048568822945
5.800000000000272,0.3520210362603131,-0.09698167956632199
6.000000000000338,0.36034775741783565,-0.105423374930528
6.200000000000405,0.37374869564720264,-0.1130150180459487
6.400000000000472,0.39101493083030314,-0.12613744559888143
6.600000000000539,0.40777404518869564,-0.1274069645615726
6.800000000000606,0.4254576073551614,-0.1282780576660357
7.000000000000672,0.44116890474945986,-0.12105061057160538
7.200000000000739,0.45745543322208465,-0.11878168181517883
7.400000000000806,0.4709079858647249,-0.11502480938421224
7.600000000000873,0.4824828258355729,-0.11802758524080038
7.8000000000009395,0.48950535752049307,-0.12481735352652203
8.000000000001005,0.5066997701776046,-0.12490682666885147
8.200000000000895,0.525769865643052,-0.12435626882793956
8.400000000000784,0.5445167721097817,-0.12795655734018216
8.600000000000673,0.5665529269374012,-0.11937643928170896
8.800000000000562,0.5875743737082356,-0.11316542990114434
9.000000000000451,0.6131426397298838,-0.12092501581529709
9.20000000000034,0.6358424532610857,-0.12728539810764827
9.40000000000023,0.6580483300520192,-0.13124685704661038
9.600000000000119,0.6745758957343718,-0.12748431649136283
9.800000000000008,0.6915389199348463,-0.12355291669132504
10.000999999999896,0.7019167863861127,-0.13202058237300393
10.200999999999786,0.7142817801023256,-0.13741836914154104
10.400999999999675,0.7331854058526326,-0.13926233039751665
10.600999999999564,0.7467603316327968,-0.14831611649669688
10.800999999999453,0.7643844829312559,-0.1514519079097704
11.000999999999342,0.7830609756370279,-0.15364093026908815
11.200999999999231,0.8004787970969011,-0.15517681669580102
11.40099999999912,0.8165223223336776,-0.16430432526226513
11.60099999999901,0.8329870081134205,-0.16816617645817034
11.800999999998899,0.8521283668843704,-0.177481543993119
12.000999999998788,0.8717253037552382,-0.18784480508585874
12.200999999998677,0.8906870817211799,-0.1953307936917906
12.400999999998566,0.9052555847030731,-0.20291108071155384
12.600999999998455,0.9141662897714223,-0.21995062247818392
12.800999999998345,0.9250327553206608,-0.22965775266942517
13.000999999998234,0.9341942786476805,-0.24014462446587173
13.200999999998123,0.9493250849140338,-0.2434632903998924
13.400999999998012,0.9672529310926196,-0.2501619557254301
13.600999999997901,0.9810113231366803,-0.26332831902480025
13.80099999999779,0.9920553230364614,-0.27611559663436536
14.00099999999768,1.0042357275489118,-0.27948579081350033
14.200999999997569,1.0179070888695863,-0.28297504220273256
14.400999999997458,1.0330852846791292,-0.29655465256955377
14.600999999997347,1.050061731048912,-0.31071249740867596
14.800999999997236,1.0722776489451071,-0.3174844291924135
15.000999999997125,1.0951200645681247,-0.3136061683444005
15.200999999997014,1.1101937472642112,-0.3117504298526249
15.400999999996904,1.12767053962562,-0.30948898169564903
15.600999999996793,1.1418234185850242,-0.3164030459587565
15.800999999996682,1.1566989335967282,-0.31823658858601417
16.000999999996573,1.1699943545101275,-0.3149039121843205
16.200999999996817,1.1844728965716693,-0.31485625041629506
16.40099999999706,1.2001879992649556,-0.31987127795100934
16.600999999997306,1.2123312074751758,-0.3230882406091031
16.80099999999755,1.2229525065346736,-0.3448116156435024
17.000999999997795,1.2368897644462795,-0.34823797409703366
17.20099999999804,1.2517219359353757,-0.3559920501935295
17.400999999998284,1.265672794087185,-0.3628853959114324
17.60099999999853,1.2853983263318915,-0.3681283756996308
17.800999999998773,1.3025231048976476,-0.38396717593682644
18.000999999999017,1.3214435394968522,-0.3907969985531246
18.20099999999926,1.339947692229732,-0.39381479738340086
18.400999999999506,1.3632857183335558,-0.3928909514752683
18.60099999999975,1.3881609207481356,-0.3949600861375668
18.799999999999994,1.4100229378619535,-0.4036312625719994
19.000000000000238,1.4239757765252485,-0.41656959592188
19.200000000000482,1.4380817492306825,-0.4179077549982175
19.400000000000727,1.4553423953844014,-0.4241684506772295
19.60000000000097,1.4749620445322433,-0.422480174193791
19.800000000001216,1.4962209350579099,-0.4239550277109354
20.00000000000146,1.5192157905451216,-0.42204287824333525
