Time (s),X (m),Y (m)
0.001,0.001392298616347667,-0.0003527853123316693
0.20000000000000015,0.00129506325202333,-3.287834201424782e-05
0.4000000000000003,0.0042757955261854596,-0.004509607563946495
0.6000000000000004,0.005723769486944607,-0.0022806748402144153
0.8000000000000006,0.010342258185338012,0.00011713032619403257
1.0000000000000007,0.023616361188068806,-0.0015105653371410702
1.2009999999999785,0.0355743512011618,-0.0044190814004536364
1.4009999999999565,0.05414990903005881,-0.010035845794595667
1.6009999999999345,0.07575585056922607,-0.015340141709017117
1.8009999999999124,0.10309101933292637,-0.031097616598063763
2.0009999999998906,0.1276946013455231,-0.05026800998974936
2.2009999999998686,0.14910854447239952,-0.06835603761224736
2.4009999999998466,0.17256674357993287,-0.09932008515586724
2.6009999999998246,0.1875715328878,-0.11942216925099561
2.8009999999998025,0.19086584125862033,-0.14552514738311073
3.0009999999997805,0.18849350628644893,-0.17803024502258138
3.2009999999997585,0.1805408071839249,-0.21548200711630758
3.4009999999997365,0.1675928442650534,-0.24435050718474594
3.6009999999997144,0.15133206374019278,-0.27446113338875544
3.8009999999996924,0.13463283246469265,-0.3048929137909066
4.000999999999671,0.11647975761321999,-0.3239981113810101
4.200999999999738,0.10654347224122912,-0.3361596362701779
4.400999999999804,0.09541689618257164,-0.3412515226630241
4.600999999999871,0.07531416810420297,-0.3330040108701974
4.800999999999938,0.04340774646606803,-0.30960788073377576
5.000000000000004,0.0027767326321559266,-0.276108553296335
5.200000000000071,-0.04199537414758951,-0.2318635541462084
5.400000000000138,-0.0824013826847232,-0.1805690384863992
5.600000000000205,-0.11438765659364859,-0.12994454626750496
5.800000000000272,-0.1353225504187369,-0.08040663875190762
6.000000000000338,-0.14604473217593894,-0.040723192311611846
6.200000000000405,-0.14352811265723486,0.005977756644611915
6.400000000000472,-0.13421763878193124,0.05604062243088341
6.600000000000539,-0.10827204287079831,0.11373904016988379
6.800000000000606,-0.0912989605795867,0.16427179246721862
7.000000000000672,-0.06349902239930558,0.21323627841596463
7.200000000000739,-0.018833963287456512,0.2539184853840848
7.400000000000806,0.022223668283001066,0.27541262349567286
7.600000000000873,0.060840807272938745,0.2801476384897672
7.8000000000009395,0.09782588126602308,0.27529037780728804
8.000000000001005,0.13439498697832622,0.2618413100296449
8.200000000000895,0.180496223623958,0.24169087623305238
8.400000000000784,0.22047497504204797,0.22713214835745152
8.600000000000673,0.2668115098634296,0.20963102736646735
8.800000000000562,0.3145498353471745,0.19135141154135024
9.000000000000451,0.3667869139110318,0.16803446620304097
9.20000000000034,0.4274268436958639,0.13579190564554303
9.40000000000023,0.49202428031959167,0.10616855932329411
9.600000000000119,0.5523161225142452,0.08046162462617136
9.800000000000008,0.606051493499417,0.055515109460733056
10.000999999999896,0.6655655953099544,0.028306753972063458
10.200999999999786,0.730635597038971,-0.003742096657341729
10.400999999999675,0.7996124139127021,-0.041115683850925844
10.600999999999564,0.8650078009450279,-0.08137144823041233
10.800999999999453,0.9293874960712437,-0.1284196501049015
11.000999999999342,0.9794264814456266,-0.1736532853471615
11.200999999999231,0.9997927011678214,-0.2270054795061448
11.40099999999912,0.9747847042663524,-0.28539683935846877
11.60099999999901,0.940335593774204,-0.33811155603479653
11.800999999998899,0.9055690223509559,-0.37463235265895417
12.000999999998788,0.8603159132416577,-0.38906011089697284
12.200999999998677,0.8124180059773191,-0.39051943856508
12.400999999998566,0.7615642704170695,-0.381130414227265
12.600999999998455,0.7051441957100855,-0.36155306159923
12.800999999998345,0.6428111215952115,-0.3334870646169976
13.000999999998234,0.5846220866187326,-0.3058937416310345
13.200999999998123,0.5318764614663533,-0.2781936275300449
13.400999999998012,0.4852311724954581,-0.2555293061071089
13.600999999997901,0.43191725556399185,-0.23403063470634272
13.80099999999779,0.38326282852313037,-0.21800407121518406
14.00099999999768,0.3274610315696099,-0.1945030982095181
14.200999999997569,0.26914951130383863,-0.1666792717542177
14.400999999997458,0.21397360552110795,-0.14142874321545984
14.600999999997347,0.15397250073933966,-0.11332109042278454
14.800999999997236,0.08220885151793826,-0.07487921481356585
15.000999999997125,0.009820824533876584,-0.031622763619526366
15.200999999997014,-0.06195167051765463,0.010416908342123134
15.400999999996904,-0.1300660016617123,0.05004856212636845
15.600999999996793,-0.18946792164387877,0.09070086147381479
15.800999999996682,-0.22742716487064776,0.13178803299782785
16.000999999996573,-0.24304216754060465,0.1783589639326146
16.200999999996817,-0.23898877778127087,0.2252548195968968
16.40099999999706,-0.21885160519972496,0.285815535864613
16.600999999997306,-0.19750835776146922,0.3421890260537506
16.80099999999755,-0.17863018194909092,0.39913256067465336
17.000999999997795,-0.15546192057346248,0.4599360805446876
17.20099999999804,-0.1184963859108356,0.5216869767537834
17.400999999998284,-0.06445528076987893,0.5778129578038804
17.60099999999853,-0.009186688054292727,0.6172022420343957
17.800999999998773,0.05127324150678182,0.6263121668707277
18.000999999999017,0.1123381878965025,0.6162990867615565
18.20099999999926,0.17526145168415652,0.5932455933967326
18.400999999999506,0.23602217091026584,0.5690684584274353
18.60099999999975,0.29889260832449893,0.5380806761467282
18.799999999999994,0.3650157614354278,0.5083082926695645
19.000000000000238,0.4267044012459007,0.47857247030400607
19.200000000000482,0.48887461020003536,0.447845496523937
19.400000000000727,0.5553379534368186,0.412883288799751
19.60000000000097,0.6190431311860853,0.3790952325023022
19.800000000001216,0.6815915861311531,0.3489351749371676
20.00000000000146,0.7493213573995682,0.30714699395163453
