Time (s),X (m),Y (m)
0.001,-1.2891339751951317e-05,0.0009348340498585851
0.20000000000000015,0.0008893699555369143,-0.0004533587709434797
0.4000000000000003,0.0012115348417601163,-7.414933718831547e-05
0.6000000000000004,0.001697610254615546,-0.0003176394093280871
0.8000000000000006,0.002231712042247176,-0.0007052254033730035
1.0000000000000007,0.0028007332854516173,-0.0010921824887249161
1.2009999999999785,0.0032748708561655747,-0.0012696775709810993
1.4009999999999565,0.0037980888409322416,-0.0016638227294667272
1.6009999999999345,0.004340378917647814,-0.0021450129508860114
1.8009999999999124,0.00487150838851076,-0.002589696253759959
2.0009999999998906,0.005410345311772388,-0.003019629703851404
2.2009999999998686,0.005967488732806633,-0.003463418963932246
2.4009999999998466,0.006537127156065853,-0.003930069463552032
2.6009999999998246,0.007118613631305833,-0.004429057025295412
2.8009999999998025,0.007712366002130496,-0.004958093947419239
3.0009999999997805,0.008318346440944176,-0.005509738557836014
3.2009999999997585,0.008937165680282218,-0.006079825291722365
3.4009999999997365,0.009568462975179728,-0.006667290967832182
3.6009999999997144,0.010213151166007049,-0.0072725846327734624
3.8009999999996924,0.010870898011247668,-0.007896324433002715
4.000999999999671,0.011541032177842988,-0.008538301067504946
4.200999999999738,0.01222321650408663,-0.009197552957075144
4.400999999999804,0.012917481337792457,-0.009872948865616484
4.600999999999871,0.013623813748072196,-0.01056383044690411
4.800999999999938,0.014341743561491328,-0.01126940362015257
5.000000000000004,0.01507406185853513,-0.012003495988587184
5.200000000000071,0.01581537774468113,-0.012737194118647472
5.400000000000138,0.016568013120652824,-0.013484132190859276
5.600000000000205,0.01733140534038566,-0.014243485825821191
5.800000000000272,0.01810566496398127,-0.015014573739237168
6.000000000000338,0.018891053287628537,-0.015796998922913995
6.200000000000405,0.01968777849369731,-0.016590462277718473
6.400000000000472,0.02049574609279315,-0.017394798840148374
6.600000000000539,0.021314897045038864,-0.01820941397479105
6.800000000000606,0.022145217275267318,-0.019033920052465386
7.000000000000672,0.02298665865851576,-0.019867905022879963
7.200000000000739,0.023839332546471057,-0.020710672683504412
7.400000000000806,0.024703561575448903,-0.0215617451805445
7.600000000000873,0.025579456868764488,-0.02242040818780768
7.8000000000009395,0.02646700871765183,-0.023286031993377337
8.000000000001005,0.027366141220631673,-0.02415773281667702
8.200000000000895,0.028276686671726583,-0.025034345674169105
8.400000000000784,0.029198462672856397,-0.025914474876368943
8.600000000000673,0.030131426818897855,-0.026797170487858298
8.800000000000562,0.031075890645975355,-0.02768243157617725
9.000000000000451,0.032031790312312805,-0.028570052914640768
9.20000000000034,0.03299888693580064,-0.029459566661962932
9.40000000000023,0.033977052722618785,-0.03035039225351342
9.600000000000119,0.034965718386482485,-0.03124217076208348
9.800000000000008,0.03596453264350244,-0.032134503578697717
10.000999999999896,0.03696787926394608,-0.03301367726898382
10.200999999999786,0.03798567482686951,-0.03390532327278486
10.400999999999675,0.03901266873351151,-0.03479615249807068
10.600999999999564,0.04004895490763902,-0.03568599245832347
10.800999999999453,0.041094383777771595,-0.036574382989561546
11.000999999999342,0.0421488229525417,-0.037460625347223664
11.200999999999231,0.04321212746366726,-0.03834408139921903
11.40099999999912,0.044283894300021096,-0.03922442302048596
11.60099999999901,0.04536381981461873,-0.04010149577221896
11.800999999998899,0.046451680358430905,-0.04097512383103021
12.000999999998788,0.04754755945733296,-0.04184513107269533
12.200999999998677,0.04865124145227232,-0.042711137151469514
12.400999999998566,0.04976270358719347,-0.043572945100374065
12.600999999998455,0.05088184965777303,-0.04443037245610763
12.800999999998345,0.052008567110590626,-0.04528323460947721
13.000999999998234,0.05314261636436518,-0.0461312340353501
13.200999999998123,0.05428373908686302,-0.04697416352874076
13.400999999998012,0.05543177137242319,-0.04781170827522306
13.600999999997901,0.0565862985787354,-0.04864382882384515
13.80099999999779,0.05774683763676402,-0.04947042445766449
14.00099999999768,0.05891297154057573,-0.05029162054130032
14.200999999997569,0.06008467519567346,-0.051107884225889966
14.400999999997458,0.06126209898649567,-0.051919377105660705
14.600999999997347,0.06244528564172595,-0.05272603940093265
14.800999999997236,0.06363427121609685,-0.05352785594722484
15.000999999997125,0.06482896004755741,-0.05432458045993668
15.200999999997014,0.0660290107618575,-0.05511604344090916
15.400999999996904,0.0672337409399765,-0.05590200895778773
15.600999999996793,0.06844161443241199,-0.056682397188473656
15.800999999996682,0.06965131083969928,-0.05745712118216085
16.000999999996573,0.07086137245599326,-0.05822595828160292
16.200999999996817,0.07207020635757252,-0.05898862320293671
16.40099999999706,0.07327658873646,-0.05974509141809198
16.600999999997306,0.07447968952149812,-0.06049517586356417
16.80099999999755,0.07567867620196504,-0.061238537804585304
17.000999999997795,0.07687306610329299,-0.06197503996810106
17.20099999999804,0.07806292156576397,-0.06276420578509602
17.400999999998284,0.07929107356900171,-0.0634938012882087
17.60099999999853,0.08051537970582866,-0.06426891421276457
17.800999999998773,0.08175686178202887,-0.0650476573930316
18.000999999999017,0.08299619524474884,-0.06581919135752078
18.20099999999926,0.08421958038233575,-0.06657564379226623
18.400999999999506,0.085425418509642,-0.06731442300848046
18.60099999999975,0.08670429273843193,-0.06812749899416798
18.799999999999994,0.08798233706519097,-0.06887020383842049
19.000000000000238,0.08925596496745296,-0.0696333530096973
19.200000000000482,0.0905506053770482,-0.07039608694734181
19.400000000000727,0.09180710468148467,-0.0711257405784081
19.60000000000097,0.09309872563948664,-0.0718618507046896
19.800000000001216,0.09438520002665259,-0.07258059120437468
20.00000000000146,0.0956478949472575,-0.07327523127116957
