Time (s),X (m),Y (m)
0.001,0.00024391513958915793,-0.0010158048217711122
0.20000000000000015,0.0008031254221968804,-0.00023752443333061607
0.4000000000000003,0.0012511730716775254,-9.828073638481916e-05
0.6000000000000004,0.0018827435421359963,-5.598667086441023e-06
0.8000000000000006,0.0027044600750881155,0.0001561060749642789
1.0000000000000007,0.0037329225839045255,0.000201020678607358
1.2009999999999785,0.004778780134891836,0.0001765413213859693
1.4009999999999565,0.005989185316919516,0.00036323722996400366
1.6009999999999345,0.007247430588296912,0.0006118047018760754
1.8009999999999124,0.008514020351125431,0.0008772010234377976
2.0009999999998906,0.009804475639974717,0.0011467151985903499
2.2009999999998686,0.011134222776020991,0.0014473016931019606
2.4009999999998466,0.012449431826948496,0.001750672164921406
2.6009999999998246,0.013732926859115705,0.0020607807954707204
2.8009999999998025,0.015014634117681561,0.0023849747832306698
3.0009999999997805,0.016276108162357333,0.002709080723989884
3.2009999999997585,0.017510829988698476,0.0030309454803960196
3.4009999999997365,0.018735063385737064,0.0033592526150035083
3.6009999999997144,0.01994977522147062,0.0036915818103719386
3.8009999999996924,0.021160803837743186,0.004023264382853354
4.000999999999671,0.022395380631701378,0.0043394756153844445
4.200999999999738,0.02366479188336124,0.00463325598228465
4.400999999999804,0.024974218637897467,0.004904984667155955
4.600999999999871,0.026324090368206425,0.00515652711128892
4.800999999999938,0.02766366040675124,0.005392809096927594
5.000000000000004,0.028928571563767057,0.005600484944430606
5.200000000000071,0.03011609595213775,0.005800397048475748
5.400000000000138,0.031231758615881056,0.005992719931778246
5.600000000000205,0.032261510009282804,0.006182226380902618
5.800000000000272,0.03319662215372602,0.0063687045105742
6.000000000000338,0.0340386819196867,0.006551425860328368
6.200000000000405,0.03482279249763883,0.006730723404442947
6.400000000000472,0.03557692531323614,0.006905441862669058
6.600000000000539,0.036308738692515684,0.0070762953355079875
6.800000000000606,0.037020106487430156,0.007242680186455658
7.000000000000672,0.037711721393194855,0.007403956011706847
7.200000000000739,0.038382216296441465,0.007558543525237265
7.400000000000806,0.03903024643297336,0.007705172371222739
7.600000000000873,0.03965404272669918,0.007844258822409814
7.8000000000009395,0.040252233498752274,0.007976195168149208
8.000000000001005,0.040821670092197275,0.00810206861161206
8.200000000000895,0.04136096182446414,0.008221872502314174
8.400000000000784,0.04187289541609632,0.00833255400355376
8.600000000000673,0.04236979765272219,0.00843240323334618
8.800000000000562,0.04285549904882211,0.008521653256216705
9.000000000000451,0.043326588771284716,0.008601375133586612
9.20000000000034,0.04377932742446216,0.008673052029884474
9.40000000000023,0.04421298461479083,0.00873893178841386
9.600000000000119,0.04465042087467945,0.008806157043992362
9.800000000000008,0.0450965407263639,0.008884638312012999
10.000999999999896,0.04554733255765042,0.008987481632153009
10.200999999999786,0.04600933913612527,0.009095884817795198
10.400999999999675,0.046476845593017645,0.0092198451526789
10.600999999999564,0.04693735150488794,0.009361364327664169
10.800999999999453,0.0473842173110536,0.009518629515096688
11.000999999999342,0.04781383331372243,0.009687154276443044
11.200999999999231,0.0482155671968311,0.009859380990028793
11.40099999999912,0.048806737582498094,0.0098097130853495
11.60099999999901,0.049434488543376884,0.009724640775423829
11.800999999998899,0.050094299850668156,0.009602697457167207
12.000999999998788,0.050802069274560574,0.00972340529120493
12.200999999998677,0.05181883954715461,0.01041366052998406
12.400999999998566,0.052960581806570844,0.01123914320411547
12.600999999998455,0.05430035565286351,0.012187076736806118
12.800999999998345,0.05536932604566251,0.012605422867181264
13.000999999998234,0.05589256258263448,0.01344022117780319
13.200999999998123,0.05672677880440752,0.014111159491323385
13.400999999998012,0.05744184244466379,0.014884890794278764
13.600999999997901,0.05786299464501089,0.015825581412224097
13.80099999999779,0.05826399620589438,0.01709239744254519
14.00099999999768,0.05826446031210832,0.018288596747706887
14.200999999997569,0.05818947061724286,0.01950097544102886
14.400999999997458,0.057775483046113636,0.020901596999065315
14.600999999997347,0.0572061367743981,0.02223472528433153
14.800999999997236,0.056957171501509765,0.023094170266869874
15.000999999997125,0.05644219896269037,0.02468996409780398
15.200999999997014,0.05588967853701593,0.026350404695006165
15.400999999996904,0.05521897495065826,0.02790087842728072
15.600999999996793,0.054826397523069476,0.029380516193825597
15.800999999996682,0.054057111667413074,0.031212269479729444
16.000999999996573,0.05354320096211333,0.03293553835705522
16.200999999996817,0.053135298394266006,0.034664979276008936
16.40099999999706,0.052726161095064845,0.03645670498655125
16.600999999997306,0.05232068667100549,0.03828390570282382
16.80099999999755,0.05192299220798217,0.040131084542612105
17.000999999997795,0.05152934198196895,0.04197310977811042
17.20099999999804,0.05113542992208456,0.043775368218236445
17.400999999998284,0.05074195585756356,0.04553432740758626
17.60099999999853,0.05035626986302286,0.04726246631704437
17.800999999998773,0.04998497124097745,0.048973991030112726
18.000999999999017,0.04963299166659236,0.05067984627215997
18.20099999999926,0.049301571164311615,0.052381927790566336
18.400999999999506,0.04899293901647573,0.05408346140841368
18.60099999999975,0.048709350994523816,0.05579326479571948
18.799999999999994,0.048462654724515386,0.057509104844922374
19.000000000000238,0.048226795024453324,0.05924307795320977
19.200000000000482,0.04802007335298084,0.06095462069516259
19.400000000000727,0.04783508906256289,0.06257330811296026
19.60000000000097,0.04766969213241555,0.06408838305683152
19.800000000001216,0.04752398473729907,0.06550545729779428
20.00000000000146,0.0473966411112321,0.06683133353337442
