Time (s),X (m),Y (m)
0.001,0.0009387665610552813,-0.0008932837685830058
0.20000000000000015,0.0007071188465116235,0.0004395487371077349
0.4000000000000003,0.003348914537412709,0.000490182407757698
0.6000000000000004,0.005244963768614952,0.001964267716450917
0.8000000000000006,0.007708688596619585,0.007329717729918223
1.0000000000000007,0.013938768259144835,0.011397322829609827
1.2009999999999785,0.018853770449411587,0.017930469309014208
1.4009999999999565,0.02428606262465937,0.028641230901405308
1.6009999999999345,0.026904178490090917,0.03798405495863036
1.8009999999999124,0.03489848663846689,0.037223882961044036
2.0009999999998906,0.04446345529352981,0.03405214874969629
2.2009999999998686,0.05892666197327894,0.026246410615091992
2.4009999999998466,0.07749537806633035,0.03039946772821168
2.6009999999998246,0.09547774904369462,0.03360193112516123
2.8009999999998025,0.11007167452675135,0.03522206898654526
3.0009999999997805,0.12790183914476197,0.04093182452077914
3.2009999999997585,0.1470733056372433,0.04777665964214387
3.4009999999997365,0.16222690170921508,0.05085613989937181
3.6009999999997144,0.18085970814247943,0.05087118959879201
3.8009999999996924,0.20056004517520237,0.05078342181833161
4.000999999999671,0.22145332476496515,0.04805161495078045
4.200999999999738,0.23399156838873708,0.03767498917880065
4.400999999999804,0.24392821084393995,0.03332783117214305
4.600999999999871,0.2531139648423984,0.02627270495693979
4.800999999999938,0.2608856853427175,0.0258958894787492
5.000000000000004,0.2736179404748955,0.014865775786908326
5.200000000000071,0.28646549592777887,0.011616000181074447
5.400000000000138,0.298000768222367,0.0008004937016013126
5.600000000000205,0.3088460137817211,-0.006733285834288114
5.800000000000272,0.3152999424812848,-0.009348493970781926
6.000000000000338,0.3193380177801581,-0.020166224417184818
6.200000000000405,0.3295266787629256,-0.033573424982413794
6.400000000000472,0.34212403902472616,-0.04642878262652228
6.600000000000539,0.35234911277019865,-0.05855501959329845
6.800000000000606,0.366664053278873,-0.06310601541214926
7.000000000000672,0.38110190794846915,-0.06416161620678629
7.200000000000739,0.39658861604964313,-0.06461982627136847
7.400000000000806,0.4088318953751382,-0.06489059870412155
7.600000000000873,0.4248738534229448,-0.06097627491427104
7.8000000000009395,0.43522156214351526,-0.07141996864722713
8.000000000001005,0.4496175419330825,-0.0837604619146571
8.200000000000895,0.47000238335889216,-0.09043013711664272
8.400000000000784,0.490681612812682,-0.09852743195773658
8.600000000000673,0.5073923576380777,-0.10448925023930727
8.800000000000562,0.5205725409020387,-0.11944784324638981
9.000000000000451,0.539077220343023,-0.12248277034764503
9.20000000000034,0.5570228841022901,-0.13248410208973427
9.40000000000023,0.5698961345448422,-0.14532000664980937
9.600000000000119,0.5847311204338945,-0.1520064679023557
9.800000000000008,0.5968349619443989,-0.16089401389621705
10.000999999999896,0.6067424645898207,-0.15460002161982256
10.200999999999786,0.6137230838719139,-0.15771017403404375
10.400999999999675,0.6227475155522123,-0.16355545382662665
10.600999999999564,0.6330300016049083,-0.17719038233787557
10.800999999999453,0.6461384922247628,-0.18304751116778897
11.000999999999342,0.6622886864876691,-0.1853777821845664
11.200999999999231,0.677281200128312,-0.19299878205299176
11.40099999999912,0.6836910424778991,-0.20812613885614487
11.60099999999901,0.6923741382076981,-0.22242089848644447
11.800999999998899,0.7004798196198876,-0.23442870796555
12.000999999998788,0.7104138383211057,-0.2490489322912321
12.200999999998677,0.7178703676543946,-0.2667505016742598
12.400999999998566,0.7287963191781485,-0.2791735524583943
12.600999999998455,0.7371270416116722,-0.2881037724681478
12.800999999998345,0.7437447507653002,-0.30610247456363215
13.000999999998234,0.7489899748751276,-0.32318234220895886
13.200999999998123,0.752957607845354,-0.33757114837488283
13.400999999998012,0.7606120883908212,-0.34948206140791377
13.600999999997901,0.7693197093655878,-0.3592436731421055
13.80099999999779,0.7767387741695783,-0.36617803731752274
14.00099999999768,0.783432802081603,-0.37324722889876233
14.200999999997569,0.7932803593582612,-0.37746218763533773
14.400999999997458,0.8061354822118393,-0.3749937604764617
14.600999999997347,0.8154467292387239,-0.37680204311929427
14.800999999997236,0.8259392142570082,-0.3878815114883672
15.000999999997125,0.8334084542473108,-0.4053503640168085
15.200999999997014,0.8415356792110525,-0.41410087433801057
15.400999999996904,0.8498063188828245,-0.4286068104584916
15.600999999996793,0.8586746549678744,-0.4321553102871592
15.800999999996682,0.8684918378203673,-0.4369489938404359
16.000999999996573,0.8778910124209445,-0.44948829857930184
16.200999999996817,0.8883078213595466,-0.45302868124302426
16.40099999999706,0.9031482317396927,-0.4598252503534041
16.600999999997306,0.9193262231769591,-0.4672865253952301
16.80099999999755,0.9306497770752167,-0.4778624763182644
17.000999999997795,0.9436938717044274,-0.48243355885532485
17.20099999999804,0.952157664833153,-0.49778643182513344
17.400999999998284,0.9662372179086772,-0.5079200500176564
17.60099999999853,0.9816744598834417,-0.5161773776295594
17.800999999998773,0.998347517831024,-0.5287126640250732
18.000999999999017,1.0113825929225044,-0.5372384562254323
18.20099999999926,1.0181548479186626,-0.5358855702764362
18.400999999999506,1.0311451825771742,-0.541979764415044
18.60099999999975,1.0480458227096392,-0.5520373941341546
18.799999999999994,1.0623049224655858,-0.5670329801285926
19.000000000000238,1.074349285596276,-0.5853791680213518
19.200000000000482,1.0846209322120948,-0.5901440636417699
19.400000000000727,1.0960712393121168,-0.6046241910397411
19.60000000000097,1.1115433752211181,-0.6210103491054976
19.800000000001216,1.1301979560151951,-0.6320865309812511
20.00000000000146,1.1464088659167613,-0.6295880426996439
